20.000        53
20.010        27
20.020        53
20.030        53
20.040        20
20.050        40
20.060        40
20.070        33
20.080        53
20.090        33
20.100        80
20.110        67
20.120        27
20.130        27
20.140        47
20.150        27
20.160        40
20.170       113
20.180        53
20.190        40
20.200        47
20.210        73
20.220        27
20.230        40
20.240        33
20.250        47
20.260        20
20.270        67
20.280        47
20.290        40
20.300        33
20.310        27
20.320        40
20.330        20
20.340        33
20.350        40
20.360        20
20.370        20
20.380        40
20.390        33
20.400        47
20.410        53
20.420        60
20.430        33
20.440        67
20.450        27
20.460        60
20.470        20
20.480        13
20.490        47
20.500        27
20.510        60
20.520        53
20.530        60
20.540        27
20.550        60
20.560        20
20.570        33
20.580        40
20.590        80
20.600        47
20.610        33
20.620        40
20.630        40
20.640        40
20.650        33
20.660        67
20.670        33
20.680        40
20.690        27
20.700        20
20.710        80
20.720        27
20.730        33
20.740        53
20.750        13
20.760        33
20.770        87
20.780        67
20.790        60
20.800        27
20.810        53
20.820        27
20.830        33
20.840        60
20.850        20
20.860        53
20.870        47
20.880        33
20.890        40
20.900        47
20.910        87
20.920        33
20.930        47
20.940        60
20.950        40
20.960        40
20.970        47
20.980        67
20.990        20
21.000        40
21.010        53
21.020        73
21.030        33
21.040        33
21.050        53
21.060         7
21.070        53
21.080        53
21.090        27
21.100        33
21.110        33
21.120        80
21.130        47
21.140        27
21.150        53
21.160        33
21.170        73
21.180        33
21.190        67
21.200        27
21.210        73
21.220        27
21.230        47
21.240        67
21.250        53
21.260         7
21.270        47
21.280        20
21.290        40
21.300        40
21.310        40
21.320        40
21.330        33
21.340        33
21.350        27
21.360        20
21.370        67
21.380        40
21.390        33
21.400        40
21.410        47
21.420         0
21.430        27
21.440        20
21.450        40
21.460        20
21.470        33
21.480        33
21.490        40
21.500        20
21.510        33
21.520        33
21.530        40
21.540        27
21.550        67
21.560        20
21.570        47
21.580        40
21.590        73
21.600        40
21.610        47
21.620        40
21.630        40
21.640        60
21.650        27
21.660        60
21.670        27
21.680        40
21.690        40
21.700        20
21.710        47
21.720        33
21.730        33
21.740        53
21.750        40
21.760        40
21.770        27
21.780        53
21.790        60
21.800        67
21.810        40
21.820        27
21.830        20
21.840        73
21.850        47
21.860        67
21.870        47
21.880        60
21.890         7
21.900        47
21.910        27
21.920        67
21.930        53
21.940        67
21.950        40
21.960        53
21.970        60
21.980        27
21.990        20
22.000        60
22.010        27
22.020        33
22.030        13
22.040        47
22.050        13
22.060        53
22.070        33
22.080        27
22.090        87
22.100        33
22.110        47
22.120        47
22.130        27
22.140        33
22.150        27
22.160        40
22.170        27
22.180        33
22.190        40
22.200        20
22.210        27
22.220        47
22.230        33
22.240        20
22.250        13
22.260        33
22.270        40
22.280        27
22.290        20
22.300        60
22.310        47
22.320        53
22.330        40
22.340        27
22.350        47
22.360        53
22.370        33
22.380        60
22.390        53
22.400        40
22.410        47
22.420        33
22.430        40
22.440        33
22.450        80
22.460        33
22.470        73
22.480        27
22.490        47
22.500        33
22.510        47
22.520        53
22.530        27
22.540        47
22.550        33
22.560        60
22.570        53
22.580        33
22.590        53
22.600        47
22.610        40
22.620        27
22.630        47
22.640        20
22.650        40
22.660        33
22.670        80
22.680        40
22.690        40
22.700        20
22.710        20
22.720        27
22.730        33
22.740        40
22.750         7
22.760        60
22.770        20
22.780        33
22.790        40
22.800        33
22.810        40
22.820        27
22.830        67
22.840        20
22.850        80
22.860        20
22.870        40
22.880        27
22.890        33
22.900        27
22.910        40
22.920        47
22.930        20
22.940        27
22.950        33
22.960         7
22.970         7
22.980        40
22.990        47
23.000        20
23.010        47
23.020        40
23.030        33
23.040        20
23.050        40
23.060        27
23.070        33
23.080        33
23.090        40
23.100        20
23.110        33
23.120        33
23.130        20
23.140        60
23.150        33
23.160        27
23.170        20
23.180        20
23.190        47
23.200        47
23.210        80
23.220        60
23.230         7
23.240        67
23.250        47
23.260        33
23.270        13
23.280        33
23.290        13
23.300        13
23.310        33
23.320        33
23.330        20
23.340        27
23.350        20
23.360        53
23.370         0
23.380        27
23.390        53
23.400        60
23.410        20
23.420        40
23.430        27
23.440        27
23.450        13
23.460        33
23.470        27
23.480        27
23.490        20
23.500        33
23.510        33
23.520        33
23.530        40
23.540        33
23.550        40
23.560        20
23.570        60
23.580        33
23.590        33
23.600        27
23.610        40
23.620        20
23.630        33
23.640        40
23.650        40
23.660        13
23.670        60
23.680        33
23.690        20
23.700        20
23.710        20
23.720        20
23.730        80
23.740         7
23.750        60
23.760        27
23.770         7
23.780        27
23.790        47
23.800        27
23.810        67
23.820         7
23.830        20
23.840        27
23.850        20
23.860        27
23.870        53
23.880        27
23.890        40
23.900        27
23.910        20
23.920        40
23.930        20
23.940        27
23.950        60
23.960        20
23.970        47
23.980        27
23.990        53
24.000        53
24.010         0
24.020        33
24.030        13
24.040        27
24.050        40
24.060        40
24.070        67
24.080        47
24.090        27
24.100        40
24.110        40
24.120        20
24.130        27
24.140        33
24.150        53
24.160        40
24.170        33
24.180        33
24.190        47
24.200        53
24.210        20
24.220        40
24.230        40
24.240        20
24.250        20
24.260        33
24.270        27
24.280        27
24.290        27
24.300        40
24.310        53
24.320         7
24.330        40
24.340        80
24.350        47
24.360        40
24.370        60
24.380        27
24.390        47
24.400        40
24.410        33
24.420         0
24.430        27
24.440        33
24.450        33
24.460        40
24.470        27
24.480        27
24.490        53
24.500         0
24.510        33
24.520        33
24.530        13
24.540        27
24.550        47
24.560        13
24.570        13
24.580        60
24.590        27
24.600        47
24.610        47
24.620        40
24.630        47
24.640        13
24.650        40
24.660        53
24.670        53
24.680        67
24.690        33
24.700        40
24.710        20
24.720        20
24.730        40
24.740        53
24.750        27
24.760        13
24.770        40
24.780        27
24.790        27
24.800        40
24.810        40
24.820        40
24.830        13
24.840        33
24.850        20
24.860        33
24.870        27
24.880        40
24.890        27
24.900        60
24.910        20
24.920         7
24.930        27
24.940        13
24.950        33
24.960        20
24.970        20
24.980        20
24.990        13
25.000        47
25.010        60
25.020        13
25.030        27
25.040        47
25.050        47
25.060        33
25.070        33
25.080        13
25.090        33
25.100         7
25.110        20
25.120        20
25.130        27
25.140        20
25.150        20
25.160        27
25.170        33
25.180        33
25.190        33
25.200        27
25.210        40
25.220        13
25.230        27
25.240        20
25.250        13
25.260        20
25.270        33
25.280         7
25.290        33
25.300        20
25.310        20
25.320        27
25.330        40
25.340         7
25.350        27
25.360        27
25.370        20
25.380        27
25.390        40
25.400        27
25.410        27
25.420        20
25.430        27
25.440        33
25.450        20
25.460        20
25.470        33
25.480        27
25.490        40
25.500        40
25.510        33
25.520         7
25.530        13
25.540        60
25.550        13
25.560         0
25.570        27
25.580        13
25.590        20
25.600        20
25.610        40
25.620        27
25.630        27
25.640        33
25.650        40
25.660        47
25.670        47
25.680        13
25.690        53
25.700        20
25.710        27
25.720        40
25.730        33
25.740        53
25.750        13
25.760        27
25.770        13
25.780        27
25.790        20
25.800        13
25.810        47
25.820        33
25.830        20
25.840        40
25.850        33
25.860        27
25.870        13
25.880        73
25.890        33
25.900        33
25.910        47
25.920        33
25.930        27
25.940        13
25.950        20
25.960        33
25.970        27
25.980        67
25.990        20
26.000        40
26.010        13
26.020        33
26.030        27
26.040        13
26.050        20
26.060        27
26.070        13
26.080        33
26.090        53
26.100        47
26.110         7
26.120        33
26.130        33
26.140        27
26.150        53
26.160        13
26.170        20
26.180        33
26.190        47
26.200        20
26.210        40
26.220        27
26.230        27
26.240        27
26.250        33
26.260        13
26.270        13
26.280        20
26.290        27
26.300        13
26.310        20
26.320        33
26.330        27
26.340        40
26.350        27
26.360        33
26.370        40
26.380        40
26.390        53
26.400        20
26.410        27
26.420        20
26.430        13
26.440        27
26.450        20
26.460        33
26.470        20
26.480        27
26.490        13
26.500        47
26.510        20
26.520        13
26.530        27
26.540        13
26.550        33
26.560        27
26.570        40
26.580        20
26.590        40
26.600        40
26.610        13
26.620         7
26.630        27
26.640        13
26.650        27
26.660        40
26.670        27
26.680        33
26.690        33
26.700        13
26.710        53
26.720        20
26.730        40
26.740        20
26.750        20
26.760        33
26.770        27
26.780        20
26.790        40
26.800        27
26.810        27
26.820         7
26.830        27
26.840        33
26.850        47
26.860        13
26.870        20
26.880        47
26.890        33
26.900         7
26.910        27
26.920        20
26.930        27
26.940        20
26.950        40
26.960        20
26.970        27
26.980         7
26.990         7
27.000        40
27.010        13
27.020        13
27.030        27
27.040        13
27.050        47
27.060         7
27.070        60
27.080        40
27.090        27
27.100        33
27.110        33
27.120        13
27.130        40
27.140        53
27.150        20
27.160        20
27.170        40
27.180        13
27.190        40
27.200         7
27.210        20
27.220        27
27.230         7
27.240        20
27.250        47
27.260        47
27.270        27
27.280        20
27.290        13
27.300        20
27.310        27
27.320        20
27.330        20
27.340        40
27.350        33
27.360        13
27.370        33
27.380        27
27.390        33
27.400        27
27.410        27
27.420        13
27.430        20
27.440        27
27.450         7
27.460        27
27.470        27
27.480        27
27.490        20
27.500        27
27.510        20
27.520        27
27.530        33
27.540        20
27.550        33
27.560        40
27.570        53
27.580        27
27.590        27
27.600        20
27.610        33
27.620        33
27.630        60
27.640        40
27.650        33
27.660        53
27.670        33
27.680        20
27.690        40
27.700        53
27.710        13
27.720        27
27.730        40
27.740        27
27.750        33
27.760        40
27.770        33
27.780        27
27.790        33
27.800        27
27.810        40
27.820        20
27.830        40
27.840        47
27.850        40
27.860        80
27.870        27
27.880        67
27.890        40
27.900        47
27.910        40
27.920        13
27.930        40
27.940        33
27.950        27
27.960        33
27.970        33
27.980        60
27.990        20
28.000        27
28.010        27
28.020        20
28.030        13
28.040        47
28.050        27
28.060        13
28.070        27
28.080        20
28.090        27
28.100         7
28.110        27
28.120        13
28.130        33
28.140        33
28.150        27
28.160        40
28.170        27
28.180        20
28.190        20
28.200        27
28.210        47
28.220        40
28.230        33
28.240         0
28.250        27
28.260        33
28.270        47
28.280        27
28.290        27
28.300        13
28.310        33
28.320        33
28.330        20
28.340        33
28.350        20
28.360        27
28.370        20
28.380         7
28.390        20
28.400        27
28.410        20
28.420        27
28.430         7
28.440        33
28.450        20
28.460        33
28.470        27
28.480        27
28.490        27
28.500        20
28.510        33
28.520        27
28.530        27
28.540        27
28.550        27
28.560        33
28.570        33
28.580        40
28.590        27
28.600        33
28.610        33
28.620        27
28.630        40
28.640        33
28.650        20
28.660        27
28.670        40
28.680        13
28.690        53
28.700         7
28.710         7
28.720        27
28.730        27
28.740        40
28.750         7
28.760        33
28.770        27
28.780        13
28.790        27
28.800        27
28.810        13
28.820        13
28.830        13
28.840        40
28.850        13
28.860        27
28.870        27
28.880        27
28.890        27
28.900        27
28.910        20
28.920        27
28.930        47
28.940        33
28.950        27
28.960        20
28.970        20
28.980        40
28.990        13
29.000        47
29.010        27
29.020        20
29.030        33
29.040        27
29.050        53
29.060        20
29.070        40
29.080        40
29.090        27
29.100        27
29.110        40
29.120        20
29.130        20
29.140         0
29.150        27
29.160        20
29.170        13
29.180        27
29.190        60
29.200        33
29.210        47
29.220        20
29.230        33
29.240        20
29.250        33
29.260        53
29.270        13
29.280        27
29.290         7
29.300        20
29.310        27
29.320        13
29.330        33
29.340        33
29.350        47
29.360        40
29.370        27
29.380        27
29.390        27
29.400         0
29.410        20
29.420        40
29.430        27
29.440        27
29.450        13
29.460        53
29.470        33
29.480        13
29.490        20
29.500        13
29.510        13
29.520         7
29.530        33
29.540        20
29.550        47
29.560        20
29.570        27
29.580         7
29.590        13
29.600        40
29.610        20
29.620        13
29.630        53
29.640        47
29.650        40
29.660        20
29.670        40
29.680        33
29.690        13
29.700        33
29.710        40
29.720        33
29.730        53
29.740        60
29.750        40
29.760        33
29.770        13
29.780        33
29.790         0
29.800        27
29.810        27
29.820        47
29.830        33
29.840        33
29.850        47
29.860        27
29.870        73
29.880        27
29.890        53
29.900        27
29.910        67
29.920        40
29.930        27
29.940        60
29.950        47
29.960        33
29.970        40
29.980        33
29.990        40
30.000        33
30.010        13
30.020        13
30.030        40
30.040        27
30.050        40
30.060        47
30.070        27
30.080        33
30.090        53
30.100        47
30.110        27
30.120        67
30.130        53
30.140        33
30.150        40
30.160        40
30.170        33
30.180        47
30.190        40
30.200        67
30.210        27
30.220        27
30.230        13
30.240        20
30.250        33
30.260        40
30.270        60
30.280        13
30.290        27
30.300        53
30.310        53
30.320        53
30.330        33
30.340        40
30.350        47
30.360        27
30.370        40
30.380       107
30.390        33
30.400       100
30.410        67
30.420        47
30.430        13
30.440        40
30.450        53
30.460        67
30.470        53
30.480        80
30.490        53
30.500        87
30.510        33
30.520        33
30.530        33
30.540        47
30.550        40
30.560        87
30.570        33
30.580        60
30.590        80
30.600        80
30.610        80
30.620       100
30.630       140
30.640       100
30.650       133
30.660       113
30.670       133
30.680       193
30.690       207
30.700       193
30.710       227
30.720       300
30.730       400
30.740       426
30.750       340
30.760       460
30.770       520
30.780       566
30.790       673
30.800       586
30.810       793
30.820      1013
30.830      1073
30.840      1426
30.850      1453
30.860      1479
30.870      1913
30.880      2092
30.890      2519
30.900      2519
30.910      2812
30.920      3032
30.930      2992
30.940      3185
30.950      2945
30.960      2832
30.970      2646
30.980      2212
30.990      2053
31.000      1926
31.010      1853
31.020      1399
31.030      1506
31.040      1253
31.050      1080
31.060       693
31.070       806
31.080       460
31.090       400
31.100       333
31.110       293
31.120       227
31.130       167
31.140       167
31.150       167
31.160       127
31.170        60
31.180       107
31.190        87
31.200        93
31.210       107
31.220        80
31.230        87
31.240        47
31.250        53
31.260        80
31.270        60
31.280        80
31.290        40
31.300        73
31.310        67
31.320        73
31.330        53
31.340        33
31.350        47
31.360        33
31.370        60
31.380        60
31.390        47
31.400        47
31.410        60
31.420        40
31.430        33
31.440        13
31.450        53
31.460        47
31.470         7
31.480        53
31.490        47
31.500        40
31.510        27
31.520        33
31.530        73
31.540        33
31.550        60
31.560        20
31.570        67
31.580        27
31.590        13
31.600        40
31.610        33
31.620        40
31.630        20
31.640        13
31.650        60
31.660        60
31.670        40
31.680         7
31.690        33
31.700        40
31.710        73
31.720         7
31.730        20
31.740        40
31.750        20
31.760        53
31.770        33
31.780        60
31.790        60
31.800        40
31.810        40
31.820        40
31.830        47
31.840        40
31.850        20
31.860        27
31.870        27
31.880        27
31.890        53
31.900        20
31.910        40
31.920        47
31.930        53
31.940        40
31.950        33
31.960        20
31.970        27
31.980        40
31.990        33
32.000        27
32.010        27
32.020        13
32.030        13
32.040        33
32.050        27
32.060        47
32.070        13
32.080        47
32.090        27
32.100        27
32.110        33
32.120        27
32.130        33
32.140        47
32.150        20
32.160        47
32.170        47
32.180        20
32.190        27
32.200        33
32.210        40
32.220        27
32.230        20
32.240        47
32.250        20
32.260        13
32.270        40
32.280        13
32.290        27
32.300        40
32.310        47
32.320        20
32.330        20
32.340        27
32.350        40
32.360         7
32.370        33
32.380        40
32.390        40
32.400        20
32.410        27
32.420        53
32.430        47
32.440        47
32.450        13
32.460        13
32.470        47
32.480        20
32.490        47
32.500        47
32.510        20
32.520        27
32.530        33
32.540        47
32.550        33
32.560        27
32.570        60
32.580        20
32.590        33
32.600        47
32.610        47
32.620        27
32.630        13
32.640        20
32.650        47
32.660        60
32.670        80
32.680        27
32.690        20
32.700        27
32.710        20
32.720        27
32.730         7
32.740        27
32.750        13
32.760        20
32.770        13
32.780        33
32.790        40
32.800        20
32.810        27
32.820        33
32.830         7
32.840        20
32.850        47
32.860        47
32.870        47
32.880        40
32.890        13
32.900        53
32.910        27
32.920        13
32.930        53
32.940        20
32.950        20
32.960        20
32.970        33
32.980        53
32.990        47
33.000        13
33.010        20
33.020        47
33.030        20
33.040        53
33.050        40
33.060        20
33.070        27
33.080        47
33.090        27
33.100        20
33.110        33
33.120        33
33.130        40
33.140        27
33.150        33
33.160        47
33.170        13
33.180        33
33.190        27
33.200        40
33.210        20
33.220        40
33.230        20
33.240        53
33.250        20
33.260        13
33.270        33
33.280        13
33.290        27
33.300        27
33.310        33
33.320        27
33.330        33
33.340        13
33.350        20
33.360        20
33.370        27
33.380        27
33.390        20
33.400         0
33.410        20
33.420        33
33.430        47
33.440         0
33.450        33
33.460        53
33.470        20
33.480        20
33.490        33
33.500        27
33.510        67
33.520        40
33.530        13
33.540        20
33.550        40
33.560        47
33.570        33
33.580         7
33.590        13
33.600        47
33.610        27
33.620        27
33.630        27
33.640        20
33.650        33
33.660        33
33.670        20
33.680        33
33.690        40
33.700        33
33.710        13
33.720        33
33.730         7
33.740        13
33.750        33
33.760        13
33.770        20
33.780        47
33.790        33
33.800        13
33.810        20
33.820        20
33.830        40
33.840        33
33.850         7
33.860        20
33.870        33
33.880        20
33.890        27
33.900        13
33.910        20
33.920        13
33.930         0
33.940        27
33.950        80
33.960        27
33.970        33
33.980        33
33.990        27
34.000         7
34.010        40
34.020         7
34.030        20
34.040        20
34.050        13
34.060        13
34.070        33
34.080        13
34.090        27
34.100        13
34.110        20
34.120        27
34.130         0
34.140        20
34.150        27
34.160        53
34.170        33
34.180         0
34.190        27
34.200        40
34.210        27
34.220        47
34.230        13
34.240        33
34.250         0
34.260         7
34.270        20
34.280         0
34.290        20
34.300        27
34.310        20
34.320        13
34.330        47
34.340        53
34.350        13
34.360        40
34.370        13
34.380        27
34.390        20
34.400        20
34.410        40
34.420        20
34.430        13
34.440        40
34.450        13
34.460        13
34.470        20
34.480        60
34.490        20
34.500        13
34.510        13
34.520        27
34.530        27
34.540        27
34.550        27
34.560        27
34.570         7
34.580        13
34.590        27
34.600        20
34.610        40
34.620        33
34.630        13
34.640        40
34.650        13
34.660        20
34.670        13
34.680        33
34.690        20
34.700        47
34.710        33
34.720        20
34.730        27
34.740        27
34.750        20
34.760        47
34.770        20
34.780        33
34.790        20
34.800        13
34.810        27
34.820        20
34.830        13
34.840        33
34.850         7
34.860        40
34.870         7
34.880         7
34.890        27
34.900        27
34.910        13
34.920        33
34.930        27
34.940        33
34.950        33
34.960        27
34.970        67
34.980        20
34.990        47
35.000        13
35.010        40
35.020        33
35.030        40
35.040        33
35.050        40
35.060        13
35.070        13
35.080        33
35.090        40
35.100        47
35.110        40
35.120        53
35.130        60
35.140        27
35.150        27
35.160        60
35.170        40
35.180        40
35.190        47
35.200        40
35.210        27
35.220        47
35.230        20
35.240        47
35.250        27
35.260        47
35.270        13
35.280        13
35.290        20
35.300        20
35.310        13
35.320        13
35.330        20
35.340        27
35.350        33
35.360        27
35.370        20
35.380        20
35.390        13
35.400        20
35.410        33
35.420        33
35.430        33
35.440        40
35.450        27
35.460        13
35.470        20
35.480        27
35.490        27
35.500        20
35.510        20
35.520         7
35.530        20
35.540        27
35.550        20
35.560        20
35.570        40
35.580        33
35.590        40
35.600        27
35.610         7
35.620        47
35.630        27
35.640        27
35.650        20
35.660        13
35.670        13
35.680        13
35.690        27
35.700        13
35.710        20
35.720        20
35.730        33
35.740        47
35.750        13
35.760        40
35.770        33
35.780        20
35.790        27
35.800         7
35.810        13
35.820        13
35.830        20
35.840        33
35.850        33
35.860        20
35.870        40
35.880         7
35.890        27
35.900        13
35.910        27
35.920        20
35.930        47
35.940         7
35.950        20
35.960        27
35.970        27
35.980        27
35.990        27
36.000        33
36.010        13
36.020        40
36.030         7
36.040        13
36.050        13
36.060         7
36.070        27
36.080        20
36.090         7
36.100        20
36.110        33
36.120        27
36.130        40
36.140         7
36.150        40
36.160        13
36.170        40
36.180         7
36.190        13
36.200         7
36.210         7
36.220        47
36.230        13
36.240        27
36.250         7
36.260        20
36.270        33
36.280        20
36.290        27
36.300        27
36.310        20
36.320        27
36.330        47
36.340         0
36.350        47
36.360        20
36.370        13
36.380        27
36.390        33
36.400        13
36.410        33
36.420        27
36.430        27
36.440        20
36.450        33
36.460         7
36.470        33
36.480         7
36.490        20
36.500        53
36.510         0
36.520         7
36.530        13
36.540        13
36.550        13
36.560        20
36.570         0
36.580        27
36.590        13
36.600        20
36.610        40
36.620        13
36.630        20
36.640        27
36.650        27
36.660        27
36.670        13
36.680        20
36.690        33
36.700         7
36.710         7
36.720        27
36.730        13
36.740        20
36.750         7
36.760         7
36.770        33
36.780        13
36.790        40
36.800        27
36.810        13
36.820        27
36.830        33
36.840        27
36.850        13
36.860        27
36.870        20
36.880        13
36.890        20
36.900        33
36.910        53
36.920        13
36.930        27
36.940        33
36.950        20
36.960        13
36.970        13
36.980        13
36.990        20
37.000        40
37.010        33
37.020         7
37.030         7
37.040        27
37.050         7
37.060        27
37.070        27
37.080        27
37.090        27
37.100         7
37.110        13
37.120        20
37.130        27
37.140        13
37.150        13
37.160        27
37.170        33
37.180        27
37.190        27
37.200        33
37.210         0
37.220        33
37.230        40
37.240         7
37.250        20
37.260        27
37.270        40
37.280        27
37.290        53
37.300         7
37.310        27
37.320        33
37.330        20
37.340         7
37.350        60
37.360        13
37.370        13
37.380        47
37.390        13
37.400        27
37.410        27
37.420         7
37.430        13
37.440        27
37.450        53
37.460        20
37.470        47
37.480        20
37.490        20
37.500        27
37.510        27
37.520        40
37.530        27
37.540        33
37.550        27
37.560        33
37.570        27
37.580        27
37.590        27
37.600        80
37.610        20
37.620        13
37.630        13
37.640        20
37.650        20
37.660        13
37.670        13
37.680        20
37.690        13
37.700        40
37.710        27
37.720        40
37.730        27
37.740        13
37.750        13
37.760        20
37.770        13
37.780        13
37.790        20
37.800        13
37.810        20
37.820        13
37.830         7
37.840        53
37.850         7
37.860        20
37.870        33
37.880        13
37.890         7
37.900        40
37.910        13
37.920        13
37.930        27
37.940        20
37.950        13
37.960        13
37.970        33
37.980        40
37.990        40
38.000        13
38.010        27
38.020        47
38.030        60
38.040        27
38.050        40
38.060         7
38.070        27
38.080        27
38.090        33
38.100        40
38.110         7
38.120        33
38.130        40
38.140       100
38.150        80
38.160        33
38.170        33
38.180        53
38.190        73
38.200        20
38.210        53
38.220        40
38.230        40
38.240        53
38.250        40
38.260        40
38.270        27
38.280        53
38.290        40
38.300        60
38.310        47
38.320        73
38.330        47
38.340        27
38.350        40
38.360        53
38.370        33
38.380        60
38.390        33
38.400        47
38.410        20
38.420         7
38.430        20
38.440        13
38.450        27
38.460        47
38.470        27
38.480        20
38.490        33
38.500        13
38.510         7
38.520        33
38.530        53
38.540         7
38.550         7
38.560        40
38.570        13
38.580        33
38.590        33
38.600        13
38.610        13
38.620         7
38.630        33
38.640        20
38.650        33
38.660         7
38.670        33
38.680         0
38.690        13
38.700        47
38.710        13
38.720         0
38.730        33
38.740        13
38.750        27
38.760         7
38.770         7
38.780        33
38.790        20
38.800         7
38.810         7
38.820        53
38.830        27
38.840        20
38.850        13
38.860        20
38.870        20
38.880        20
38.890         7
38.900        20
38.910        33
38.920        33
38.930        27
38.940        27
38.950        13
38.960        20
38.970        27
38.980        13
38.990        20
39.000        27
39.010         7
39.020        20
39.030        20
39.040        27
39.050        40
39.060        20
39.070         7
39.080        13
39.090         7
39.100         0
39.110        20
39.120        20
39.130        20
39.140         7
39.150        20
39.160        27
39.170        33
39.180        27
39.190        27
39.200        27
39.210        47
39.220        40
39.230        20
39.240        27
39.250        13
39.260        13
39.270        20
39.280        20
39.290        27
39.300        40
39.310        20
39.320        20
39.330        40
39.340        33
39.350        13
39.360        20
39.370        40
39.380        20
39.390        47
39.400        20
39.410        13
39.420        33
39.430        27
39.440        20
39.450         0
39.460        13
39.470        27
39.480        13
39.490        40
39.500        20
39.510        27
39.520        13
39.530        47
39.540        27
39.550        13
39.560        20
39.570        20
39.580         7
39.590        20
39.600        13
39.610        40
39.620        27
39.630        40
39.640        33
39.650        20
39.660         7
39.670        13
39.680        27
39.690        27
39.700        47
39.710        33
39.720        40
39.730        40
39.740        20
39.750         7
39.760        27
39.770        13
39.780        13
39.790        20
39.800        40
39.810        47
39.820        27
39.830        27
39.840         0
39.850        27
39.860        33
39.870        27
39.880        20
39.890        20
39.900         7
39.910        27
39.920        27
39.930        20
39.940        13
39.950        20
39.960        33
39.970        13
39.980        13
39.990        27
40.000        47
40.010        33
40.020        20
40.030        20
40.040        40
40.050        13
40.060        60
40.070        27
40.080        33
40.090        33
40.100        13
40.110         7
40.120        33
40.130        13
40.140        67
40.150        27
40.160        40
40.170        33
40.180        33
40.190         7
40.200         0
40.210        13
40.220        13
40.230        33
40.240         7
40.250        27
40.260        13
40.270         7
40.280        13
40.290        13
40.300        20
40.310         7
40.320        33
40.330        20
40.340        33
40.350        20
40.360        13
40.370        20
40.380        27
40.390        33
40.400        27
40.410        20
40.420        47
40.430        27
40.440        27
40.450        13
40.460        13
40.470         7
40.480        33
40.490        13
40.500        20
40.510        13
40.520        13
40.530        27
40.540        27
40.550        20
40.560        27
40.570        27
40.580        13
40.590         7
40.600         7
40.610        20
40.620        20
40.630        20
40.640        40
40.650        20
40.660        20
40.670         7
40.680        33
40.690         7
40.700        20
40.710        60
40.720        13
40.730        13
40.740        33
40.750        13
40.760        27
40.770        27
40.780        27
40.790        40
40.800        47
40.810        13
40.820         7
40.830        20
40.840        20
40.850        27
40.860        13
40.870        13
40.880         7
40.890        20
40.900         7
40.910        13
40.920         7
40.930         7
40.940         7
40.950        33
40.960         0
40.970        40
40.980         7
40.990        13
41.000        33
41.010        33
41.020        27
41.030         7
41.040        20
41.050        20
41.060        20
41.070        33
41.080        27
41.090        33
41.100        13
41.110        27
41.120        13
41.130         0
41.140        20
41.150        27
41.160        27
41.170         0
41.180        20
41.190        47
41.200        40
41.210        27
41.220        40
41.230        20
41.240        13
41.250        20
41.260        13
41.270        27
41.280        40
41.290        20
41.300        13
41.310        20
41.320        33
41.330        20
41.340        20
41.350        33
41.360        13
41.370         0
41.380        27
41.390        20
41.400        20
41.410        40
41.420        33
41.430        20
41.440        33
41.450        40
41.460        13
41.470        33
41.480        47
41.490        20
41.500         7
41.510        27
41.520         7
41.530         0
41.540         7
41.550        27
41.560        27
41.570        13
41.580        20
41.590        20
41.600        40
41.610        40
41.620        47
41.630        40
41.640       107
41.650        33
41.660       100
41.670        87
41.680        53
41.690        73
41.700        73
41.710        73
41.720        47
41.730        33
41.740        60
41.750        33
41.760        60
41.770        80
41.780        20
41.790        27
41.800        27
41.810        47
41.820        27
41.830        53
41.840        33
41.850         0
41.860         7
41.870        27
41.880        13
41.890         7
41.900        13
41.910        40
41.920        27
41.930        40
41.940        20
41.950        20
41.960         7
41.970        13
41.980        27
41.990        20
42.000         7
42.010        40
42.020        47
42.030        13
42.040        20
42.050        20
42.060        33
42.070        20
42.080        20
42.090        33
42.100        27
42.110        13
42.120        13
42.130        20
42.140        13
42.150        27
42.160        13
42.170        33
42.180        47
42.190        20
42.200        33
42.210        40
42.220        20
42.230         7
42.240        13
42.250         7
42.260        40
42.270        20
42.280        20
42.290        20
42.300        20
42.310        13
42.320        27
42.330         7
42.340         7
42.350        20
42.360        20
42.370        20
42.380        20
42.390        53
42.400        40
42.410        33
42.420        13
42.430        27
42.440        27
42.450        40
42.460        20
42.470         7
42.480         0
42.490        33
42.500         7
42.510        13
42.520        20
42.530        33
42.540        20
42.550        33
42.560        20
42.570        20
42.580        40
42.590        27
42.600         7
42.610        40
42.620         7
42.630        13
42.640        47
42.650        40
42.660        27
42.670         7
42.680        33
42.690        27
42.700        20
42.710        20
42.720        13
42.730        13
42.740        27
42.750        27
42.760         0
42.770         7
42.780        20
42.790        27
42.800        33
42.810        27
42.820         7
42.830        40
42.840        27
42.850         7
42.860         7
42.870        27
42.880         0
42.890        20
42.900        40
42.910        67
42.920        27
42.930        27
42.940         0
42.950        13
42.960        27
42.970        27
42.980         7
42.990        33
43.000         7
43.010        27
43.020        33
43.030        27
43.040        13
43.050        60
43.060        27
43.070        53
43.080        13
43.090        13
43.100        20
43.110        13
43.120        20
43.130        27
43.140        27
43.150        33
43.160        33
43.170        20
43.180        13
43.190        20
43.200        27
43.210         7
43.220        40
43.230        13
43.240        27
43.250        40
43.260        47
43.270        53
43.280        13
43.290        27
43.300        33
43.310        27
43.320        13
43.330        47
43.340        40
43.350        27
43.360        33
43.370         7
43.380        33
43.390        33
43.400        33
43.410        27
43.420        40
43.430        33
43.440        20
43.450        47
43.460        13
43.470        27
43.480        13
43.490        13
43.500        40
43.510        33
43.520        40
43.530        27
43.540        27
43.550        27
43.560        20
43.570        27
43.580        13
43.590        20
43.600        40
43.610         0
43.620        20
43.630        20
43.640        13
43.650        13
43.660        47
43.670        33
43.680        27
43.690         7
43.700        13
43.710         7
43.720        13
43.730         7
43.740        27
43.750        47
43.760        40
43.770        20
43.780        33
43.790         7
43.800        13
43.810        13
43.820        27
43.830        20
43.840        47
43.850        27
43.860         0
43.870        27
43.880        20
43.890        33
43.900        47
43.910        40
43.920         7
43.930        20
43.940        20
43.950         7
43.960         7
43.970        27
43.980        13
43.990        13
44.000        40
44.010        40
44.020        20
44.030        20
44.040         0
44.050        33
44.060        40
44.070         7
44.080        27
44.090        27
44.100        33
44.110        33
44.120        20
44.130        27
44.140        20
44.150        13
44.160         7
44.170        33
44.180         7
44.190        60
44.200        13
44.210        20
44.220         7
44.230        13
44.240        20
44.250        47
44.260        33
44.270        13
44.280         7
44.290        33
44.300        20
44.310        33
44.320        20
44.330         0
44.340        40
44.350        47
44.360        13
44.370        33
44.380        13
44.390        27
44.400        20
44.410         7
44.420        33
44.430         0
44.440        20
44.450         7
44.460        53
44.470        20
44.480        20
44.490        20
44.500        13
44.510        33
44.520        27
44.530        27
44.540        27
44.550        20
44.560        20
44.570        20
44.580        20
44.590        20
44.600        13
44.610        13
44.620        20
44.630        40
44.640        60
44.650        27
44.660        20
44.670        27
44.680        27
44.690        20
44.700        20
44.710         0
44.720        27
44.730        33
44.740        13
44.750        33
44.760         7
44.770        27
44.780        27
44.790        27
44.800        20
44.810        47
44.820        27
44.830        33
44.840        27
44.850        27
44.860        13
44.870        27
44.880        20
44.890         7
44.900        33
44.910        13
44.920        47
44.930        20
44.940         7
44.950        20
44.960         7
44.970        27
44.980        20
44.990        13
45.000        13
45.010         7
45.020        13
45.030        13
45.040        20
45.050         7
45.060        27
45.070         7
45.080        13
45.090        20
45.100        20
45.110        53
45.120        13
45.130        20
45.140        47
45.150        47
45.160        20
45.170        13
45.180        33
45.190        60
45.200        27
45.210        13
45.220        13
45.230        13
45.240        20
45.250         7
45.260        20
45.270        33
45.280        20
45.290        33
45.300        33
45.310        20
45.320         0
45.330        40
45.340        13
45.350        33
45.360        13
45.370        20
45.380        40
45.390        20
45.400        33
45.410        33
45.420        20
45.430         7
45.440        33
45.450        20
45.460        27
45.470        13
45.480        13
45.490        47
45.500         7
45.510        13
45.520        13
45.530        13
45.540        27
45.550         0
45.560        27
45.570         7
45.580        27
45.590        20
45.600         7
45.610        33
45.620        13
45.630        27
45.640        13
45.650         7
45.660         0
45.670        13
45.680        13
45.690        13
45.700         7
45.710        13
45.720        27
45.730        27
45.740        20
45.750        40
45.760        33
45.770        20
45.780        27
45.790        47
45.800        13
45.810        20
45.820         0
45.830        33
45.840        47
45.850         7
45.860        33
45.870         7
45.880        20
45.890        40
45.900        20
45.910        53
45.920        27
45.930        33
45.940        20
45.950        20
45.960        13
45.970        20
45.980         0
45.990        13
46.000        20
46.010        20
46.020        33
46.030        40
46.040        20
46.050        33
46.060        33
46.070        40
46.080        27
46.090        27
46.100        13
46.110        13
46.120        40
46.130         0
46.140        33
46.150        13
46.160        20
46.170        20
46.180         7
46.190        27
46.200        33
46.210        27
46.220        33
46.230        13
46.240         7
46.250         7
46.260        27
46.270        47
46.280        27
46.290        27
46.300        27
46.310        13
46.320        27
46.330        20
46.340        40
46.350        33
46.360        33
46.370        13
46.380        20
46.390         7
46.400        27
46.410         7
46.420        40
46.430        27
46.440         7
46.450        13
46.460        13
46.470        13
46.480         0
46.490        20
46.500        40
46.510        33
46.520        20
46.530        40
46.540        13
46.550        13
46.560        27
46.570        20
46.580        27
46.590        20
46.600        13
46.610        13
46.620         0
46.630        40
46.640        27
46.650        20
46.660        20
46.670        20
46.680        33
46.690         0
46.700        33
46.710         7
46.720        27
46.730        20
46.740        13
46.750        20
46.760        20
46.770        33
46.780        53
46.790        27
46.800         7
46.810        13
46.820        20
46.830        20
46.840         7
46.850        27
46.860        20
46.870        67
46.880        20
46.890        13
46.900        33
46.910        27
46.920        13
46.930        20
46.940        20
46.950        20
46.960         7
46.970        20
46.980         7
46.990        20
47.000        27
47.010        33
47.020        20
47.030         7
47.040        53
47.050        13
47.060        13
47.070        20
47.080         0
47.090        20
47.100        13
47.110        13
47.120         7
47.130        27
47.140         7
47.150        20
47.160        20
47.170        40
47.180        40
47.190         7
47.200        13
47.210        27
47.220        13
47.230        13
47.240        33
47.250        20
47.260        20
47.270        27
47.280        13
47.290        13
47.300        53
47.310        20
47.320        13
47.330        27
47.340        20
47.350        33
47.360        53
47.370        27
47.380        27
47.390        13
47.400        13
47.410        40
47.420        20
47.430         0
47.440        53
47.450        47
47.460        27
47.470        33
47.480         7
47.490        20
47.500        53
47.510         7
47.520         7
47.530        20
47.540        20
47.550        53
47.560         0
47.570        27
47.580         7
47.590        20
47.600         7
47.610         0
47.620        33
47.630        33
47.640        13
47.650        20
47.660        13
47.670        33
47.680        13
47.690        27
47.700        27
47.710        33
47.720        13
47.730         7
47.740        13
47.750        20
47.760        20
47.770        40
47.780         7
47.790        20
47.800        20
47.810        13
47.820        27
47.830        13
47.840        33
47.850        40
47.860        27
47.870        27
47.880        33
47.890        33
47.900        33
47.910         0
47.920        13
47.930        13
47.940        20
47.950        27
47.960        27
47.970        13
47.980         0
47.990         7
48.000        13
48.010         0
48.020        27
48.030        33
48.040        27
48.050        13
48.060        20
48.070        20
48.080        47
48.090        13
48.100        20
48.110         7
48.120        20
48.130        13
48.140        27
48.150        20
48.160         7
48.170        27
48.180        40
48.190        27
48.200        13
48.210         7
48.220        27
48.230         0
48.240         7
48.250        40
48.260        20
48.270        33
48.280        47
48.290        13
48.300        13
48.310        27
48.320        27
48.330        27
48.340        47
48.350        33
48.360         7
48.370        20
48.380        20
48.390        53
48.400         7
48.410        20
48.420        27
48.430        33
48.440        33
48.450        40
48.460        33
48.470        13
48.480        27
48.490        20
48.500        27
48.510         0
48.520        33
48.530        40
48.540        13
48.550        20
48.560        53
48.570        13
48.580         0
48.590        13
48.600        27
48.610        20
48.620         0
48.630        13
48.640        33
48.650         7
48.660        13
48.670        40
48.680        27
48.690         7
48.700        40
48.710         7
48.720         0
48.730        20
48.740         7
48.750        27
48.760        33
48.770         0
48.780        20
48.790        27
48.800        33
48.810         7
48.820         7
48.830        27
48.840        13
48.850         0
48.860         7
48.870         7
48.880        20
48.890        27
48.900        27
48.910        20
48.920        27
48.930        20
48.940        20
48.950        20
48.960        27
48.970        33
48.980         7
48.990         7
49.000        20
49.010        40
49.020         7
49.030        33
49.040        53
49.050         7
49.060        33
49.070        20
49.080        13
49.090        27
49.100        20
49.110         7
49.120        13
49.130         0
49.140        13
49.150        27
49.160        27
49.170        13
49.180        27
49.190        33
49.200        27
49.210        13
49.220        33
49.230        27
49.240        20
49.250        20
49.260        20
49.270         0
49.280         7
49.290         7
49.300        13
49.310        20
49.320        27
49.330         0
49.340         0
49.350         7
49.360        27
49.370        33
49.380        40
49.390        33
49.400         7
49.410        20
49.420        47
49.430        20
49.440        27
49.450        27
49.460         7
49.470        40
49.480         7
49.490        33
49.500         0
49.510        40
49.520        33
49.530        13
49.540         0
49.550        27
49.560        60
49.570         7
49.580        13
49.590        13
49.600        20
49.610         7
49.620        33
49.630        47
49.640         7
49.650         7
49.660         0
49.670        20
49.680         0
49.690        13
49.700        13
49.710        27
49.720        27
49.730        13
49.740        13
49.750         7
49.760        20
49.770         0
49.780        13
49.790        13
49.800        20
49.810         7
49.820        27
49.830        33
49.840        20
49.850        13
49.860        40
49.870        13
49.880        33
49.890        33
49.900        20
49.910        40
49.920         7
49.930         0
49.940         7
49.950        20
49.960         7
49.970        13
49.980         7
49.990        47
50.000        20
50.010        33
50.020        27
50.030        40
50.040        13
50.050        40
50.060        20
50.070        20
50.080        27
50.090        20
50.100        33
50.110         0
50.120        33
50.130        27
50.140        13
50.150        53
50.160        20
50.170        27
50.180         7
50.190        40
50.200        20
50.210        20
50.220        27
50.230        13
50.240        20
50.250         0
50.260        60
50.270        27
50.280        20
50.290        27
50.300        53
50.310        20
50.320         7
50.330        13
50.340        20
50.350         7
50.360        13
50.370        20
50.380         7
50.390         7
50.400         7
50.410        27
50.420        20
50.430        20
50.440        20
50.450        27
50.460        33
50.470        13
50.480        20
50.490         7
50.500        27
50.510         0
50.520        13
50.530        13
50.540        13
50.550         7
50.560        20
50.570        13
50.580        27
50.590        33
50.600        20
50.610        13
50.620         7
50.630        40
50.640        27
50.650        13
50.660        27
50.670        47
50.680         7
50.690         7
50.700        33
50.710        13
50.720        13
50.730        13
50.740        33
50.750        33
50.760        13
50.770        13
50.780        27
50.790        33
50.800         7
50.810         0
50.820         0
50.830         7
50.840        20
50.850        20
50.860         0
50.870         7
50.880         0
50.890        20
50.900        27
50.910        20
50.920        33
50.930        20
50.940        20
50.950        33
50.960        33
50.970        20
50.980        20
50.990        13
51.000        33
51.010        20
51.020         7
51.030        13
51.040        27
51.050        20
51.060        13
51.070        20
51.080        27
51.090        20
51.100        20
51.110         7
51.120         0
51.130        20
51.140        13
51.150         7
51.160        20
51.170        13
51.180        13
51.190        53
51.200        13
51.210        20
51.220        13
51.230        33
51.240        13
51.250        13
51.260        27
51.270        20
51.280        27
51.290         7
51.300        27
51.310        27
51.320         7
51.330        27
51.340        20
51.350        20
51.360         0
51.370        13
51.380        27
51.390        13
51.400         7
51.410        20
51.420         0
51.430        33
51.440        47
51.450        20
51.460        27
51.470        20
51.480        20
51.490        13
51.500        13
51.510         7
51.520        13
51.530        27
51.540        33
51.550        13
51.560         7
51.570         7
51.580        27
51.590        27
51.600         0
51.610        13
51.620        40
51.630        20
51.640        40
51.650        20
51.660        13
51.670        20
51.680        20
51.690         7
51.700        13
51.710        13
51.720        20
51.730        13
51.740         7
51.750        13
51.760        33
51.770         0
51.780        27
51.790        20
51.800        20
51.810         7
51.820        13
51.830        20
51.840         7
51.850        13
51.860        20
51.870        13
51.880         7
51.890        13
51.900        27
51.910        27
51.920        47
51.930         7
51.940         0
51.950        27
51.960        20
51.970        33
51.980        20
51.990        20
52.000         7
52.010        13
52.020        40
52.030         0
52.040         0
52.050        13
52.060        20
52.070        13
52.080        13
52.090        20
52.100        13
52.110         7
52.120        33
52.130        13
52.140        20
52.150        20
52.160        13
52.170        33
52.180        27
52.190        33
52.200        27
52.210        27
52.220         0
52.230        27
52.240        40
52.250        13
52.260        33
52.270         7
52.280        13
52.290        33
52.300        20
52.310        20
52.320        13
52.330         0
52.340        33
52.350        13
52.360        27
52.370        13
52.380        27
52.390        40
52.400        20
52.410        13
52.420        13
52.430        13
52.440        20
52.450        27
52.460        20
52.470        33
52.480         7
52.490        20
52.500        33
52.510        13
52.520        13
52.530        27
52.540        20
52.550        20
52.560        13
52.570        20
52.580        27
52.590        20
52.600         0
52.610         0
52.620        13
52.630         7
52.640        13
52.650        20
52.660        27
52.670        20
52.680        13
52.690        20
52.700        13
52.710         7
52.720        13
52.730        20
52.740        20
52.750        27
52.760        67
52.770        40
52.780        20
52.790         7
52.800        60
52.810        20
52.820         0
52.830        13
52.840        40
52.850        20
52.860         7
52.870        27
52.880        13
52.890        33
52.900        33
52.910         7
52.920        27
52.930        40
52.940        47
52.950        20
52.960        27
52.970        27
52.980         7
52.990        20
53.000        20
53.010        13
53.020        13
53.030        27
53.040         7
53.050        13
53.060        13
53.070        13
53.080        33
53.090         0
53.100         7
53.110        20
53.120        13
53.130        40
53.140         7
53.150        27
53.160        20
53.170        20
53.180         0
53.190         7
53.200        20
53.210         7
53.220         7
53.230         7
53.240        20
53.250         0
53.260        33
53.270         0
53.280         0
53.290        20
53.300        27
53.310         7
53.320        20
53.330         0
53.340        33
53.350        13
53.360        47
53.370        13
53.380        13
53.390        20
53.400         7
53.410        20
53.420        13
53.430         7
53.440        13
53.450        20
53.460        27
53.470        20
53.480         7
53.490         7
53.500        13
53.510        20
53.520        13
53.530        13
53.540        20
53.550        33
53.560         0
53.570        13
53.580         7
53.590        20
53.600        20
53.610         0
53.620        13
53.630         0
53.640        20
53.650        20
53.660        20
53.670        13
53.680        13
53.690         7
53.700        13
53.710        13
53.720        20
53.730        33
53.740         7
53.750        20
53.760        13
53.770         7
53.780        27
53.790         7
53.800        20
53.810         0
53.820        20
53.830         7
53.840        13
53.850        47
53.860        20
53.870        20
53.880        27
53.890         7
53.900        27
53.910        27
53.920        13
53.930        20
53.940         7
53.950        13
53.960        20
53.970        27
53.980        40
53.990         7
54.000        27
54.010        33
54.020         7
54.030        20
54.040         0
54.050         0
54.060        13
54.070        20
54.080         7
54.090        13
54.100         7
54.110         7
54.120        27
54.130         7
54.140        13
54.150        27
54.160        27
54.170        27
54.180        20
54.190        33
54.200         7
54.210         0
54.220        53
54.230         7
54.240        33
54.250        33
54.260        40
54.270        40
54.280        20
54.290         7
54.300        20
54.310        20
54.320         7
54.330        27
54.340         7
54.350        20
54.360        20
54.370        33
54.380         0
54.390         7
54.400        40
54.410        27
54.420        20
54.430        13
54.440        20
54.450         0
54.460        20
54.470        33
54.480         7
54.490        27
54.500        20
54.510        13
54.520         7
54.530        13
54.540        20
54.550        33
54.560        20
54.570        33
54.580         7
54.590        33
54.600        33
54.610         7
54.620        13
54.630        13
54.640        20
54.650         7
54.660        13
54.670        53
54.680        20
54.690        13
54.700        13
54.710        13
54.720        13
54.730        20
54.740        20
54.750        33
54.760        20
54.770        33
54.780        20
54.790         7
54.800        33
54.810        40
54.820        60
54.830        47
54.840        20
54.850        40
54.860        33
54.870        53
54.880        60
54.890        60
54.900        20
54.910        27
54.920        93
54.930        47
54.940        47
54.950        47
54.960        53
54.970        27
54.980        47
54.990        67
55.000       127
55.010        53
55.020        53
55.030       100
55.040        33
55.050        60
55.060        87
55.070       153
55.080       100
55.090        60
55.100        60
55.110       133
55.120       127
55.130       120
55.140       180
55.150        93
55.160       107
55.170       167
55.180       127
55.190       153
55.200       133
55.210       120
55.220        80
55.230       113
55.240       100
55.250        67
55.260       113
55.270        80
55.280        60
55.290        93
55.300       120
55.310        53
55.320        47
55.330        53
55.340        60
55.350        47
55.360        13
55.370        53
55.380        33
55.390        53
55.400        33
55.410        27
55.420        33
55.430         0
55.440        13
55.450        27
55.460        40
55.470        40
55.480        13
55.490        27
55.500        40
55.510        13
55.520        27
55.530        27
55.540         7
55.550        33
55.560        60
55.570         7
55.580        13
55.590        33
55.600         7
55.610        13
55.620        13
55.630        20
55.640         0
55.650        33
55.660        33
55.670        27
55.680        33
55.690        27
55.700        13
55.710        27
55.720        27
55.730        20
55.740        20
55.750        33
55.760        33
55.770        13
55.780        53
55.790        20
55.800        13
55.810        33
55.820        40
55.830        13
55.840        27
55.850        13
55.860         7
55.870        33
55.880         7
55.890        33
55.900         7
55.910         7
55.920        13
55.930        13
55.940        40
55.950        47
55.960         7
55.970        40
55.980        20
55.990        27
56.000        13
56.010        13
56.020        20
56.030         7
56.040         7
56.050        20
56.060        13
56.070         7
56.080        13
56.090        13
56.100        27
56.110        20
56.120        40
56.130        27
56.140         0
56.150        13
56.160         7
56.170         7
56.180        13
56.190        13
56.200        27
56.210        27
56.220        27
56.230         0
56.240        33
56.250         7
56.260        13
56.270         7
56.280        13
56.290        20
56.300        13
56.310        20
56.320         7
56.330        20
56.340        40
56.350         7
56.360        13
56.370         0
56.380         7
56.390        33
56.400        33
56.410        40
56.420         7
56.430        33
56.440        40
56.450        13
56.460        13
56.470        33
56.480        20
56.490        33
56.500        27
56.510         7
56.520        33
56.530        33
56.540        27
56.550        40
56.560         7
56.570        27
56.580         7
56.590        20
56.600        13
56.610        13
56.620         0
56.630        27
56.640        27
56.650         7
56.660        27
56.670        20
56.680         7
56.690        13
56.700        13
56.710         7
56.720        13
56.730        20
56.740        20
56.750        13
56.760        27
56.770        20
56.780        27
56.790         7
56.800        13
56.810        20
56.820        20
56.830         7
56.840         0
56.850        27
56.860        20
56.870        27
56.880         7
56.890        13
56.900        13
56.910        27
56.920        13
56.930        20
56.940         7
56.950        20
56.960         7
56.970        53
56.980         7
56.990        13
57.000         7
57.010        13
57.020        20
57.030        33
57.040        33
57.050        13
57.060        20
57.070        13
57.080        13
57.090        33
57.100        27
57.110         0
57.120         0
57.130        13
57.140        13
57.150        27
57.160        13
57.170        27
57.180        27
57.190        33
57.200         7
57.210         7
57.220        20
57.230         7
57.240        20
57.250        20
57.260        33
57.270        27
57.280        20
57.290        40
57.300        13
57.310         0
57.320        27
57.330        27
57.340        13
57.350         7
57.360        20
57.370        33
57.380        40
57.390        27
57.400        40
57.410        33
57.420        20
57.430         7
57.440        13
57.450        27
57.460        33
57.470        27
57.480         7
57.490        47
57.500        27
57.510        40
57.520        47
57.530        20
57.540        33
57.550        33
57.560        27
57.570        13
57.580        27
57.590        33
57.600         7
57.610        13
57.620        20
57.630        13
57.640        20
57.650        27
57.660        20
57.670        27
57.680        53
57.690        27
57.700        27
57.710        13
57.720        20
57.730        33
57.740        20
57.750        40
57.760         0
57.770        27
57.780        27
57.790        27
57.800        27
57.810         7
57.820        20
57.830        33
57.840        20
57.850        27
57.860         7
57.870        20
57.880        13
57.890        33
57.900        13
57.910        33
57.920        33
57.930        27
57.940        33
57.950         0
57.960         0
57.970        33
57.980        13
57.990        13
58.000         7
58.010        47
58.020        20
58.030         7
58.040        27
58.050        20
58.060         7
58.070         0
58.080        20
58.090        33
58.100         0
58.110         7
58.120         7
58.130        27
58.140        13
58.150         7
58.160        27
58.170        13
58.180         0
58.190        13
58.200         0
58.210        13
58.220        13
58.230        27
58.240        27
58.250        27
58.260         7
58.270        13
58.280        13
58.290        20
58.300        33
58.310         7
58.320        20
58.330        20
58.340        13
58.350        40
58.360         7
58.370        33
58.380         7
58.390        13
58.400         0
58.410        13
58.420        53
58.430        27
58.440         7
58.450        20
58.460        27
58.470        27
58.480         0
58.490        20
58.500        13
58.510        13
58.520        20
58.530         0
58.540         0
58.550         0
58.560        20
58.570        33
58.580         7
58.590        20
58.600        13
58.610        27
58.620        27
58.630        13
58.640         7
58.650         7
58.660        13
58.670         0
58.680        20
58.690        20
58.700        13
58.710        13
58.720         0
58.730        27
58.740         0
58.750        13
58.760        13
58.770        40
58.780         7
58.790        13
58.800        13
58.810        20
58.820        20
58.830         7
58.840        13
58.850         0
58.860         0
58.870         7
58.880         7
58.890         0
58.900         7
58.910         7
58.920        13
58.930        13
58.940        13
58.950        47
58.960        13
58.970         0
58.980        13
58.990        20
59.000        13
59.010        20
59.020        13
59.030        40
59.040        13
59.050        13
59.060         0
59.070        13
59.080        20
59.090        13
59.100        27
59.110        13
59.120         7
59.130        27
59.140        20
59.150         7
59.160        20
59.170        20
59.180         7
59.190        33
59.200         7
59.210        27
59.220        13
59.230        20
59.240        13
59.250         7
59.260        27
59.270        33
59.280        20
59.290         0
59.300        27
59.310        13
59.320        27
59.330         7
59.340         0
59.350         7
59.360        20
59.370         7
59.380        27
59.390         0
59.400        40
59.410        27
59.420        40
59.430         0
59.440        13
59.450        27
59.460        20
59.470        13
59.480        27
59.490        13
59.500        20
59.510        20
59.520        27
59.530         7
59.540        27
59.550        13
59.560        27
59.570        13
59.580        20
59.590        13
59.600        20
59.610         7
59.620        13
59.630         7
59.640        13
59.650        27
59.660        27
59.670        13
59.680        27
59.690        13
59.700        13
59.710        13
59.720        13
59.730        27
59.740        20
59.750        20
59.760        13
59.770        13
59.780         0
59.790        27
59.800         0
59.810         7
59.820         0
59.830        20
59.840        13
59.850        13
59.860         7
59.870        13
59.880        13
59.890        27
59.900        27
59.910        27
59.920        13
59.930        13
59.940        13
59.950        13
59.960        13
59.970         7
59.980        27
59.990        20
60.000        20
