20.000        67
20.010       140
20.020       140
20.030       120
20.040       140
20.050       107
20.060        60
20.070       133
20.080       140
20.090       113
20.100        80
20.110       100
20.120        53
20.130       113
20.140        73
20.150       113
20.160       100
20.170        93
20.180        73
20.190       153
20.200       127
20.210       127
20.220        67
20.230        87
20.240       113
20.250       167
20.260       127
20.270       140
20.280        73
20.290       127
20.300       100
20.310        93
20.320       120
20.330       173
20.340       100
20.350       147
20.360        93
20.370        80
20.380       140
20.390       127
20.400        80
20.410       113
20.420       127
20.430       107
20.440        87
20.450       140
20.460        93
20.470       113
20.480       113
20.490       100
20.500        87
20.510       140
20.520       153
20.530       107
20.540       100
20.550        60
20.560       173
20.570        87
20.580       120
20.590       113
20.600       120
20.610       113
20.620       133
20.630       127
20.640       127
20.650        80
20.660       147
20.670        73
20.680       147
20.690       120
20.700       100
20.710        60
20.720        87
20.730       127
20.740        87
20.750       120
20.760       100
20.770       100
20.780       133
20.790       107
20.800       113
20.810       160
20.820       107
20.830       107
20.840       120
20.850       147
20.860        87
20.870       100
20.880        80
20.890       167
20.900        87
20.910        87
20.920        73
20.930        87
20.940       153
20.950        80
20.960        80
20.970        80
20.980        80
20.990       127
21.000       107
21.010       120
21.020        87
21.030       160
21.040       120
21.050        67
21.060       100
21.070       127
21.080        67
21.090       107
21.100       107
21.110       107
21.120       113
21.130       133
21.140        60
21.150        67
21.160       100
21.170       133
21.180       140
21.190        87
21.200       160
21.210       160
21.220       140
21.230        67
21.240        73
21.250        93
21.260       127
21.270       147
21.280        87
21.290        73
21.300        80
21.310       153
21.320       120
21.330       120
21.340       167
21.350       140
21.360       153
21.370       140
21.380       127
21.390       160
21.400       113
21.410       180
21.420       120
21.430        47
21.440        80
21.450       107
21.460       147
21.470       147
21.480       153
21.490       160
21.500       140
21.510        93
21.520       180
21.530       153
21.540       120
21.550       147
21.560       140
21.570       140
21.580       147
21.590       173
21.600       107
21.610       133
21.620       113
21.630        93
21.640       113
21.650       127
21.660       167
21.670       107
21.680       100
21.690       147
21.700       100
21.710       120
21.720       147
21.730        80
21.740       147
21.750       160
21.760        73
21.770       140
21.780        87
21.790       153
21.800        93
21.810        80
21.820        67
21.830       127
21.840        80
21.850       120
21.860       113
21.870       120
21.880       113
21.890        80
21.900       173
21.910       140
21.920       160
21.930        93
21.940       153
21.950        93
21.960       173
21.970       140
21.980        93
21.990        87
22.000       140
22.010       153
22.020       113
22.030       120
22.040       120
22.050       147
22.060       107
22.070       167
22.080        60
22.090       140
22.100       120
22.110       147
22.120       147
22.130       120
22.140       167
22.150       160
22.160        87
22.170       113
22.180       107
22.190       113
22.200       160
22.210        87
22.220       167
22.230        73
22.240       140
22.250       100
22.260       100
22.270       100
22.280       153
22.290        93
22.300       133
22.310       140
22.320        93
22.330       120
22.340       173
22.350        87
22.360       120
22.370       133
22.380       113
22.390       127
22.400       147
22.410       187
22.420       120
22.430       233
22.440       100
22.450       140
22.460        87
22.470       120
22.480       120
22.490       147
22.500       207
22.510       100
22.520       127
22.530       127
22.540       167
22.550       140
22.560       127
22.570       133
22.580       167
22.590       107
22.600        93
22.610       133
22.620       153
22.630       200
22.640       113
22.650       120
22.660       133
22.670       173
22.680       200
22.690       127
22.700       113
22.710       120
22.720       167
22.730       140
22.740       160
22.750       220
22.760       173
22.770       133
22.780       180
22.790       133
22.800       180
22.810       167
22.820       133
22.830       153
22.840       187
22.850       187
22.860       140
22.870       220
22.880       213
22.890       193
22.900       253
22.910       267
22.920       160
22.930       227
22.940       267
22.950       227
22.960       267
22.970       287
22.980       260
22.990       267
23.000       233
23.010       333
23.020       233
23.030       200
23.040       220
23.050       313
23.060       426
23.070       520
23.080       800
23.090      1279
23.100      1506
23.110      1479
23.120      1793
23.130      1606
23.140      1579
23.150      1386
23.160       833
23.170       520
23.180       373
23.190       313
23.200       267
23.210       293
23.220       240
23.230       267
23.240       233
23.250       273
23.260       247
23.270       153
23.280       213
23.290       227
23.300       200
23.310       167
23.320       220
23.330       160
23.340       160
23.350       300
23.360       160
23.370       167
23.380       273
23.390       220
23.400       213
23.410       180
23.420       220
23.430       180
23.440       160
23.450       220
23.460       133
23.470       180
23.480       173
23.490       193
23.500       173
23.510       220
23.520       240
23.530       207
23.540       207
23.550       147
23.560       167
23.570       167
23.580       160
23.590       220
23.600       180
23.610       220
23.620       200
23.630       167
23.640       147
23.650       207
23.660       133
23.670       173
23.680       220
23.690       140
23.700       213
23.710       147
23.720       160
23.730       153
23.740       173
23.750       187
23.760       173
23.770       153
23.780       187
23.790       220
23.800       187
23.810       153
23.820       187
23.830       153
23.840       227
23.850       167
23.860       167
23.870       107
23.880       227
23.890       127
23.900       247
23.910       220
23.920       247
23.930       207
23.940       160
23.950       213
23.960       180
23.970       160
23.980       173
23.990       220
24.000       280
24.010       200
24.020       127
24.030       227
24.040       160
24.050       160
24.060       227
24.070       273
24.080       187
24.090       240
24.100       193
24.110       207
24.120       180
24.130       133
24.140       267
24.150       253
24.160       180
24.170       213
24.180       213
24.190       233
24.200       140
24.210       247
24.220       133
24.230       193
24.240       193
24.250       213
24.260       187
24.270       193
24.280       147
24.290       140
24.300       200
24.310       167
24.320       173
24.330       213
24.340       220
24.350       240
24.360       220
24.370       173
24.380       173
24.390       120
24.400       187
24.410       193
24.420       220
24.430       220
24.440       173
24.450       220
24.460       153
24.470       207
24.480       273
24.490       213
24.500       213
24.510       220
24.520       140
24.530       240
24.540       167
24.550       273
24.560       187
24.570       160
24.580       187
24.590       240
24.600       193
24.610       173
24.620       187
24.630       293
24.640       227
24.650       213
24.660       300
24.670       260
24.680       240
24.690       260
24.700       340
24.710       426
24.720       553
24.730       480
24.740       613
24.750       766
24.760       680
24.770       806
24.780       873
24.790       986
24.800       853
24.810       980
24.820       826
24.830      1060
24.840       966
24.850       986
24.860       966
24.870      1146
24.880       920
24.890      1046
24.900      1006
24.910       813
24.920       866
24.930       993
24.940       893
24.950       866
24.960      1060
24.970       946
24.980       866
24.990       833
25.000       920
25.010       866
25.020       886
25.030       940
25.040       826
25.050       840
25.060       800
25.070       946
25.080       853
25.090       873
25.100       933
25.110       700
25.120      1020
25.130       866
25.140       886
25.150       706
25.160       773
25.170       880
25.180       733
25.190       806
25.200       926
25.210       940
25.220       906
25.230       833
25.240       966
25.250       800
25.260      1026
25.270       853
25.280       920
25.290       993
25.300      1080
25.310      1020
25.320       980
25.330      1040
25.340      1120
25.350      1200
25.360      1373
25.370      1546
25.380      1886
25.390      2246
25.400      2812
25.410      3399
25.420      3798
25.430      4831
25.440      5651
25.450      6504
25.460      7410
25.470      7943
25.480      9316
25.490      9783
25.500     10629
25.510     11422
25.520     12242
25.530     13241
25.540     14094
25.550     17073
25.560     24390
25.570     42390
25.580     73044
25.590    109896
25.600    138045
25.610    151753
25.620    160776
25.630    166993
25.640    164854
25.650    151766
25.660    131901
25.670    111295
25.680    101599
25.690     99087
25.700     91757
25.710     79428
25.720     58910
25.730     35499
25.740     20898
25.750     13708
25.760     10256
25.770      7690
25.780      6431
25.790      5504
25.800      4678
25.810      4318
25.820      3432
25.830      2886
25.840      2792
25.850      2299
25.860      2066
25.870      1866
25.880      1686
25.890      1533
25.900      1353
25.910      1359
25.920      1153
25.930      1286
25.940      1113
25.950      1093
25.960      1126
25.970      1153
25.980      1020
25.990      1160
26.000      1000
26.010       946
26.020      1053
26.030      1013
26.040       780
26.050       886
26.060       920
26.070       873
26.080       873
26.090       813
26.100       820
26.110       946
26.120       886
26.130       866
26.140       726
26.150       680
26.160       766
26.170       660
26.180       806
26.190       740
26.200       933
26.210       853
26.220       753
26.230       833
26.240       720
26.250       700
26.260       653
26.270       740
26.280       626
26.290       586
26.300       680
26.310       666
26.320       693
26.330       680
26.340       586
26.350       666
26.360       593
26.370       633
26.380       626
26.390       680
26.400       693
26.410       606
26.420       720
26.430       740
26.440       600
26.450       646
26.460       666
26.470       733
26.480       740
26.490       693
26.500       633
26.510       626
26.520       533
26.530       580
26.540       546
26.550       606
26.560       573
26.570       713
26.580       586
26.590       673
26.600       486
26.610       740
26.620       593
26.630       626
26.640       553
26.650       633
26.660       653
26.670       580
26.680       613
26.690       640
26.700       560
26.710       686
26.720       546
26.730       593
26.740       526
26.750       553
26.760       600
26.770       593
26.780       620
26.790       560
26.800       673
26.810       513
26.820       520
26.830       566
26.840       500
26.850       526
26.860       626
26.870       560
26.880       540
26.890       580
26.900       580
26.910       520
26.920       493
26.930       600
26.940       586
26.950       506
26.960       526
26.970       540
26.980       500
26.990       393
27.000       553
27.010       493
27.020       573
27.030       546
27.040       600
27.050       506
27.060       506
27.070       413
27.080       566
27.090       513
27.100       526
27.110       540
27.120       533
27.130       546
27.140       513
27.150       440
27.160       560
27.170       493
27.180       473
27.190       473
27.200       493
27.210       540
27.220       486
27.230       407
27.240       573
27.250       526
27.260       520
27.270       526
27.280       520
27.290       526
27.300       466
27.310       533
27.320       526
27.330       466
27.340       513
27.350       426
27.360       546
27.370       413
27.380       407
27.390       367
27.400       480
27.410       446
27.420       446
27.430       506
27.440       420
27.450       513
27.460       526
27.470       413
27.480       446
27.490       466
27.500       493
27.510       520
27.520       553
27.530       440
27.540       460
27.550       380
27.560       486
27.570       480
27.580       520
27.590       473
27.600       473
27.610       526
27.620       473
27.630       486
27.640       500
27.650       526
27.660       480
27.670       493
27.680       380
27.690       393
27.700       580
27.710       500
27.720       506
27.730       387
27.740       367
27.750       426
27.760       453
27.770       433
27.780       407
27.790       433
27.800       493
27.810       486
27.820       513
27.830       413
27.840       460
27.850       493
27.860       566
27.870       440
27.880       620
27.890       380
27.900       473
27.910       473
27.920       433
27.930       420
27.940       367
27.950       506
27.960       473
27.970       426
27.980       453
27.990       387
28.000       513
28.010       313
28.020       426
28.030       500
28.040       320
28.050       333
28.060       506
28.070       387
28.080       480
28.090       473
28.100       420
28.110       500
28.120       420
28.130       520
28.140       506
28.150       327
28.160       606
28.170       440
28.180       533
28.190       380
28.200       380
28.210       453
28.220       526
28.230       420
28.240       453
28.250       446
28.260       460
28.270       420
28.280       553
28.290       420
28.300       493
28.310       387
28.320       446
28.330       407
28.340       420
28.350       380
28.360       407
28.370       493
28.380       360
28.390       400
28.400       426
28.410       426
28.420       400
28.430       426
28.440       347
28.450       500
28.460       500
28.470       480
28.480       360
28.490       446
28.500       407
28.510       367
28.520       373
28.530       293
28.540       380
28.550       486
28.560       367
28.570       393
28.580       380
28.590       453
28.600       340
28.610       360
28.620       380
28.630       373
28.640       320
28.650       380
28.660       460
28.670       426
28.680       426
28.690       393
28.700       433
28.710       373
28.720       420
28.730       373
28.740       380
28.750       287
28.760       420
28.770       407
28.780       373
28.790       433
28.800       433
28.810       273
28.820       460
28.830       387
28.840       387
28.850       393
28.860       426
28.870       360
28.880       440
28.890       413
28.900       400
28.910       453
28.920       446
28.930       446
28.940       480
28.950       446
28.960       440
28.970       493
28.980       453
28.990       493
29.000       460
29.010       593
29.020       486
29.030       420
29.040       460
29.050       540
29.060       486
29.070       566
29.080       486
29.090       473
29.100       460
29.110       546
29.120       473
29.130       466
29.140       433
29.150       480
29.160       413
29.170       520
29.180       480
29.190       480
29.200       506
29.210       580
29.220       493
29.230       413
29.240       580
29.250       440
29.260       546
29.270       546
29.280       586
29.290       520
29.300       620
29.310       533
29.320       600
29.330       613
29.340       706
29.350       733
29.360       773
29.370       720
29.380       780
29.390       786
29.400       933
29.410       726
29.420       793
29.430       800
29.440       693
29.450       786
29.460       740
29.470       540
29.480       546
29.490       493
29.500       640
29.510       506
29.520       466
29.530       633
29.540       420
29.550       407
29.560       373
29.570       340
29.580       413
29.590       460
29.600       307
29.610       300
29.620       380
29.630       380
29.640       387
29.650       360
29.660       400
29.670       327
29.680       360
29.690       400
29.700       300
29.710       347
29.720       407
29.730       333
29.740       407
29.750       353
29.760       300
29.770       280
29.780       320
29.790       320
29.800       360
29.810       373
29.820       280
29.830       300
29.840       426
29.850       333
29.860       300
29.870       360
29.880       273
29.890       307
29.900       307
29.910       340
29.920       440
29.930       347
29.940       393
29.950       307
29.960       340
29.970       260
29.980       273
29.990       353
30.000       347
30.010       287
30.020       327
30.030       307
30.040       340
30.050       347
30.060       193
30.070       353
30.080       220
30.090       287
30.100       273
30.110       300
30.120       320
30.130       333
30.140       340
30.150       247
30.160       320
30.170       247
30.180       287
30.190       267
30.200       320
30.210       313
30.220       340
30.230       273
30.240       227
30.250       300
30.260       267
30.270       287
30.280       273
30.290       240
30.300       307
30.310       287
30.320       307
30.330       333
30.340       333
30.350       247
30.360       353
30.370       400
30.380       360
30.390       313
30.400       280
30.410       280
30.420       367
30.430       253
30.440       227
30.450       260
30.460       267
30.470       253
30.480       293
30.490       287
30.500       253
30.510       280
30.520       267
30.530       260
30.540       247
30.550       267
30.560       320
30.570       227
30.580       293
30.590       307
30.600       327
30.610       380
30.620       340
30.630       333
30.640       320
30.650       307
30.660       253
30.670       247
30.680       347
30.690       240
30.700       267
30.710       193
30.720       313
30.730       227
30.740       273
30.750       307
30.760       220
30.770       340
30.780       287
30.790       247
30.800       193
30.810       260
30.820       253
30.830       253
30.840       313
30.850       293
30.860       220
30.870       260
30.880       293
30.890       293
30.900       267
30.910       333
30.920       247
30.930       287
30.940       233
30.950       413
30.960       247
30.970       320
30.980       220
30.990       287
31.000       307
31.010       307
31.020       300
31.030       173
31.040       233
31.050       220
31.060       220
31.070       280
31.080       327
31.090       260
31.100       280
31.110       307
31.120       273
31.130       233
31.140       333
31.150       253
31.160       253
31.170       247
31.180       253
31.190       247
31.200       193
31.210       273
31.220       253
31.230       307
31.240       327
31.250       307
31.260       293
31.270       227
31.280       240
31.290       273
31.300       247
31.310       320
31.320       213
31.330       293
31.340       233
31.350       280
31.360       200
31.370       333
31.380       247
31.390       187
31.400       293
31.410       307
31.420       220
31.430       313
31.440       187
31.450       173
31.460       280
31.470       280
31.480       333
31.490       200
31.500       220
31.510       280
31.520       300
31.530       267
31.540       313
31.550       293
31.560       207
31.570       247
31.580       267
31.590       313
31.600       187
31.610       273
31.620       187
31.630       293
31.640       200
31.650       267
31.660       247
31.670       267
31.680       240
31.690       247
31.700       227
31.710       240
31.720       287
31.730       193
31.740       280
31.750       207
31.760       220
31.770       233
31.780       260
31.790       227
31.800       213
31.810       280
31.820       267
31.830       193
31.840       273
31.850       247
31.860       233
31.870       193
31.880       193
31.890       267
31.900       180
31.910       187
31.920       240
31.930       207
31.940       200
31.950       187
31.960       233
31.970       213
31.980       233
31.990       187
32.000       247
32.010       220
32.020       220
32.030       287
32.040       340
32.050       253
32.060       307
32.070       200
32.080       233
32.090       273
32.100       220
32.110       247
32.120       207
32.130       233
32.140       320
32.150       147
32.160       193
32.170       187
32.180       233
32.190       247
32.200       260
32.210       180
32.220       207
32.230       260
32.240       233
32.250       193
32.260       260
32.270       207
32.280       213
32.290       207
32.300       307
32.310       247
32.320       213
32.330       213
32.340       187
32.350       287
32.360       173
32.370       240
32.380       240
32.390       207
32.400       260
32.410       247
32.420       247
32.430       193
32.440       247
32.450       167
32.460       233
32.470       227
32.480       167
32.490       180
32.500       200
32.510       207
32.520       160
32.530       180
32.540       267
32.550       253
32.560       180
32.570       113
32.580       240
32.590       227
32.600       200
32.610       193
32.620       213
32.630       140
32.640       180
32.650       180
32.660       213
32.670       287
32.680       240
32.690       193
32.700       233
32.710       307
32.720       207
32.730       227
32.740       200
32.750       200
32.760       227
32.770       220
32.780       240
32.790       227
32.800       227
32.810       167
32.820       147
32.830       160
32.840       187
32.850       173
32.860       200
32.870       180
32.880       200
32.890       193
32.900       273
32.910       187
32.920       200
32.930       173
32.940       147
32.950       200
32.960       207
32.970       173
32.980       200
32.990       167
33.000       147
33.010       167
33.020       207
33.030       113
33.040       180
33.050       140
33.060       187
33.070       180
33.080       213
33.090       173
33.100       160
33.110       187
33.120       187
33.130       187
33.140       107
33.150       187
33.160       207
33.170       147
33.180       173
33.190       113
33.200       187
33.210       187
33.220       173
33.230       187
33.240       220
33.250       180
33.260       153
33.270       153
33.280       220
33.290       187
33.300       160
33.310       207
33.320       187
33.330       200
33.340       113
33.350       220
33.360       193
33.370       173
33.380       200
33.390       147
33.400       213
33.410       140
33.420       127
33.430       167
33.440       133
33.450       240
33.460       160
33.470       160
33.480       127
33.490       167
33.500       120
33.510       180
33.520       227
33.530       200
33.540       187
33.550       133
33.560       160
33.570       180
33.580       140
33.590       180
33.600       187
33.610       173
33.620       253
33.630       180
33.640       167
33.650       160
33.660       113
33.670       160
33.680       140
33.690       160
33.700       147
33.710       160
33.720       180
33.730       173
33.740       160
33.750       160
33.760       167
33.770       193
33.780       213
33.790       200
33.800       167
33.810       180
33.820       160
33.830       153
33.840       193
33.850       167
33.860       107
33.870       140
33.880       133
33.890       167
33.900       240
33.910       153
33.920       193
33.930       187
33.940       167
33.950       120
33.960       153
33.970       153
33.980       100
33.990       113
34.000       167
34.010       187
34.020       107
34.030       180
34.040       173
34.050       133
34.060       153
34.070       113
34.080       127
34.090       167
34.100        93
34.110       167
34.120       120
34.130       127
34.140       127
34.150       180
34.160       260
34.170       187
34.180       173
34.190       167
34.200       140
34.210       167
34.220       147
34.230       147
34.240       173
34.250       133
34.260       120
34.270       147
34.280       107
34.290       160
34.300       133
34.310       173
34.320       193
34.330       193
34.340       167
34.350       193
34.360       160
34.370       180
34.380       107
34.390       193
34.400       147
34.410       127
34.420       133
34.430       120
34.440       147
34.450       180
34.460       147
34.470       167
34.480       127
34.490       140
34.500       173
34.510       173
34.520       147
34.530       140
34.540       153
34.550       200
34.560       147
34.570       120
34.580       140
34.590       107
34.600       127
34.610       167
34.620       133
34.630       113
34.640       127
34.650       220
34.660       200
34.670       133
34.680       153
34.690       153
34.700       120
34.710       140
34.720       173
34.730       120
34.740       160
34.750       173
34.760       187
34.770       133
34.780       200
34.790       120
34.800       107
34.810       153
34.820       127
34.830       107
34.840       167
34.850       127
34.860       147
34.870       133
34.880       100
34.890       107
34.900       147
34.910        87
34.920       127
34.930       147
34.940       147
34.950       133
34.960       107
34.970       180
34.980       140
34.990        73
35.000       120
35.010       113
35.020       100
35.030       187
35.040       147
35.050       113
35.060       107
35.070       200
35.080       127
35.090       113
35.100       140
35.110       167
35.120       173
35.130       127
35.140       140
35.150       113
35.160       147
35.170        93
35.180       140
35.190       180
35.200        93
35.210       133
35.220       127
35.230       127
35.240       173
35.250       153
35.260       107
35.270       133
35.280       140
35.290       107
35.300       187
35.310       133
35.320       153
35.330       187
35.340       160
35.350       120
35.360       100
35.370       127
35.380       153
35.390       153
35.400       113
35.410       127
35.420       127
35.430       113
35.440       133
35.450       120
35.460       120
35.470       107
35.480       120
35.490       133
35.500        80
35.510       107
35.520       153
35.530       127
35.540       120
35.550       147
35.560       147
35.570       140
35.580       120
35.590       133
35.600       153
35.610       133
35.620       140
35.630       113
35.640        73
35.650       160
35.660       133
35.670       127
35.680       147
35.690       113
35.700       120
35.710       140
35.720       133
35.730        80
35.740        87
35.750       140
35.760       140
35.770       120
35.780       193
35.790       133
35.800       113
35.810       127
35.820        73
35.830        87
35.840        80
35.850       180
35.860       200
35.870       187
35.880       147
35.890       187
35.900       193
35.910       133
35.920       213
35.930       120
35.940       180
35.950       187
35.960       140
35.970       220
35.980       120
35.990       127
36.000       127
36.010       160
36.020       153
36.030       133
36.040       133
36.050       153
36.060       147
36.070       153
36.080       120
36.090       120
36.100        87
36.110       160
36.120       100
36.130       127
36.140       200
36.150       127
36.160       127
36.170       120
36.180       133
36.190        73
36.200       153
36.210        87
36.220       113
36.230        87
36.240        73
36.250       160
36.260       107
36.270       140
36.280       133
36.290        93
36.300        93
36.310        80
36.320        87
36.330        80
36.340       127
36.350       180
36.360        93
36.370       147
36.380       127
36.390       133
36.400       127
36.410        80
36.420        87
36.430        93
36.440       113
36.450       113
36.460       100
36.470        87
36.480       120
36.490       113
36.500        80
36.510       147
36.520       133
36.530       107
36.540       120
36.550       133
36.560       127
36.570       113
36.580        93
36.590        80
36.600        73
36.610        73
36.620       120
36.630       100
36.640       107
36.650        33
36.660        73
36.670        73
36.680        93
36.690       120
36.700       100
36.710        73
36.720        80
36.730        93
36.740       133
36.750        93
36.760       120
36.770        80
36.780       133
36.790        80
36.800        80
36.810        73
36.820        80
36.830        87
36.840        67
36.850        93
36.860        73
36.870        73
36.880       107
36.890        67
36.900        80
36.910        60
36.920       127
36.930       113
36.940        87
36.950       140
36.960        93
36.970        80
36.980       133
36.990        87
37.000       100
37.010       113
37.020        87
37.030       120
37.040       120
37.050       140
37.060        80
37.070        60
37.080       107
37.090        87
37.100       107
37.110        93
37.120       120
37.130       113
37.140        87
37.150        80
37.160        60
37.170        87
37.180        93
37.190        93
37.200       140
37.210        40
37.220        47
37.230       140
37.240        87
37.250       107
37.260        67
37.270        73
37.280       100
37.290       107
37.300        53
37.310        93
37.320       100
37.330       113
37.340       133
37.350        80
37.360        93
37.370        80
37.380       127
37.390       120
37.400       127
37.410       107
37.420       100
37.430        93
37.440        67
37.450       127
37.460       107
37.470        60
37.480       100
37.490        80
37.500        73
37.510       107
37.520        87
37.530       147
37.540        87
37.550        67
37.560       167
37.570        93
37.580       100
37.590       140
37.600        93
37.610       100
37.620       100
37.630        87
37.640       133
37.650       140
37.660       113
37.670        87
37.680       120
37.690        87
37.700       127
37.710        87
37.720       127
37.730       153
37.740       127
37.750       127
37.760       107
37.770       100
37.780       160
37.790        60
37.800        93
37.810       107
37.820        93
37.830        93
37.840        93
37.850       107
37.860        93
37.870       113
37.880        93
37.890       107
37.900       100
37.910        93
37.920        73
37.930        80
37.940        93
37.950        73
37.960       113
37.970        93
37.980        40
37.990        67
38.000        93
38.010       107
38.020        60
38.030        67
38.040        87
38.050        53
38.060       100
38.070       100
38.080        53
38.090       107
38.100        80
38.110        93
38.120        67
38.130        93
38.140        80
38.150        73
38.160       100
38.170       120
38.180        80
38.190       100
38.200       113
38.210        93
38.220       127
38.230        33
38.240        60
38.250        93
38.260        87
38.270        87
38.280       140
38.290       107
38.300       100
38.310       113
38.320       113
38.330       127
38.340       100
38.350        93
38.360       107
38.370        80
38.380        93
38.390       107
38.400       107
38.410        87
38.420       113
38.430        67
38.440        87
38.450       127
38.460        60
38.470       120
38.480        80
38.490       113
38.500       133
38.510       107
38.520        93
38.530        73
38.540       100
38.550       113
38.560        87
38.570       100
38.580        80
38.590        80
38.600        53
38.610       100
38.620        67
38.630        73
38.640        93
38.650        53
38.660        73
38.670        60
38.680        67
38.690       100
38.700        87
38.710        60
38.720        93
38.730        60
38.740        93
38.750       107
38.760       120
38.770        60
38.780        73
38.790        47
38.800        60
38.810        60
38.820        93
38.830       120
38.840        20
38.850        53
38.860        73
38.870        53
38.880        33
38.890        33
38.900        87
38.910        87
38.920        60
38.930        73
38.940        93
38.950        40
38.960        87
38.970        60
38.980        47
38.990        47
39.000        73
39.010       107
39.020        93
39.030        53
39.040        60
39.050        87
39.060       120
39.070        93
39.080        80
39.090        47
39.100        73
39.110        40
39.120        67
39.130       100
39.140       127
39.150        60
39.160        40
39.170        67
39.180        67
39.190        67
39.200       127
39.210        60
39.220        87
39.230        73
39.240        40
39.250        73
39.260        87
39.270        67
39.280        67
39.290        47
39.300        93
39.310        80
39.320       107
39.330        87
39.340       127
39.350       113
39.360       120
39.370       127
39.380        67
39.390       160
39.400       133
39.410       127
39.420       173
39.430       140
39.440       107
39.450       133
39.460        73
39.470       153
39.480       113
39.490       107
39.500       107
39.510       100
39.520       147
39.530       107
39.540        67
39.550       120
39.560       107
39.570        87
39.580        60
39.590        87
39.600        60
39.610        80
39.620        67
39.630        67
39.640        67
39.650        53
39.660        60
39.670        80
39.680        53
39.690        60
39.700        80
39.710        60
39.720        73
39.730        53
39.740        47
39.750        53
39.760        60
39.770       107
39.780        87
39.790        87
39.800        67
39.810        73
39.820        87
39.830        53
39.840        73
39.850        40
39.860        60
39.870        53
39.880        60
39.890        53
39.900        87
39.910        93
39.920        60
39.930        67
39.940        60
39.950        47
39.960        73
39.970        93
39.980        53
39.990        80
40.000       113
40.010        60
40.020        73
40.030        47
40.040        80
40.050        67
40.060        67
40.070        47
40.080        80
40.090        53
40.100        60
40.110        47
40.120        67
40.130        80
40.140        60
40.150       100
40.160        73
40.170        73
40.180        67
40.190        87
40.200        27
40.210        93
40.220        60
40.230        53
40.240        53
40.250        53
40.260        47
40.270        67
40.280        67
40.290        60
40.300        67
40.310       100
40.320        47
40.330        67
40.340        87
40.350        80
40.360        60
40.370        80
40.380        93
40.390        40
40.400        93
40.410        80
40.420        53
40.430        47
40.440        93
40.450        67
40.460        80
40.470        73
40.480        47
40.490        40
40.500        53
40.510        73
40.520        47
40.530        60
40.540        87
40.550       100
40.560        60
40.570        47
40.580        53
40.590        93
40.600        47
40.610        53
40.620        40
40.630        60
40.640        53
40.650        33
40.660       100
40.670        47
40.680       100
40.690        33
40.700        60
40.710        87
40.720        53
40.730        80
40.740        60
40.750        20
40.760        27
40.770        47
40.780        60
40.790        60
40.800        40
40.810        40
40.820        53
40.830        47
40.840        53
40.850        47
40.860        27
40.870        33
40.880        27
40.890        53
40.900        93
40.910        53
40.920        60
40.930        47
40.940        40
40.950        80
40.960        47
40.970        33
40.980        40
40.990        93
41.000        53
41.010        80
41.020        47
41.030        67
41.040        47
41.050        60
41.060        67
41.070        33
41.080        67
41.090        33
41.100        80
41.110        33
41.120        87
41.130        47
41.140        33
41.150        93
41.160        53
41.170        67
41.180        47
41.190        33
41.200        33
41.210        67
41.220        40
41.230        53
41.240        60
41.250        67
41.260        40
41.270        40
41.280        53
41.290        60
41.300        53
41.310        53
41.320        47
41.330        53
41.340        53
41.350        53
41.360       107
41.370        27
41.380        53
41.390        27
41.400        40
41.410        93
41.420        67
41.430        33
41.440        27
41.450        47
41.460        80
41.470        53
41.480        73
41.490        33
41.500        20
41.510        20
41.520        40
41.530        27
41.540        47
41.550        27
41.560        53
41.570        40
41.580        53
41.590        67
41.600        93
41.610        73
41.620        47
41.630        33
41.640        33
41.650        40
41.660        53
41.670        80
41.680        20
41.690        20
41.700        47
41.710        27
41.720        27
41.730        40
41.740        47
41.750        40
41.760        60
41.770        67
41.780        47
41.790        67
41.800        67
41.810        73
41.820        80
41.830        33
41.840        53
41.850        67
41.860        40
41.870        33
41.880        20
41.890        13
41.900        33
41.910        27
41.920        67
41.930        47
41.940        60
41.950        40
41.960        40
41.970        33
41.980        13
41.990        40
42.000        40
42.010        53
42.020        53
42.030        20
42.040        60
42.050        60
42.060        33
42.070        27
42.080        73
42.090        53
42.100        40
42.110        67
42.120        60
42.130        47
42.140        87
42.150        33
42.160        53
42.170        53
42.180        20
42.190        73
42.200        93
42.210        33
42.220        47
42.230        73
42.240        33
42.250        53
42.260        40
42.270        73
42.280        53
42.290        67
42.300        47
42.310        80
42.320        67
42.330        53
42.340        20
42.350        53
42.360        40
42.370        53
42.380        27
42.390        40
42.400        47
42.410        40
42.420        33
42.430        53
42.440        47
42.450       107
42.460        33
42.470        53
42.480        27
42.490        40
42.500        47
42.510        67
42.520        67
42.530        27
42.540        47
42.550        53
42.560        33
42.570        33
42.580        40
42.590        53
42.600        40
42.610        33
42.620        73
42.630        67
42.640        47
42.650        47
42.660        53
42.670        73
42.680        67
42.690        40
42.700        40
42.710        80
42.720        73
42.730        33
42.740        40
42.750        60
42.760        53
42.770        40
42.780        47
42.790        47
42.800        73
42.810        47
42.820        33
42.830        60
42.840        27
42.850        73
42.860        47
42.870        40
42.880        47
42.890        40
42.900        73
42.910        40
42.920        60
42.930        73
42.940        27
42.950        27
42.960        53
42.970        47
42.980        67
42.990        73
43.000        40
43.010        33
43.020        87
43.030        53
43.040        80
43.050        80
43.060       100
43.070        67
43.080       100
43.090       120
43.100       107
43.110        60
43.120        73
43.130        60
43.140       180
43.150        80
43.160        80
43.170        73
43.180       120
43.190        87
43.200        67
43.210        93
43.220       127
43.230        80
43.240        47
43.250        67
43.260        53
43.270        73
43.280        80
43.290        73
43.300        47
43.310        47
43.320        73
43.330        47
43.340        33
43.350        40
43.360        60
43.370        67
43.380        40
43.390       100
43.400        80
43.410        47
43.420        53
43.430        67
43.440        40
43.450        40
43.460        27
43.470        60
43.480        27
43.490        40
43.500        53
43.510        67
43.520        40
43.530        60
43.540        33
43.550        40
43.560        33
43.570        40
43.580        27
43.590        53
43.600        53
43.610        20
43.620        40
43.630        67
43.640        53
43.650        40
43.660        60
43.670        33
43.680        67
43.690        60
43.700        53
43.710        40
43.720        33
43.730        47
43.740        47
43.750        27
43.760        20
43.770        27
43.780        73
43.790        47
43.800        33
43.810        40
43.820        53
43.830        47
43.840        47
43.850        33
43.860        53
43.870        60
43.880        47
43.890        33
43.900        53
43.910        60
43.920        73
43.930        67
43.940        13
43.950        47
43.960         7
43.970        40
43.980        47
43.990        47
44.000        27
44.010        47
44.020        53
44.030        47
44.040        53
44.050        20
44.060        53
44.070        27
44.080        47
44.090        60
44.100        27
44.110        20
44.120        33
44.130        60
44.140        53
44.150        60
44.160        33
44.170        20
44.180        53
44.190        40
44.200        27
44.210        40
44.220        47
44.230        33
44.240        73
44.250        53
44.260        20
44.270        67
44.280        20
44.290        33
44.300        47
44.310        67
44.320        60
44.330        33
44.340        47
44.350        47
44.360        53
44.370        27
44.380        47
44.390        33
44.400        73
44.410        47
44.420        27
44.430        27
44.440        47
44.450        47
44.460        20
44.470        40
44.480        33
44.490        13
44.500        27
44.510        53
44.520        47
44.530        60
44.540        13
44.550        40
44.560        40
44.570        53
44.580        60
44.590        60
44.600         7
44.610        40
44.620        27
44.630        47
44.640        60
44.650        33
44.660        33
44.670        20
44.680        40
44.690        33
44.700        13
44.710        20
44.720        27
44.730        33
44.740        40
44.750        67
44.760        60
44.770        60
44.780        53
44.790        27
44.800        27
44.810        27
44.820        33
44.830        13
44.840        40
44.850        40
44.860        47
44.870        60
44.880        47
44.890        27
44.900        40
44.910        47
44.920        33
44.930        40
44.940        27
44.950        33
44.960        27
44.970        53
44.980        20
44.990        27
45.000        13
45.010        40
45.020        40
45.030        53
45.040        27
45.050        33
45.060        40
45.070        27
45.080        40
45.090        20
45.100        67
45.110        47
45.120        40
45.130        40
45.140        47
45.150        20
45.160        47
45.170        40
45.180        47
45.190        27
45.200        60
45.210        40
45.220        53
45.230        40
45.240        40
45.250        73
45.260        47
45.270        40
45.280        47
45.290        40
45.300        40
45.310        27
45.320        40
45.330        13
45.340        40
45.350        60
45.360        67
45.370        47
45.380        33
45.390        33
45.400        40
45.410        60
45.420        33
45.430        33
45.440        40
45.450        53
45.460        60
45.470        40
45.480        47
45.490         7
45.500        47
45.510        33
45.520        20
45.530        27
45.540        33
45.550        33
45.560        40
45.570        27
45.580        47
45.590        27
45.600        20
45.610        40
45.620        60
45.630        40
45.640        20
45.650        33
45.660        27
45.670        53
45.680        47
45.690        33
45.700        47
45.710        80
45.720        27
45.730        40
45.740        53
45.750        47
45.760        27
45.770        13
45.780        33
45.790        40
45.800        47
45.810        47
45.820        27
45.830        67
45.840        33
45.850        27
45.860        53
45.870        47
45.880        20
45.890        33
45.900        33
45.910        13
45.920        27
45.930        33
45.940        47
45.950        40
45.960        47
45.970        40
45.980        53
45.990        20
46.000        27
46.010        80
46.020        60
46.030        47
46.040        53
46.050        20
46.060        47
46.070        33
46.080        20
46.090        27
46.100        67
46.110        27
46.120        33
46.130        47
46.140       113
46.150        27
46.160        13
46.170        33
46.180        33
46.190        33
46.200        40
46.210        27
46.220        60
46.230        40
46.240        27
46.250        27
46.260        53
46.270        60
46.280        13
46.290        40
46.300        60
46.310        27
46.320        33
46.330        33
46.340        53
46.350        27
46.360        33
46.370        53
46.380        40
46.390        60
46.400        53
46.410        67
46.420        40
46.430        53
46.440        33
46.450        20
46.460        40
46.470        40
46.480        27
46.490        33
46.500        33
46.510        13
46.520        60
46.530        47
46.540        40
46.550        47
46.560        20
46.570        60
46.580        53
46.590        33
46.600        40
46.610        33
46.620        47
46.630        67
46.640        47
46.650        40
46.660        53
46.670        87
46.680        60
46.690        73
46.700        80
46.710        47
46.720        67
46.730        60
46.740        67
46.750       100
46.760        67
46.770        33
46.780        73
46.790        87
46.800        93
46.810        67
46.820        93
46.830       100
46.840        53
46.850       113
46.860        53
46.870       107
46.880        93
46.890        93
46.900       113
46.910       113
46.920       120
46.930        93
46.940       140
46.950        67
46.960       100
46.970       113
46.980        87
46.990       127
47.000       113
47.010       140
47.020        87
47.030       147
47.040       127
47.050       173
47.060       160
47.070       240
47.080       160
47.090       187
47.100       193
47.110       253
47.120       280
47.130       373
47.140       486
47.150       713
47.160       873
47.170      1106
47.180      1393
47.190      1579
47.200      1766
47.210      1746
47.220      1533
47.230      1506
47.240      1359
47.250       913
47.260       700
47.270       520
47.280       420
47.290       227
47.300       313
47.310       253
47.320       140
47.330       173
47.340       267
47.350       147
47.360       127
47.370       167
47.380       107
47.390        80
47.400       133
47.410       127
47.420       140
47.430       127
47.440       180
47.450       107
47.460       113
47.470       100
47.480       153
47.490       127
47.500       147
47.510       120
47.520       193
47.530       167
47.540       187
47.550       127
47.560        60
47.570       127
47.580       100
47.590       120
47.600        87
47.610       100
47.620       133
47.630        93
47.640        60
47.650       127
47.660        80
47.670        93
47.680        87
47.690        93
47.700        87
47.710        73
47.720        87
47.730       107
47.740        27
47.750        80
47.760        60
47.770       100
47.780        27
47.790        40
47.800        87
47.810        67
47.820        80
47.830        67
47.840        73
47.850        80
47.860        73
47.870        33
47.880        47
47.890       107
47.900        33
47.910        60
47.920       113
47.930        73
47.940        33
47.950        60
47.960        67
47.970        53
47.980        80
47.990        27
48.000        33
48.010        27
48.020        27
48.030        53
48.040        87
48.050        47
48.060        47
48.070        27
48.080        40
48.090        53
48.100        67
48.110        40
48.120        87
48.130        47
48.140        27
48.150        47
48.160        27
48.170        53
48.180        27
48.190        33
48.200        33
48.210        20
48.220       107
48.230        33
48.240        60
48.250        53
48.260        47
48.270        67
48.280        40
48.290        67
48.300        53
48.310       113
48.320        67
48.330        73
48.340        40
48.350        93
48.360        60
48.370        60
48.380        60
48.390        93
48.400       100
48.410       100
48.420        87
48.430        67
48.440       100
48.450       100
48.460        80
48.470       107
48.480       107
48.490       133
48.500        87
48.510       147
48.520        87
48.530        73
48.540       133
48.550       133
48.560       120
48.570        67
48.580        60
48.590        93
48.600       113
48.610        67
48.620        67
48.630        87
48.640        73
48.650        93
48.660       127
48.670        80
48.680        73
48.690        87
48.700        27
48.710        33
48.720        47
48.730        73
48.740        53
48.750        60
48.760        60
48.770        60
48.780        47
48.790        40
48.800        47
48.810        73
48.820        73
48.830        20
48.840        53
48.850        47
48.860        60
48.870        53
48.880        80
48.890        27
48.900        27
48.910        53
48.920        33
48.930        47
48.940        53
48.950        53
48.960        53
48.970        67
48.980        53
48.990        80
49.000        47
49.010        53
49.020        67
49.030        27
49.040        20
49.050        53
49.060        40
49.070        27
49.080        20
49.090        27
49.100       107
49.110        53
49.120        27
49.130        53
49.140        40
49.150        47
49.160        40
49.170        20
49.180        33
49.190        60
49.200        33
49.210        33
49.220        47
49.230        47
49.240        73
49.250        40
49.260        33
49.270        40
49.280        20
49.290        40
49.300        73
49.310        13
49.320        20
49.330        33
49.340        60
49.350        80
49.360        40
49.370        47
49.380        27
49.390        27
49.400        13
49.410        33
49.420        53
49.430        40
49.440        47
49.450        87
49.460        40
49.470        40
49.480        40
49.490        60
49.500        73
49.510        53
49.520        40
49.530        53
49.540        27
49.550        60
49.560        20
49.570        47
49.580        60
49.590        20
49.600        40
49.610        27
49.620        40
49.630        33
49.640        33
49.650        53
49.660        47
49.670        73
49.680        73
49.690        53
49.700        33
49.710        60
49.720        80
49.730        73
49.740        93
49.750        53
49.760        40
49.770        73
49.780        67
49.790        67
49.800        87
49.810        27
49.820        60
49.830        60
49.840        73
49.850        87
49.860        80
49.870        60
49.880        40
49.890        67
49.900        60
49.910        80
49.920        67
49.930        73
49.940        80
49.950        40
49.960        53
49.970        67
49.980        67
49.990        40
50.000        60
50.010        73
50.020        53
50.030        60
50.040        80
50.050        80
50.060        13
50.070        67
50.080        20
50.090        40
50.100        60
50.110        33
50.120        40
50.130        73
50.140        93
50.150        60
50.160        73
50.170        33
50.180        33
50.190        67
50.200        20
50.210        40
50.220        73
50.230        67
50.240        80
50.250        67
50.260        80
50.270        33
50.280        80
50.290        40
50.300        53
50.310        60
50.320        33
50.330        27
50.340        27
50.350        13
50.360        33
50.370        33
50.380        40
50.390        40
50.400        40
50.410        53
50.420        27
50.430       100
50.440        67
50.450        33
50.460        67
50.470        53
50.480         7
50.490        33
50.500        33
50.510        47
50.520        53
50.530        67
50.540        40
50.550        93
50.560        73
50.570        60
50.580        53
50.590        60
50.600        73
50.610       107
50.620       113
50.630       127
50.640       167
50.650       153
50.660       147
50.670       307
50.680       227
50.690       320
50.700       327
50.710       347
50.720       407
50.730       380
50.740       473
50.750       407
50.760       540
50.770       353
50.780       407
50.790       493
50.800       333
50.810       413
50.820       500
50.830       453
50.840       560
50.850       420
50.860       393
50.870       460
50.880       340
50.890       513
50.900       407
50.910       420
50.920       433
50.930       426
50.940       440
50.950       426
50.960       420
50.970       387
50.980       407
50.990       433
51.000       426
51.010       426
51.020       486
51.030       526
51.040       666
51.050       433
51.060       460
51.070       433
51.080       566
51.090       426
51.100       466
51.110       580
51.120       500
51.130       493
51.140       440
51.150       320
51.160       460
51.170       387
51.180       400
51.190       407
51.200       367
51.210       433
51.220       380
51.230       540
51.240       367
51.250       380
51.260       520
51.270       367
51.280       460
51.290       453
51.300       506
51.310       420
51.320       553
51.330       580
51.340       506
51.350       446
51.360       466
51.370       493
51.380       480
51.390       387
51.400       453
51.410       506
51.420       493
51.430       460
51.440       407
51.450       473
51.460       400
51.470       353
51.480       560
51.490       573
51.500       433
51.510       453
51.520       460
51.530       407
51.540       453
51.550       446
51.560       380
51.570       420
51.580       420
51.590       420
51.600       426
51.610       540
51.620       553
51.630       526
51.640       500
51.650       440
51.660       506
51.670       553
51.680       493
51.690       460
51.700       466
51.710       426
51.720       513
51.730       526
51.740       566
51.750       593
51.760       540
51.770       493
51.780       560
51.790       506
51.800       520
51.810       546
51.820       553
51.830       526
51.840       626
51.850       500
51.860       493
51.870       526
51.880       513
51.890       613
51.900       633
51.910       580
51.920       646
51.930       700
51.940       560
51.950       673
51.960       600
51.970       573
51.980       600
51.990       600
52.000       626
52.010       773
52.020       633
52.030       620
52.040       686
52.050       686
52.060       720
52.070       693
52.080       713
52.090       726
52.100       813
52.110       773
52.120       766
52.130       840
52.140       860
52.150       820
52.160       866
52.170       880
52.180       866
52.190      1180
52.200       913
52.210      1166
52.220      1086
52.230      1253
52.240      1246
52.250      1346
52.260      1453
52.270      1579
52.280      1499
52.290      1979
52.300      2339
52.310      2432
52.320      2726
52.330      3179
52.340      3312
52.350      4038
52.360      4312
52.370      4798
52.380      5484
52.390      5871
52.400      6611
52.410      6864
52.420      7884
52.430      8856
52.440      9729
52.450     10729
52.460     11302
52.470     12688
52.480     14254
52.490     15807
52.500     18146
52.510     21485
52.520     27302
52.530     36112
52.540     53559
52.550     80781
52.560    115774
52.570    145615
52.580    167113
52.590    181421
52.600    186825
52.610    185339
52.620    173477
52.630    151499
52.640    117160
52.650     85406
52.660     61016
52.670     50826
52.680     50660
52.690     58483
52.700     73091
52.710     88718
52.720    101799
52.730    110196
52.740    114294
52.750    108457
52.760     99247
52.770     83280
52.780     62228
52.790     43349
52.800     28895
52.810     21072
52.820     15600
52.830     12009
52.840     10116
52.850      8750
52.860      7484
52.870      7104
52.880      5871
52.890      5471
52.900      4465
52.910      4065
52.920      3499
52.930      3085
52.940      2792
52.950      2286
52.960      2206
52.970      1966
52.980      1853
52.990      1559
53.000      1546
53.010      1539
53.020      1373
53.030      1379
53.040      1386
53.050      1246
53.060      1220
53.070      1153
53.080      1033
53.090       933
53.100      1033
53.110       826
53.120       960
53.130       946
53.140      1000
53.150       873
53.160       913
53.170       826
53.180       726
53.190       886
53.200       806
53.210       806
53.220       660
53.230       620
53.240       720
53.250       773
53.260       733
53.270       646
53.280       766
53.290       660
53.300       700
53.310       713
53.320       546
53.330       740
53.340       613
53.350       600
53.360       626
53.370       626
53.380       593
53.390       540
53.400       626
53.410       620
53.420       640
53.430       586
53.440       493
53.450       666
53.460       506
53.470       580
53.480       500
53.490       473
53.500       606
53.510       520
53.520       580
53.530       520
53.540       506
53.550       520
53.560       480
53.570       460
53.580       553
53.590       433
53.600       453
53.610       553
53.620       546
53.630       453
53.640       373
53.650       400
53.660       426
53.670       533
53.680       526
53.690       453
53.700       486
53.710       426
53.720       400
53.730       473
53.740       446
53.750       420
53.760       433
53.770       380
53.780       353
53.790       460
53.800       426
53.810       446
53.820       466
53.830       440
53.840       400
53.850       453
53.860       493
53.870       540
53.880       360
53.890       393
53.900       413
53.910       446
53.920       367
53.930       360
53.940       367
53.950       453
53.960       273
53.970       353
53.980       393
53.990       413
54.000       387
54.010       407
54.020       347
54.030       387
54.040       313
54.050       433
54.060       460
54.070       273
54.080       327
54.090       446
54.100       347
54.110       420
54.120       253
54.130       400
54.140       287
54.150       340
54.160       373
54.170       387
54.180       287
54.190       320
54.200       373
54.210       347
54.220       293
54.230       460
54.240       333
54.250       327
54.260       460
54.270       320
54.280       227
54.290       327
54.300       426
54.310       413
54.320       313
54.330       313
54.340       293
54.350       347
54.360       360
54.370       307
54.380       446
54.390       287
54.400       340
54.410       307
54.420       267
54.430       300
54.440       307
54.450       293
54.460       347
54.470       400
54.480       313
54.490       273
54.500       273
54.510       313
54.520       313
54.530       247
54.540       227
54.550       347
54.560       247
54.570       313
54.580       273
54.590       253
54.600       280
54.610       287
54.620       260
54.630       293
54.640       407
54.650       380
54.660       267
54.670       327
54.680       320
54.690       300
54.700       347
54.710       320
54.720       280
54.730       353
54.740       300
54.750       360
54.760       367
54.770       213
54.780       307
54.790       267
54.800       373
54.810       287
54.820       333
54.830       287
54.840       260
54.850       320
54.860       380
54.870       307
54.880       307
54.890       307
54.900       273
54.910       267
54.920       300
54.930       280
54.940       260
54.950       313
54.960       313
54.970       273
54.980       313
54.990       260
55.000       287
55.010       267
55.020       280
55.030       227
55.040       273
55.050       300
55.060       253
55.070       253
55.080       320
55.090       273
55.100       200
55.110       320
55.120       293
55.130       213
55.140       327
55.150       347
55.160       353
55.170       287
55.180       227
55.190       307
55.200       227
55.210       307
55.220       240
55.230       280
55.240       293
55.250       293
55.260       273
55.270       247
55.280       227
55.290       207
55.300       293
55.310       260
55.320       193
55.330       320
55.340       287
55.350       320
55.360       267
55.370       267
55.380       293
55.390       280
55.400       293
55.410       207
55.420       280
55.430       227
55.440       233
55.450       300
55.460       227
55.470       240
55.480       220
55.490       227
55.500       253
55.510       340
55.520       253
55.530       207
55.540       287
55.550       280
55.560       307
55.570       273
55.580       233
55.590       193
55.600       280
55.610       167
55.620       253
55.630       193
55.640       180
55.650       313
55.660       260
55.670       240
55.680       233
55.690       227
55.700       280
55.710       260
55.720       240
55.730       220
55.740       213
55.750       267
55.760       280
55.770       320
55.780       300
55.790       287
55.800       273
55.810       293
55.820       293
55.830       227
55.840       233
55.850       293
55.860       260
55.870       247
55.880       247
55.890       247
55.900       220
55.910       313
55.920       247
55.930       253
55.940       240
55.950       233
55.960       300
55.970       253
55.980       213
55.990       287
56.000       247
56.010       280
56.020       340
56.030       180
56.040       213
56.050       180
56.060       320
56.070       207
56.080       247
56.090       273
56.100       240
56.110       200
56.120       227
56.130       153
56.140       267
56.150       220
56.160       307
56.170       267
56.180       273
56.190       260
56.200       260
56.210       253
56.220       253
56.230       327
56.240       267
56.250       207
56.260       293
56.270       313
56.280       220
56.290       220
56.300       267
56.310       200
56.320       253
56.330       260
56.340       300
56.350       247
56.360       193
56.370       213
56.380       227
56.390       293
56.400       293
56.410       227
56.420       200
56.430       260
56.440       313
56.450       240
56.460       180
56.470       153
56.480       173
56.490       280
56.500       227
56.510       207
56.520       280
56.530       220
56.540       193
56.550       233
56.560       253
56.570       173
56.580       260
56.590       187
56.600       180
56.610       220
56.620       293
56.630       273
56.640       233
56.650       280
56.660       193
56.670       273
56.680       200
56.690       187
56.700       227
56.710       180
56.720       180
56.730       260
56.740       193
56.750       307
56.760       207
56.770       207
56.780       247
56.790       220
56.800       247
56.810       207
56.820       187
56.830       133
56.840       180
56.850       173
56.860       180
56.870       307
56.880       147
56.890       160
56.900       193
56.910       227
56.920       253
56.930       180
56.940       273
56.950       240
56.960       187
56.970       233
56.980       193
56.990       147
57.000       260
57.010       227
57.020       193
57.030       173
57.040       193
57.050       167
57.060       227
57.070       200
57.080       220
57.090       193
57.100       227
57.110       200
57.120       207
57.130       213
57.140       120
57.150       167
57.160       213
57.170       160
57.180       240
57.190       100
57.200       207
57.210       187
57.220       213
57.230       200
57.240       200
57.250       200
57.260       207
57.270       200
57.280       173
57.290       207
57.300       173
57.310       200
57.320       193
57.330       227
57.340       247
57.350       240
57.360       153
57.370       233
57.380       160
57.390       240
57.400       207
57.410       273
57.420       227
57.430       173
57.440       253
57.450       227
57.460       260
57.470       187
57.480       153
57.490       207
57.500       160
57.510       287
57.520       253
57.530       200
57.540       140
57.550       167
57.560       240
57.570       227
57.580       247
57.590       293
57.600       220
57.610       213
57.620       227
57.630       173
57.640       240
57.650       160
57.660       180
57.670       207
57.680       167
57.690       140
57.700       213
57.710       140
57.720       180
57.730       220
57.740       227
57.750       207
57.760       180
57.770       187
57.780       200
57.790       193
57.800       213
57.810       153
57.820       133
57.830       153
57.840       213
57.850       187
57.860       133
57.870       193
57.880       140
57.890       153
57.900       167
57.910       200
57.920       193
57.930       153
57.940       147
57.950       220
57.960       180
57.970       120
57.980       160
57.990       233
58.000       167
58.010       153
58.020       153
58.030       287
58.040       140
58.050       173
58.060       233
58.070       193
58.080       207
58.090       133
58.100       160
58.110       180
58.120       167
58.130       207
58.140       227
58.150       200
58.160       167
58.170        87
58.180       193
58.190       153
58.200       180
58.210       173
58.220       180
58.230       187
58.240       260
58.250       200
58.260       133
58.270       193
58.280       200
58.290       173
58.300       187
58.310       173
58.320       147
58.330       140
58.340       200
58.350       153
58.360       200
58.370       213
58.380       153
58.390       220
58.400       120
58.410       160
58.420       153
58.430       147
58.440       140
58.450       147
58.460       240
58.470       113
58.480       207
58.490       133
58.500       167
58.510       173
58.520       147
58.530       153
58.540       160
58.550       207
58.560        87
58.570       107
58.580       140
58.590       207
58.600       147
58.610       193
58.620       213
58.630       133
58.640       160
58.650       140
58.660       160
58.670       187
58.680       127
58.690       173
58.700       187
58.710       147
58.720       107
58.730       127
58.740        93
58.750       133
58.760        87
58.770       140
58.780       147
58.790       133
58.800       120
58.810       160
58.820       120
58.830       147
58.840       107
58.850       193
58.860       147
58.870       133
58.880       100
58.890       160
58.900        93
58.910       133
58.920       167
58.930       147
58.940       140
58.950       207
58.960       153
58.970       187
58.980       173
58.990       213
59.000       113
59.010       140
59.020       140
59.030       167
59.040        67
59.050       120
59.060       133
59.070       180
59.080       193
59.090       153
59.100       120
59.110       127
59.120       213
59.130       147
59.140       173
59.150       133
59.160       147
59.170       193
59.180       127
59.190       107
59.200       140
59.210       167
59.220       153
59.230       147
59.240       133
59.250       120
59.260       113
59.270       120
59.280       180
59.290       107
59.300       153
59.310       180
59.320       200
59.330       193
59.340       167
59.350       127
59.360       107
59.370       153
59.380       100
59.390       113
59.400       140
59.410       120
59.420       113
59.430       180
59.440       167
59.450       127
59.460       120
59.470       140
59.480       133
59.490       140
59.500       107
59.510       173
59.520       173
59.530       173
59.540       147
59.550        80
59.560       113
59.570       127
59.580       160
59.590       127
59.600       120
59.610       113
59.620       127
59.630       180
59.640       147
59.650       173
59.660       127
59.670       140
59.680       120
59.690       147
59.700       147
59.710       173
59.720       147
59.730       180
59.740       167
59.750       133
59.760       167
59.770       120
59.780       107
59.790       153
59.800       100
59.810       127
59.820       133
59.830       127
59.840       200
59.850       167
59.860       120
59.870       127
59.880       133
59.890       207
59.900       140
59.910       153
59.920       193
59.930       100
59.940       120
59.950       133
59.960       207
59.970       113
59.980        80
59.990        53
60.000        53
