20.000        20
20.010        20
20.020        40
20.030        80
20.040        40
20.050        33
20.060        33
20.070        40
20.080        67
20.090        20
20.100        60
20.110        40
20.120        73
20.130        80
20.140        33
20.150        67
20.160        40
20.170        40
20.180        33
20.190         7
20.200        67
20.210        20
20.220        40
20.230        73
20.240        60
20.250        60
20.260        47
20.270        60
20.280        27
20.290        27
20.300        80
20.310        67
20.320        73
20.330        53
20.340        60
20.350        27
20.360        60
20.370        27
20.380        67
20.390        53
20.400        80
20.410        33
20.420        60
20.430        73
20.440        40
20.450        27
20.460        47
20.470        67
20.480        73
20.490        33
20.500        47
20.510        53
20.520        47
20.530        47
20.540        80
20.550        60
20.560        87
20.570        80
20.580        87
20.590        80
20.600        47
20.610        47
20.620        27
20.630        60
20.640        60
20.650        53
20.660        40
20.670        33
20.680        33
20.690        47
20.700        33
20.710        40
20.720        47
20.730        27
20.740        47
20.750        27
20.760        40
20.770        53
20.780        47
20.790        73
20.800        27
20.810        53
20.820        53
20.830        60
20.840        27
20.850        27
20.860        33
20.870        60
20.880        67
20.890        40
20.900        73
20.910        40
20.920        53
20.930        40
20.940        47
20.950        33
20.960        40
20.970        47
20.980        40
20.990        33
21.000        40
21.010        40
21.020        67
21.030        93
21.040        27
21.050        13
21.060        27
21.070        47
21.080        60
21.090        53
21.100        33
21.110        33
21.120        73
21.130        40
21.140        20
21.150        53
21.160        47
21.170        33
21.180        60
21.190        33
21.200        27
21.210         7
21.220        27
21.230        40
21.240        40
21.250        40
21.260        33
21.270        27
21.280        20
21.290        60
21.300        20
21.310        20
21.320        60
21.330        40
21.340        33
21.350        53
21.360        73
21.370        47
21.380        60
21.390        47
21.400        40
21.410        53
21.420        53
21.430        40
21.440        60
21.450        73
21.460        27
21.470        47
21.480        47
21.490        47
21.500        60
21.510        67
21.520        27
21.530        20
21.540        60
21.550        40
21.560        60
21.570        27
21.580        47
21.590        33
21.600        13
21.610        60
21.620        40
21.630        13
21.640        40
21.650        13
21.660        33
21.670        20
21.680        47
21.690        27
21.700        27
21.710        40
21.720        47
21.730        60
21.740        20
21.750        67
21.760        20
21.770        60
21.780        60
21.790        33
21.800        20
21.810        33
21.820        33
21.830        47
21.840        80
21.850        60
21.860        27
21.870        73
21.880        80
21.890        53
21.900        67
21.910        47
21.920        67
21.930        47
21.940        53
21.950        40
21.960        40
21.970        20
21.980        80
21.990        33
22.000        53
22.010        60
22.020        80
22.030        53
22.040        20
22.050        47
22.060        40
22.070        27
22.080        27
22.090        33
22.100        40
22.110        40
22.120        33
22.130        40
22.140        27
22.150        40
22.160        20
22.170        33
22.180        53
22.190        53
22.200        27
22.210        33
22.220        53
22.230        40
22.240        33
22.250        47
22.260        67
22.270        47
22.280        47
22.290        73
22.300        60
22.310        20
22.320        40
22.330        40
22.340        40
22.350        47
22.360        33
22.370        33
22.380        27
22.390        47
22.400        40
22.410        20
22.420        40
22.430        13
22.440        60
22.450        33
22.460        27
22.470        40
22.480        60
22.490        60
22.500        33
22.510        20
22.520        20
22.530        33
22.540        27
22.550        27
22.560        47
22.570        40
22.580        60
22.590        40
22.600        53
22.610        20
22.620        27
22.630        27
22.640        40
22.650        27
22.660        27
22.670        40
22.680        27
22.690        47
22.700        33
22.710        27
22.720        53
22.730        40
22.740        53
22.750        20
22.760        33
22.770        20
22.780         7
22.790        20
22.800        60
22.810        33
22.820        27
22.830        53
22.840        20
22.850        27
22.860        33
22.870        47
22.880        13
22.890        33
22.900        40
22.910        60
22.920        27
22.930        60
22.940        53
22.950        27
22.960        27
22.970        13
22.980        40
22.990        40
23.000        20
23.010        13
23.020        27
23.030        47
23.040        27
23.050        47
23.060        27
23.070        60
23.080        33
23.090        53
23.100        67
23.110        20
23.120        47
23.130        27
23.140        20
23.150        40
23.160        33
23.170        40
23.180        20
23.190        27
23.200        33
23.210        73
23.220        20
23.230        27
23.240        67
23.250         7
23.260        53
23.270        40
23.280        53
23.290        20
23.300        33
23.310        27
23.320        40
23.330        33
23.340        40
23.350        13
23.360        53
23.370        33
23.380        40
23.390        40
23.400        27
23.410        20
23.420        20
23.430         7
23.440        33
23.450        53
23.460        33
23.470        27
23.480        40
23.490        27
23.500        40
23.510        13
23.520        33
23.530        47
23.540        40
23.550        33
23.560        67
23.570        40
23.580        27
23.590        60
23.600        40
23.610        40
23.620        27
23.630        60
23.640        13
23.650        33
23.660        47
23.670        40
23.680        20
23.690        73
23.700        27
23.710        33
23.720        27
23.730        47
23.740        47
23.750        60
23.760        73
23.770        40
23.780        47
23.790        33
23.800        27
23.810        27
23.820        40
23.830        60
23.840        27
23.850        53
23.860        27
23.870        47
23.880        20
23.890        33
23.900        27
23.910        40
23.920        27
23.930        40
23.940        47
23.950        40
23.960        53
23.970        13
23.980        27
23.990        13
24.000        73
24.010        53
24.020        60
24.030        27
24.040        20
24.050        13
24.060        27
24.070        40
24.080        47
24.090        40
24.100         7
24.110        27
24.120        20
24.130        27
24.140        40
24.150        27
24.160        20
24.170        27
24.180        27
24.190        27
24.200        13
24.210        53
24.220        47
24.230        27
24.240        33
24.250        13
24.260        27
24.270        40
24.280        40
24.290        40
24.300        27
24.310        33
24.320        27
24.330        13
24.340        20
24.350        27
24.360         7
24.370        40
24.380        33
24.390        40
24.400        47
24.410        33
24.420        53
24.430        27
24.440        27
24.450        20
24.460         0
24.470        13
24.480        53
24.490        40
24.500        93
24.510        13
24.520        13
24.530        27
24.540        47
24.550        33
24.560        33
24.570        27
24.580        13
24.590        47
24.600        20
24.610        27
24.620        20
24.630        20
24.640        13
24.650        80
24.660        20
24.670        27
24.680        47
24.690        60
24.700        53
24.710        47
24.720        33
24.730        60
24.740        20
24.750        27
24.760        20
24.770        40
24.780        27
24.790        53
24.800        27
24.810        40
24.820        47
24.830        47
24.840        33
24.850        53
24.860        27
24.870        33
24.880        67
24.890        53
24.900        27
24.910        13
24.920        47
24.930        40
24.940        40
24.950        33
24.960        40
24.970        27
24.980        13
24.990        33
25.000        20
25.010        60
25.020        40
25.030         7
25.040        27
25.050        33
25.060         0
25.070        13
25.080        80
25.090        27
25.100        27
25.110        20
25.120        27
25.130        40
25.140        40
25.150        33
25.160         7
25.170        13
25.180        27
25.190        67
25.200        33
25.210        53
25.220        33
25.230        13
25.240        53
25.250        20
25.260        40
25.270        40
25.280        40
25.290        67
25.300        33
25.310        13
25.320        27
25.330        27
25.340        60
25.350        40
25.360        47
25.370        27
25.380        33
25.390        53
25.400        33
25.410        40
25.420        40
25.430        47
25.440        33
25.450        33
25.460        20
25.470        40
25.480        33
25.490        33
25.500        40
25.510        27
25.520         7
25.530        33
25.540        20
25.550        33
25.560         7
25.570        33
25.580        60
25.590        60
25.600        13
25.610        40
25.620        13
25.630        20
25.640        33
25.650        33
25.660        27
25.670         7
25.680        40
25.690        33
25.700        20
25.710        13
25.720        27
25.730        53
25.740        33
25.750        13
25.760        27
25.770        33
25.780        40
25.790        20
25.800        20
25.810        40
25.820        27
25.830        20
25.840         0
25.850        27
25.860        40
25.870        27
25.880        20
25.890        20
25.900        20
25.910        27
25.920        47
25.930        27
25.940        20
25.950        40
25.960        33
25.970        27
25.980        27
25.990        27
26.000        13
26.010        27
26.020        33
26.030        20
26.040        20
26.050        47
26.060        20
26.070        13
26.080        40
26.090        33
26.100        53
26.110        13
26.120        27
26.130        40
26.140        40
26.150        33
26.160        40
26.170        13
26.180        13
26.190        47
26.200        13
26.210        40
26.220        27
26.230        33
26.240        20
26.250        47
26.260        20
26.270        40
26.280        53
26.290        27
26.300        47
26.310        33
26.320        33
26.330        47
26.340        20
26.350        27
26.360        33
26.370        13
26.380        60
26.390        40
26.400        27
26.410        40
26.420        20
26.430        33
26.440        47
26.450        53
26.460        53
26.470        47
26.480        53
26.490        33
26.500        33
26.510        13
26.520        40
26.530        53
26.540        20
26.550        20
26.560        33
26.570        27
26.580        27
26.590        33
26.600        27
26.610        27
26.620        33
26.630        20
26.640        33
26.650        20
26.660        40
26.670        33
26.680        40
26.690        33
26.700        47
26.710        47
26.720        33
26.730        40
26.740        13
26.750        33
26.760        13
26.770        13
26.780        33
26.790        27
26.800         7
26.810         0
26.820        27
26.830        40
26.840        60
26.850        53
26.860        33
26.870        27
26.880        40
26.890         7
26.900        27
26.910        13
26.920        33
26.930        33
26.940        20
26.950        27
26.960        27
26.970        20
26.980        27
26.990        40
27.000        47
27.010        33
27.020        13
27.030        47
27.040        13
27.050        13
27.060        33
27.070        33
27.080         7
27.090        13
27.100        20
27.110        33
27.120        47
27.130         7
27.140        13
27.150        33
27.160        27
27.170        27
27.180        27
27.190        20
27.200        13
27.210        40
27.220        20
27.230        13
27.240        33
27.250        33
27.260        53
27.270        27
27.280        27
27.290        33
27.300        40
27.310        33
27.320        13
27.330        33
27.340        33
27.350         7
27.360        20
27.370        20
27.380        33
27.390        47
27.400        33
27.410        33
27.420        60
27.430        60
27.440        20
27.450        40
27.460        13
27.470        40
27.480        27
27.490        40
27.500        27
27.510        13
27.520        27
27.530        27
27.540        27
27.550        47
27.560        20
27.570        27
27.580        20
27.590        20
27.600        27
27.610        20
27.620        47
27.630        40
27.640        47
27.650        40
27.660        13
27.670        33
27.680         7
27.690        20
27.700        20
27.710        47
27.720        33
27.730        20
27.740        47
27.750        40
27.760        47
27.770        40
27.780        27
27.790        13
27.800        53
27.810        13
27.820        33
27.830        33
27.840        20
27.850        13
27.860        87
27.870        27
27.880        53
27.890        33
27.900        47
27.910        33
27.920        40
27.930        33
27.940        27
27.950        67
27.960        33
27.970        47
27.980        40
27.990        33
28.000        67
28.010        40
28.020        20
28.030        53
28.040        33
28.050        53
28.060         7
28.070        40
28.080        33
28.090        27
28.100        27
28.110        27
28.120        27
28.130        40
28.140        33
28.150        27
28.160        40
28.170        27
28.180        27
28.190        33
28.200        27
28.210        40
28.220        33
28.230         7
28.240         7
28.250        20
28.260        13
28.270        47
28.280        20
28.290        33
28.300        27
28.310        20
28.320        40
28.330        47
28.340        40
28.350         7
28.360        27
28.370        20
28.380        27
28.390        13
28.400        27
28.410        33
28.420        13
28.430        33
28.440        60
28.450        27
28.460        40
28.470        33
28.480        33
28.490        20
28.500        33
28.510         7
28.520        13
28.530        27
28.540        33
28.550        33
28.560        33
28.570        33
28.580        13
28.590        20
28.600        27
28.610        20
28.620        53
28.630        20
28.640        27
28.650        33
28.660        13
28.670        40
28.680        40
28.690         0
28.700        20
28.710        27
28.720        20
28.730        20
28.740        47
28.750        20
28.760        27
28.770        20
28.780        27
28.790        27
28.800        27
28.810        13
28.820        13
28.830        20
28.840        20
28.850        27
28.860        13
28.870        60
28.880        27
28.890        40
28.900        33
28.910        20
28.920        53
28.930        13
28.940        27
28.950        47
28.960        53
28.970        33
28.980        27
28.990        27
29.000        33
29.010        67
29.020        47
29.030        27
29.040        20
29.050        20
29.060        27
29.070        20
29.080        67
29.090        33
29.100        13
29.110        27
29.120        47
29.130        20
29.140        20
29.150        20
29.160        33
29.170        33
29.180        40
29.190        20
29.200        20
29.210        53
29.220        27
29.230        20
29.240        13
29.250        53
29.260        47
29.270        67
29.280        47
29.290        40
29.300        60
29.310        67
29.320        73
29.330        60
29.340        67
29.350        87
29.360        87
29.370        20
29.380        53
29.390        87
29.400        27
29.410        27
29.420        53
29.430        40
29.440        60
29.450        27
29.460        40
29.470        27
29.480        47
29.490        27
29.500        27
29.510        93
29.520        13
29.530        27
29.540        20
29.550        13
29.560        13
29.570        33
29.580        13
29.590        40
29.600        27
29.610        53
29.620        27
29.630         7
29.640        27
29.650        33
29.660        33
29.670        27
29.680        20
29.690        33
29.700        13
29.710        33
29.720        13
29.730        33
29.740        27
29.750        33
29.760         7
29.770        13
29.780        27
29.790        27
29.800        33
29.810        27
29.820        33
29.830        33
29.840        27
29.850        47
29.860        13
29.870        47
29.880        20
29.890        40
29.900        47
29.910        13
29.920        20
29.930        27
29.940        47
29.950        20
29.960         0
29.970        53
29.980        33
29.990        13
30.000        27
30.010        87
30.020        47
30.030        27
30.040        27
30.050        67
30.060        47
30.070        20
30.080        27
30.090        13
30.100        27
30.110        47
30.120        67
30.130        53
30.140        47
30.150        73
30.160        67
30.170        13
30.180        60
30.190        47
30.200        40
30.210        20
30.220        40
30.230        53
30.240        40
30.250        40
30.260        40
30.270        27
30.280        67
30.290        27
30.300        13
30.310        40
30.320         7
30.330        27
30.340        33
30.350        27
30.360        33
30.370        27
30.380        67
30.390        53
30.400        53
30.410        33
30.420        40
30.430        80
30.440        53
30.450        20
30.460        27
30.470        27
30.480        40
30.490        33
30.500        53
30.510        67
30.520        27
30.530        33
30.540        40
30.550        40
30.560        67
30.570        47
30.580        53
30.590        73
30.600        47
30.610        53
30.620        60
30.630        40
30.640        93
30.650        40
30.660        67
30.670        67
30.680        53
30.690        80
30.700       113
30.710        53
30.720        80
30.730       107
30.740       107
30.750       153
30.760       120
30.770       173
30.780       160
30.790       233
30.800       227
30.810       227
30.820       240
30.830       420
30.840       400
30.850       460
30.860       493
30.870       493
30.880       606
30.890       746
30.900       833
30.910      1013
30.920      1046
30.930      1353
30.940      1506
30.950      1839
30.960      1999
30.970      2566
30.980      2632
30.990      2859
31.000      2959
31.010      3272
31.020      3172
31.030      3545
31.040      3139
31.050      2752
31.060      2739
31.070      2286
31.080      2339
31.090      1926
31.100      1833
31.110      1606
31.120      1426
31.130      1293
31.140       800
31.150       646
31.160       560
31.170       553
31.180       400
31.190       333
31.200       247
31.210       173
31.220       220
31.230       207
31.240       107
31.250        93
31.260       127
31.270        80
31.280       100
31.290        53
31.300        67
31.310        53
31.320        40
31.330        53
31.340        87
31.350        73
31.360        73
31.370        73
31.380        47
31.390        33
31.400        60
31.410        33
31.420        60
31.430        53
31.440        33
31.450        73
31.460        67
31.470        67
31.480        60
31.490        67
31.500        33
31.510        40
31.520        47
31.530        87
31.540        67
31.550        40
31.560        33
31.570        13
31.580        47
31.590        60
31.600        20
31.610        67
31.620        67
31.630        27
31.640        47
31.650        40
31.660        40
31.670        60
31.680         0
31.690        53
31.700        27
31.710        67
31.720        13
31.730        13
31.740        27
31.750        27
31.760        40
31.770        53
31.780        33
31.790        47
31.800        33
31.810        27
31.820        60
31.830        40
31.840        33
31.850        73
31.860        40
31.870        40
31.880        47
31.890        13
31.900        13
31.910        27
31.920        47
31.930        60
31.940        13
31.950        20
31.960         7
31.970        40
31.980        27
31.990        20
32.000        20
32.010        33
32.020        20
32.030        27
32.040        40
32.050        13
32.060        27
32.070        20
32.080        13
32.090        33
32.100        13
32.110        13
32.120        27
32.130        40
32.140        47
32.150        33
32.160         7
32.170        20
32.180        27
32.190        60
32.200        40
32.210         0
32.220        60
32.230        20
32.240        33
32.250        27
32.260        27
32.270        20
32.280        27
32.290        27
32.300        33
32.310        13
32.320        27
32.330        40
32.340        27
32.350        20
32.360        47
32.370        13
32.380        20
32.390        40
32.400        33
32.410         7
32.420        13
32.430        27
32.440        53
32.450        20
32.460        20
32.470        60
32.480        27
32.490        53
32.500        27
32.510        13
32.520        20
32.530        60
32.540        27
32.550        33
32.560        27
32.570        27
32.580        20
32.590        27
32.600        53
32.610        33
32.620        33
32.630        53
32.640        40
32.650        40
32.660        13
32.670        60
32.680        33
32.690        20
32.700        27
32.710        33
32.720        33
32.730        47
32.740        20
32.750        27
32.760        27
32.770        27
32.780        40
32.790        20
32.800        13
32.810        40
32.820        13
32.830        33
32.840        33
32.850        47
32.860        33
32.870        13
32.880        20
32.890         0
32.900        80
32.910        27
32.920        20
32.930        20
32.940        20
32.950        20
32.960        27
32.970        20
32.980        27
32.990        40
33.000        40
33.010        47
33.020        27
33.030        27
33.040        47
33.050        20
33.060        40
33.070        20
33.080        20
33.090        20
33.100        33
33.110         7
33.120        33
33.130        40
33.140        13
33.150        27
33.160        13
33.170        27
33.180        47
33.190         7
33.200         7
33.210        40
33.220        53
33.230        47
33.240        53
33.250        33
33.260        40
33.270        33
33.280        13
33.290        13
33.300        40
33.310        27
33.320        33
33.330        40
33.340        27
33.350         7
33.360        27
33.370        13
33.380         7
33.390        20
33.400        20
33.410        20
33.420        20
33.430        40
33.440        13
33.450        33
33.460        47
33.470        20
33.480         0
33.490         7
33.500        27
33.510        27
33.520        33
33.530        40
33.540        53
33.550        53
33.560        20
33.570        33
33.580        27
33.590        27
33.600        13
33.610        53
33.620        33
33.630        33
33.640        20
33.650        33
33.660        27
33.670        27
33.680        33
33.690        13
33.700        20
33.710        33
33.720        33
33.730        40
33.740        33
33.750        20
33.760        20
33.770         7
33.780        33
33.790        27
33.800        27
33.810        47
33.820        13
33.830        13
33.840        27
33.850        40
33.860        20
33.870        33
33.880        47
33.890        40
33.900        47
33.910        67
33.920        33
33.930        33
33.940        20
33.950        47
33.960        13
33.970        20
33.980        27
33.990        27
34.000        47
34.010         7
34.020        20
34.030        27
34.040        13
34.050        20
34.060        20
34.070        20
34.080        27
34.090        20
34.100        27
34.110        40
34.120        13
34.130        13
34.140         7
34.150        27
34.160        20
34.170        33
34.180        20
34.190        13
34.200        27
34.210        20
34.220        27
34.230        33
34.240        40
34.250        20
34.260        20
34.270        33
34.280         0
34.290        33
34.300        33
34.310        33
34.320        27
34.330        13
34.340        13
34.350        33
34.360        53
34.370        33
34.380        33
34.390        67
34.400        53
34.410        53
34.420        33
34.430        53
34.440         7
34.450         7
34.460         7
34.470        33
34.480        40
34.490        27
34.500        47
34.510        13
34.520        27
34.530        27
34.540        40
34.550        27
34.560        20
34.570        27
34.580        13
34.590        40
34.600        40
34.610        53
34.620        27
34.630         7
34.640        33
34.650        20
34.660         0
34.670        33
34.680        47
34.690        27
34.700         7
34.710        20
34.720        20
34.730        33
34.740        13
34.750        33
34.760        27
34.770        13
34.780         0
34.790        20
34.800        20
34.810        33
34.820        27
34.830        20
34.840        33
34.850         7
34.860        27
34.870        20
34.880        33
34.890         7
34.900        27
34.910         7
34.920        20
34.930        40
34.940        47
34.950        13
34.960        20
34.970        20
34.980        33
34.990        27
35.000         7
35.010        27
35.020        13
35.030        20
35.040         7
35.050        47
35.060        33
35.070        20
35.080        20
35.090        47
35.100        60
35.110        33
35.120        33
35.130        27
35.140        53
35.150        87
35.160       113
35.170       133
35.180       173
35.190       153
35.200       133
35.210        80
35.220        67
35.230        47
35.240        73
35.250        73
35.260        87
35.270        80
35.280        93
35.290        93
35.300        47
35.310        60
35.320        40
35.330        27
35.340        20
35.350        53
35.360        27
35.370        33
35.380        80
35.390        13
35.400        47
35.410        33
35.420        27
35.430        13
35.440        27
35.450        13
35.460        40
35.470         7
35.480        40
35.490        27
35.500        13
35.510        20
35.520        20
35.530        20
35.540        47
35.550        20
35.560        20
35.570        20
35.580        13
35.590        53
35.600        20
35.610        33
35.620        20
35.630        33
35.640         7
35.650        40
35.660        20
35.670        40
35.680         7
35.690        13
35.700        13
35.710        27
35.720        40
35.730        40
35.740        27
35.750        13
35.760        40
35.770        33
35.780        20
35.790         7
35.800        13
35.810        13
35.820        13
35.830        13
35.840        20
35.850        47
35.860        27
35.870        27
35.880        47
35.890        33
35.900        40
35.910        33
35.920        33
35.930        33
35.940        27
35.950        53
35.960        60
35.970        13
35.980        47
35.990        47
36.000        13
36.010        47
36.020        33
36.030         7
36.040        33
36.050        40
36.060        20
36.070        33
36.080        47
36.090        33
36.100        27
36.110        20
36.120        20
36.130        27
36.140        13
36.150        20
36.160        27
36.170        13
36.180        33
36.190        20
36.200        40
36.210        13
36.220        27
36.230        13
36.240        20
36.250        20
36.260        33
36.270        47
36.280         0
36.290        13
36.300        20
36.310        33
36.320        13
36.330        20
36.340        33
36.350         0
36.360        47
36.370         0
36.380        40
36.390         7
36.400        27
36.410        27
36.420        47
36.430        13
36.440        67
36.450        27
36.460        33
36.470        20
36.480        13
36.490        40
36.500        20
36.510         7
36.520        20
36.530        13
36.540        27
36.550         7
36.560        20
36.570         7
36.580        13
36.590        13
36.600        33
36.610        13
36.620        27
36.630        53
36.640        40
36.650        33
36.660        33
36.670         0
36.680        20
36.690        27
36.700        20
36.710        33
36.720        33
36.730        33
36.740        33
36.750        40
36.760        13
36.770        20
36.780        33
36.790        33
36.800        13
36.810        13
36.820        13
36.830        33
36.840        27
36.850        13
36.860        27
36.870        47
36.880        33
36.890        27
36.900         7
36.910        27
36.920         7
36.930        27
36.940        13
36.950        33
36.960        27
36.970        60
36.980         7
36.990        20
37.000        27
37.010        20
37.020        27
37.030        40
37.040        60
37.050        13
37.060        33
37.070        20
37.080         0
37.090        33
37.100        27
37.110        20
37.120        20
37.130        13
37.140        13
37.150        47
37.160        47
37.170        47
37.180        13
37.190        20
37.200        20
37.210        20
37.220         0
37.230        27
37.240        20
37.250        53
37.260        33
37.270         7
37.280        33
37.290        13
37.300        27
37.310        20
37.320        27
37.330        13
37.340         7
37.350        27
37.360        20
37.370         0
37.380         0
37.390        20
37.400        33
37.410         7
37.420        33
37.430        33
37.440        13
37.450         7
37.460        27
37.470        53
37.480        27
37.490        13
37.500        13
37.510        47
37.520        27
37.530        27
37.540        13
37.550        20
37.560        33
37.570        13
37.580        13
37.590        47
37.600        27
37.610        33
37.620        27
37.630        33
37.640        27
37.650        27
37.660        33
37.670        13
37.680         7
37.690        13
37.700        33
37.710        27
37.720        20
37.730        40
37.740        20
37.750        27
37.760        33
37.770        40
37.780        27
37.790        20
37.800        27
37.810        27
37.820         7
37.830        27
37.840        27
37.850        53
37.860        33
37.870        33
37.880        20
37.890        40
37.900        13
37.910        13
37.920        20
37.930         7
37.940         7
37.950        27
37.960        47
37.970        27
37.980        20
37.990        20
38.000        33
38.010        47
38.020        33
38.030        20
38.040         7
38.050        13
38.060        33
38.070         7
38.080        20
38.090        47
38.100        27
38.110        27
38.120        20
38.130        27
38.140        87
38.150        33
38.160        13
38.170        53
38.180        20
38.190        13
38.200        53
38.210        27
38.220        73
38.230        60
38.240        27
38.250        67
38.260        27
38.270         7
38.280        67
38.290        53
38.300        20
38.310        40
38.320        53
38.330        47
38.340        47
38.350        40
38.360        33
38.370        53
38.380        20
38.390        33
38.400        33
38.410        47
38.420        20
38.430         7
38.440        20
38.450        13
38.460         7
38.470        33
38.480        13
38.490        20
38.500        13
38.510        33
38.520        33
38.530        13
38.540        40
38.550        33
38.560        13
38.570        20
38.580        40
38.590        20
38.600        47
38.610        20
38.620        47
38.630        47
38.640        13
38.650        20
38.660        27
38.670        27
38.680        20
38.690        20
38.700        13
38.710        33
38.720        13
38.730        27
38.740        13
38.750        33
38.760        60
38.770        27
38.780        13
38.790        27
38.800        13
38.810        27
38.820        33
38.830         7
38.840        27
38.850        13
38.860        33
38.870        27
38.880        40
38.890        20
38.900        13
38.910        20
38.920        33
38.930        13
38.940        13
38.950        20
38.960        20
38.970        47
38.980        27
38.990        20
39.000        13
39.010        33
39.020        20
39.030        13
39.040        33
39.050        27
39.060        33
39.070        33
39.080        27
39.090        33
39.100        27
39.110        20
39.120         7
39.130        20
39.140        27
39.150        20
39.160        13
39.170        87
39.180        20
39.190        20
39.200        73
39.210        40
39.220        20
39.230        33
39.240        67
39.250        40
39.260        20
39.270        20
39.280        47
39.290        20
39.300        47
39.310        33
39.320        13
39.330        27
39.340        53
39.350        27
39.360        60
39.370        20
39.380        33
39.390        20
39.400        33
39.410        27
39.420        53
39.430        33
39.440        40
39.450        33
39.460        47
39.470        33
39.480        20
39.490        40
39.500        13
39.510        20
39.520        13
39.530        40
39.540        20
39.550        40
39.560        33
39.570        33
39.580        27
39.590        33
39.600         7
39.610        27
39.620        53
39.630         7
39.640        27
39.650        20
39.660        13
39.670        47
39.680        13
39.690        13
39.700        20
39.710        13
39.720        33
39.730        13
39.740         0
39.750        40
39.760        40
39.770        40
39.780         7
39.790         0
39.800        27
39.810         7
39.820        20
39.830         7
39.840         0
39.850         0
39.860         0
39.870         0
39.880        27
39.890        13
39.900         7
39.910        20
39.920        33
39.930        20
39.940        13
39.950        33
39.960        27
39.970        20
39.980        13
39.990        27
40.000        13
40.010        13
40.020        60
40.030        47
40.040        33
40.050        40
40.060        20
40.070        53
40.080         7
40.090        13
40.100        20
40.110        13
40.120        20
40.130        27
40.140        20
40.150        47
40.160        13
40.170         7
40.180        20
40.190        20
40.200         7
40.210         7
40.220         0
40.230        20
40.240         7
40.250        33
40.260        13
40.270         7
40.280        33
40.290        20
40.300        20
40.310        13
40.320        20
40.330        40
40.340        33
40.350        27
40.360        27
40.370         7
40.380        13
40.390         7
40.400         0
40.410         0
40.420         7
40.430         7
40.440        27
40.450        33
40.460        27
40.470        33
40.480        33
40.490        27
40.500        27
40.510        20
40.520        13
40.530        20
40.540        13
40.550        27
40.560        13
40.570        20
40.580        33
40.590        40
40.600        13
40.610        33
40.620        20
40.630        47
40.640        20
40.650        20
40.660        33
40.670         0
40.680        20
40.690         7
40.700        27
40.710         0
40.720         7
40.730        20
40.740        33
40.750        40
40.760        13
40.770        20
40.780        13
40.790        13
40.800        27
40.810        20
40.820         7
40.830        13
40.840        20
40.850        47
40.860        33
40.870        33
40.880        27
40.890        20
40.900         7
40.910        33
40.920        20
40.930        40
40.940        20
40.950        27
40.960        33
40.970        27
40.980        20
40.990        13
41.000        53
41.010        47
41.020        20
41.030        33
41.040        27
41.050        13
41.060        33
41.070        20
41.080        33
41.090        13
41.100        13
41.110        27
41.120        47
41.130        33
41.140        33
41.150        33
41.160         7
41.170        13
41.180        27
41.190        27
41.200        27
41.210        27
41.220        33
41.230        20
41.240         0
41.250        13
41.260        20
41.270        20
41.280         7
41.290         7
41.300         0
41.310        20
41.320        20
41.330         7
41.340        67
41.350        33
41.360        40
41.370        13
41.380        33
41.390         7
41.400        13
41.410        20
41.420         7
41.430        33
41.440        60
41.450        27
41.460        27
41.470        20
41.480         7
41.490        20
41.500        20
41.510        33
41.520        27
41.530        20
41.540        40
41.550         7
41.560        27
41.570        33
41.580        13
41.590        13
41.600        33
41.610        40
41.620         7
41.630         7
41.640        13
41.650        40
41.660        33
41.670        40
41.680       100
41.690        80
41.700        80
41.710        87
41.720        67
41.730        53
41.740        87
41.750        53
41.760        33
41.770        27
41.780        53
41.790        67
41.800        40
41.810        53
41.820        27
41.830        40
41.840        47
41.850        60
41.860        33
41.870        47
41.880        20
41.890        13
41.900         7
41.910         0
41.920        20
41.930        20
41.940        33
41.950        13
41.960        47
41.970        20
41.980        27
41.990         7
42.000        33
42.010         7
42.020        27
42.030        40
42.040        13
42.050         7
42.060        13
42.070        13
42.080        20
42.090        27
42.100        27
42.110        13
42.120        13
42.130        13
42.140        13
42.150         7
42.160        20
42.170        60
42.180        40
42.190        27
42.200         0
42.210         7
42.220        33
42.230        33
42.240         7
42.250        27
42.260        27
42.270        13
42.280        13
42.290        33
42.300        13
42.310        13
42.320        13
42.330         7
42.340        27
42.350        20
42.360        33
42.370        20
42.380        33
42.390        33
42.400        27
42.410        40
42.420        40
42.430        27
42.440         7
42.450        27
42.460        27
42.470         7
42.480         7
42.490        13
42.500        33
42.510        33
42.520        13
42.530        13
42.540        20
42.550        13
42.560        33
42.570        53
42.580        13
42.590        20
42.600        33
42.610        33
42.620        20
42.630         7
42.640        27
42.650        13
42.660        27
42.670        13
42.680        20
42.690        13
42.700        47
42.710        47
42.720        20
42.730        13
42.740        20
42.750        20
42.760        47
42.770        13
42.780        20
42.790        20
42.800        20
42.810        13
42.820        27
42.830        13
42.840        53
42.850        33
42.860         7
42.870        20
42.880         0
42.890        13
42.900        33
42.910        47
42.920         7
42.930        40
42.940        40
42.950        27
42.960        13
42.970        33
42.980        20
42.990        27
43.000         0
43.010        20
43.020        13
43.030        27
43.040        27
43.050        40
43.060        53
43.070        27
43.080        27
43.090        20
43.100        33
43.110        33
43.120        47
43.130        33
43.140        40
43.150        27
43.160        27
43.170        27
43.180        40
43.190        27
43.200        53
43.210        33
43.220        40
43.230         7
43.240        27
43.250        20
43.260        13
43.270        13
43.280        27
43.290        33
43.300        27
43.310        13
43.320        20
43.330        40
43.340        20
43.350        47
43.360        20
43.370        33
43.380        60
43.390        53
43.400        67
43.410       107
43.420        93
43.430       113
43.440        60
43.450        80
43.460        93
43.470        47
43.480        47
43.490        60
43.500        60
43.510        40
43.520        67
43.530        87
43.540        53
43.550        47
43.560        47
43.570        73
43.580        67
43.590        13
43.600        27
43.610        13
43.620        27
43.630        20
43.640         7
43.650        13
43.660        13
43.670        20
43.680        20
43.690        20
43.700        27
43.710         7
43.720        47
43.730        40
43.740        27
43.750        13
43.760        40
43.770        13
43.780        13
43.790        27
43.800        33
43.810         7
43.820        20
43.830        13
43.840        27
43.850        13
43.860        47
43.870        40
43.880         7
43.890        33
43.900        20
43.910        20
43.920        40
43.930        33
43.940        20
43.950        40
43.960        33
43.970        13
43.980        33
43.990        13
44.000         7
44.010         0
44.020        13
44.030        20
44.040        33
44.050        13
44.060        13
44.070        47
44.080        13
44.090        13
44.100        33
44.110        33
44.120        40
44.130        33
44.140         7
44.150        47
44.160         7
44.170        27
44.180        20
44.190        27
44.200        33
44.210         7
44.220        40
44.230        33
44.240        60
44.250        27
44.260        13
44.270        33
44.280        33
44.290        27
44.300        60
44.310        40
44.320        47
44.330        40
44.340        33
44.350        87
44.360        67
44.370        53
44.380        67
44.390        73
44.400        40
44.410       100
44.420        73
44.430        87
44.440        73
44.450        53
44.460        33
44.470        73
44.480        53
44.490        67
44.500       127
44.510        53
44.520       127
44.530        53
44.540        60
44.550        47
44.560        87
44.570        53
44.580        73
44.590       133
44.600        67
44.610        53
44.620        20
44.630        20
44.640        60
44.650        13
44.660        40
44.670        13
44.680        33
44.690        87
44.700        67
44.710        13
44.720        40
44.730        20
44.740         7
44.750        20
44.760        13
44.770        27
44.780        27
44.790        13
44.800        27
44.810        40
44.820        40
44.830        27
44.840        27
44.850        47
44.860        33
44.870        13
44.880        20
44.890        33
44.900        47
44.910         7
44.920        27
44.930        33
44.940        33
44.950        20
44.960        13
44.970        20
44.980        20
44.990        40
45.000        13
45.010        27
45.020        27
45.030         7
45.040        20
45.050        20
45.060        13
45.070        13
45.080        33
45.090        20
45.100        40
45.110         7
45.120        20
45.130        20
45.140        40
45.150        20
45.160        20
45.170         7
45.180         7
45.190        13
45.200        13
45.210        33
45.220        20
45.230        20
45.240        27
45.250        13
45.260        13
45.270        20
45.280         7
45.290         7
45.300        33
45.310        40
45.320         7
45.330        20
45.340        13
45.350        40
45.360        33
45.370        20
45.380         7
45.390        33
45.400        27
45.410        13
45.420        27
45.430        27
45.440        20
45.450         7
45.460        20
45.470        13
45.480         7
45.490        20
45.500        27
45.510        20
45.520        27
45.530        20
45.540        47
45.550        13
45.560         7
45.570         7
45.580        20
45.590        53
45.600        47
45.610        33
45.620        13
45.630        47
45.640        20
45.650        27
45.660        33
45.670        13
45.680        47
45.690        13
45.700        33
45.710        27
45.720        33
45.730        33
45.740        20
45.750        33
45.760        20
45.770         7
45.780        20
45.790         7
45.800        27
45.810         0
45.820        47
45.830        20
45.840         0
45.850        40
45.860        13
45.870        13
45.880        13
45.890        27
45.900        20
45.910        33
45.920        47
45.930        13
45.940        33
45.950        27
45.960        20
45.970         7
45.980        27
45.990        20
46.000        27
46.010        20
46.020        33
46.030        13
46.040        20
46.050        20
46.060         7
46.070         7
46.080        27
46.090        13
46.100        33
46.110        33
46.120        13
46.130         7
46.140        20
46.150        20
46.160        33
46.170        20
46.180         7
46.190        27
46.200        13
46.210        20
46.220        27
46.230        20
46.240        13
46.250        13
46.260        33
46.270        13
46.280        27
46.290        40
46.300         0
46.310        33
46.320        40
46.330        40
46.340        13
46.350        27
46.360        27
46.370        20
46.380        20
46.390        27
46.400        40
46.410        13
46.420        13
46.430        47
46.440        33
46.450        20
46.460         7
46.470         7
46.480        27
46.490        20
46.500        20
46.510        27
46.520        20
46.530        20
46.540        40
46.550        13
46.560        40
46.570        13
46.580         7
46.590        13
46.600        40
46.610        33
46.620         7
46.630        33
46.640        20
46.650        47
46.660        27
46.670        20
46.680        33
46.690         7
46.700        40
46.710        40
46.720        27
46.730        13
46.740        27
46.750        27
46.760         7
46.770         7
46.780        27
46.790        40
46.800        20
46.810        33
46.820        13
46.830        20
46.840         7
46.850        20
46.860        27
46.870         7
46.880        13
46.890        13
46.900        13
46.910         7
46.920        13
46.930        20
46.940        27
46.950        20
46.960        13
46.970        13
46.980        20
46.990        20
47.000        13
47.010        27
47.020        40
47.030         7
47.040        27
47.050        40
47.060        33
47.070        40
47.080         7
47.090         7
47.100        20
47.110        20
47.120        13
47.130        27
47.140        27
47.150        27
47.160        20
47.170        47
47.180        40
47.190        13
47.200        20
47.210        33
47.220        40
47.230        53
47.240        13
47.250        13
47.260        13
47.270        27
47.280        27
47.290        40
47.300        47
47.310        27
47.320        20
47.330        27
47.340        27
47.350        13
47.360        20
47.370        47
47.380        33
47.390        20
47.400        33
47.410        33
47.420        33
47.430        33
47.440        40
47.450        40
47.460        13
47.470        33
47.480        33
47.490        20
47.500        73
47.510        40
47.520         7
47.530        20
47.540        20
47.550        53
47.560        20
47.570        13
47.580        20
47.590        27
47.600         7
47.610        33
47.620        20
47.630        20
47.640        20
47.650        20
47.660        20
47.670         7
47.680        20
47.690         7
47.700        47
47.710        20
47.720         0
47.730        33
47.740        13
47.750         7
47.760        40
47.770        27
47.780        40
47.790        33
47.800        33
47.810         7
47.820        27
47.830         0
47.840         7
47.850        27
47.860        20
47.870         7
47.880        33
47.890        20
47.900        60
47.910        20
47.920        33
47.930        13
47.940        40
47.950         0
47.960        33
47.970         7
47.980        13
47.990        13
48.000        20
48.010        13
48.020        20
48.030        27
48.040        13
48.050        13
48.060        13
48.070        40
48.080         7
48.090        20
48.100        40
48.110        27
48.120        20
48.130        13
48.140        20
48.150        20
48.160        27
48.170        27
48.180        40
48.190        27
48.200         7
48.210        13
48.220        13
48.230        53
48.240        13
48.250        13
48.260         7
48.270        27
48.280        27
48.290        27
48.300        13
48.310        20
48.320        13
48.330         7
48.340        47
48.350         7
48.360        13
48.370        27
48.380        27
48.390        60
48.400        47
48.410        53
48.420        67
48.430        73
48.440        40
48.450        27
48.460        40
48.470         7
48.480        13
48.490        53
48.500        20
48.510        27
48.520        13
48.530        33
48.540        47
48.550        27
48.560        33
48.570        33
48.580        20
48.590        20
48.600        60
48.610        13
48.620        20
48.630        27
48.640        13
48.650        40
48.660        33
48.670         7
48.680        13
48.690        27
48.700        20
48.710        20
48.720        20
48.730        20
48.740        20
48.750        20
48.760        27
48.770         0
48.780         0
48.790        20
48.800        27
48.810        27
48.820        27
48.830        13
48.840         7
48.850        27
48.860        13
48.870         7
48.880        13
48.890        20
48.900         7
48.910        20
48.920        40
48.930        33
48.940        40
48.950         0
48.960        13
48.970        40
48.980        13
48.990         7
49.000        40
49.010         7
49.020        27
49.030         7
49.040         7
49.050        13
49.060        20
49.070        27
49.080        13
49.090         7
49.100         0
49.110        20
49.120        13
49.130         0
49.140        20
49.150        13
49.160        33
49.170        20
49.180        13
49.190        20
49.200        13
49.210        33
49.220        33
49.230        33
49.240        20
49.250        20
49.260         7
49.270         7
49.280         0
49.290        13
49.300        20
49.310        27
49.320        40
49.330        13
49.340        20
49.350        20
49.360        33
49.370        20
49.380        27
49.390        33
49.400         7
49.410        33
49.420        27
49.430        13
49.440        13
49.450         7
49.460        13
49.470        20
49.480         0
49.490        27
49.500        13
49.510        20
49.520        13
49.530        20
49.540        13
49.550        13
49.560        47
49.570        13
49.580        33
49.590         7
49.600        27
49.610         7
49.620        33
49.630        13
49.640        13
49.650        20
49.660        13
49.670        20
49.680         7
49.690         7
49.700        27
49.710         0
49.720        20
49.730        20
49.740        27
49.750         7
49.760        20
49.770        13
49.780        13
49.790         7
49.800        40
49.810         7
49.820        40
49.830         7
49.840        13
49.850        20
49.860         7
49.870        20
49.880        13
49.890         7
49.900         0
49.910        20
49.920        20
49.930        33
49.940        20
49.950         7
49.960        27
49.970        33
49.980        20
49.990        33
50.000        27
50.010        13
50.020        27
50.030         7
50.040        20
50.050        13
50.060        27
50.070        40
50.080        33
50.090        27
50.100         7
50.110        13
50.120        13
50.130        13
50.140         7
50.150        13
50.160        13
50.170        27
50.180        53
50.190        33
50.200        33
50.210        13
50.220        27
50.230        13
50.240        27
50.250        27
50.260        27
50.270        27
50.280        13
50.290        13
50.300        20
50.310         7
50.320         7
50.330        13
50.340        33
50.350        13
50.360        33
50.370        27
50.380        20
50.390         7
50.400        13
50.410        40
50.420         7
50.430         0
50.440        20
50.450        13
50.460        20
50.470         7
50.480         0
50.490         7
50.500        13
50.510        33
50.520         7
50.530        20
50.540        27
50.550        27
50.560         7
50.570        13
50.580        13
50.590        33
50.600        13
50.610        40
50.620        40
50.630        13
50.640        27
50.650        13
50.660        40
50.670         7
50.680        20
50.690        27
50.700        20
50.710        40
50.720        20
50.730         7
50.740        13
50.750        40
50.760        13
50.770        33
50.780        33
50.790         7
50.800        13
50.810        13
50.820        47
50.830        60
50.840        20
50.850        20
50.860        13
50.870        33
50.880         7
50.890        13
50.900        27
50.910         7
50.920        40
50.930         7
50.940        20
50.950        27
50.960        13
50.970        20
50.980        13
50.990        20
51.000        20
51.010        27
51.020        40
51.030        27
51.040        33
51.050         7
51.060        27
51.070        27
51.080        27
51.090         0
51.100        27
51.110         0
51.120        27
51.130        20
51.140        13
51.150         7
51.160         7
51.170         7
51.180         7
51.190        13
51.200        27
51.210         7
51.220        20
51.230         7
51.240        13
51.250         7
51.260        27
51.270        20
51.280        20
51.290         7
51.300        20
51.310         7
51.320         7
51.330        20
51.340         7
51.350        13
51.360        13
51.370         0
51.380        20
51.390        20
51.400        27
51.410        33
51.420         7
51.430         7
51.440        13
51.450        20
51.460        33
51.470         7
51.480        13
51.490        27
51.500        20
51.510        20
51.520        27
51.530        20
51.540        40
51.550        20
51.560        27
51.570         7
51.580         7
51.590        13
51.600        20
51.610        13
51.620        20
51.630        13
51.640        20
51.650        27
51.660        27
51.670        33
51.680        27
51.690        33
51.700         7
51.710        27
51.720         0
51.730        20
51.740        27
51.750         7
51.760         7
51.770        13
51.780         7
51.790        27
51.800         7
51.810        20
51.820        27
51.830         0
51.840         7
51.850         7
51.860         7
51.870        40
51.880        20
51.890        27
51.900        20
51.910        20
51.920        13
51.930        13
51.940        20
51.950        27
51.960         7
51.970         7
51.980        27
51.990         7
52.000         0
52.010        20
52.020         7
52.030        13
52.040         0
52.050        27
52.060        20
52.070        33
52.080        20
52.090        20
52.100        27
52.110        27
52.120        20
52.130         7
52.140        40
52.150         7
52.160        13
52.170        27
52.180        20
52.190         7
52.200        47
52.210        20
52.220        13
52.230        20
52.240         7
52.250         7
52.260         7
52.270        20
52.280        20
52.290        13
52.300        20
52.310        20
52.320         7
52.330        33
52.340        33
52.350        13
52.360        13
52.370        13
52.380        20
52.390        20
52.400        13
52.410        27
52.420        27
52.430        27
52.440         7
52.450        13
52.460        27
52.470         7
52.480        27
52.490         7
52.500        20
52.510        13
52.520        13
52.530        13
52.540        20
52.550        40
52.560        13
52.570        13
52.580        27
52.590        27
52.600        20
52.610        33
52.620        27
52.630        13
52.640        13
52.650        20
52.660        13
52.670         7
52.680         7
52.690         7
52.700        13
52.710        40
52.720        33
52.730        20
52.740        13
52.750        27
52.760        27
52.770        20
52.780        13
52.790        13
52.800        27
52.810        27
52.820        13
52.830         7
52.840        20
52.850        20
52.860        13
52.870         7
52.880        27
52.890        13
52.900        20
52.910        33
52.920         0
52.930        20
52.940        20
52.950        20
52.960        27
52.970         7
52.980        20
52.990         7
53.000        47
53.010        20
53.020        27
53.030        33
53.040        20
53.050        20
53.060         7
53.070        20
53.080        27
53.090        20
53.100        27
53.110        20
53.120         7
53.130        13
53.140        20
53.150        33
53.160         0
53.170        27
53.180        13
53.190         7
53.200         7
53.210        20
53.220        27
53.230         0
53.240        20
53.250        40
53.260        13
53.270         7
53.280        13
53.290        13
53.300         0
53.310         7
53.320        13
53.330        20
53.340        47
53.350        27
53.360        13
53.370        13
53.380         7
53.390         7
53.400        20
53.410        20
53.420        13
53.430        13
53.440        13
53.450        40
53.460        20
53.470        33
53.480        27
53.490        13
53.500        13
53.510        13
53.520        27
53.530        27
53.540        13
53.550        20
53.560        20
53.570        47
53.580        20
53.590        20
53.600         0
53.610        13
53.620        13
53.630        27
53.640        20
53.650        27
53.660        27
53.670        27
53.680         7
53.690        20
53.700        20
53.710         7
53.720        27
53.730        20
53.740        13
53.750        13
53.760        20
53.770         7
53.780        20
53.790         0
53.800        13
53.810        13
53.820         7
53.830        13
53.840        27
53.850         7
53.860        33
53.870        13
53.880        27
53.890        13
53.900         7
53.910         7
53.920        13
53.930        33
53.940        20
53.950        20
53.960        13
53.970         7
53.980         7
53.990        40
54.000        27
54.010         7
54.020        13
54.030        13
54.040        20
54.050         7
54.060        13
54.070         7
54.080        20
54.090         0
54.100         7
54.110        27
54.120        13
54.130        13
54.140         7
54.150        20
54.160         0
54.170         7
54.180        13
54.190        20
54.200        20
54.210         7
54.220        20
54.230        33
54.240         7
54.250         0
54.260        33
54.270         7
54.280        13
54.290         7
54.300        13
54.310        27
54.320        27
54.330         7
54.340        33
54.350        20
54.360        13
54.370        13
54.380         7
54.390         7
54.400         7
54.410        13
54.420        20
54.430        20
54.440        20
54.450        13
54.460        13
54.470        33
54.480        33
54.490        20
54.500        27
54.510        20
54.520        27
54.530         7
54.540         0
54.550        27
54.560        13
54.570        27
54.580         0
54.590        20
54.600        20
54.610        20
54.620        27
54.630        20
54.640        20
54.650        33
54.660         0
54.670         7
54.680        13
54.690        13
54.700        20
54.710        27
54.720         0
54.730        20
54.740         7
54.750        53
54.760         7
54.770        27
54.780         7
54.790        33
54.800        27
54.810         7
54.820        20
54.830         0
54.840        33
54.850        20
54.860        40
54.870        27
54.880         0
54.890        33
54.900        33
54.910        27
54.920         7
54.930        20
54.940        20
54.950        27
54.960        40
54.970        33
54.980        40
54.990        20
55.000        47
55.010        33
55.020        53
55.030        80
55.040        80
55.050        27
55.060        60
55.070        47
55.080       113
55.090        73
55.100        60
55.110        87
55.120        93
55.130       113
55.140       140
55.150       140
55.160       140
55.170       127
55.180       133
55.190       100
55.200        80
55.210        80
55.220       107
55.230       107
55.240       100
55.250        67
55.260       100
55.270        67
55.280        47
55.290       120
55.300        27
55.310        27
55.320        47
55.330        67
55.340        80
55.350        20
55.360        33
55.370        73
55.380        47
55.390        73
55.400        40
55.410        33
55.420        20
55.430        33
55.440        20
55.450        27
55.460        27
55.470        53
55.480        47
55.490        20
55.500        27
55.510        20
55.520        27
55.530        40
55.540        33
55.550        33
55.560        47
55.570         7
55.580        27
55.590        13
55.600        20
55.610        33
55.620        13
55.630        27
55.640        27
55.650        33
55.660         7
55.670        27
55.680        20
55.690         7
55.700        20
55.710        20
55.720        20
55.730         7
55.740         7
55.750         0
55.760        27
55.770        33
55.780        20
55.790        20
55.800        20
55.810        27
55.820         0
55.830        20
55.840        13
55.850         7
55.860         0
55.870        27
55.880        40
55.890        33
55.900        13
55.910        20
55.920        13
55.930        27
55.940        27
55.950        20
55.960         7
55.970         7
55.980        27
55.990         7
56.000        20
56.010         7
56.020        20
56.030        13
56.040         7
56.050        20
56.060        27
56.070        20
56.080         7
56.090         7
56.100        20
56.110        13
56.120        20
56.130        20
56.140        27
56.150        13
56.160         7
56.170        40
56.180         7
56.190        20
56.200        13
56.210        27
56.220        20
56.230        13
56.240        13
56.250        33
56.260        20
56.270        33
56.280         7
56.290         7
56.300        20
56.310        13
56.320        13
56.330        33
56.340        40
56.350        20
56.360        13
56.370        13
56.380        27
56.390        27
56.400         7
56.410        20
56.420         7
56.430         0
56.440        20
56.450        13
56.460        27
56.470        27
56.480        33
56.490        27
56.500         7
56.510        13
56.520        27
56.530         7
56.540        47
56.550        27
56.560        53
56.570        27
56.580        27
56.590        33
56.600        27
56.610        20
56.620        47
56.630        20
56.640        27
56.650        20
56.660        53
56.670         7
56.680         7
56.690        40
56.700        20
56.710        13
56.720        27
56.730        20
56.740        20
56.750        27
56.760         7
56.770        33
56.780        47
56.790        20
56.800        13
56.810        13
56.820        13
56.830        27
56.840        13
56.850        20
56.860        27
56.870         7
56.880        20
56.890         0
56.900         7
56.910         7
56.920         7
56.930         7
56.940        20
56.950        13
56.960        27
56.970        20
56.980         7
56.990         0
57.000        33
57.010        20
57.020        60
57.030        13
57.040        20
57.050        13
57.060        27
57.070        13
57.080        13
57.090         7
57.100         7
57.110        27
57.120         7
57.130        13
57.140        20
57.150         7
57.160         7
57.170        20
57.180        20
57.190        27
57.200        33
57.210         7
57.220        13
57.230        27
57.240         7
57.250        27
57.260         7
57.270         0
57.280        13
57.290        20
57.300         7
57.310         7
57.320         0
57.330        20
57.340         7
57.350        33
57.360        27
57.370        40
57.380        13
57.390        13
57.400        53
57.410        33
57.420        33
57.430        27
57.440        27
57.450        33
57.460        40
57.470        53
57.480        33
57.490        40
57.500        33
57.510        60
57.520       107
57.530        53
57.540        53
57.550        73
57.560        47
57.570        60
57.580        33
57.590        60
57.600        20
57.610        47
57.620        33
57.630         0
57.640        20
57.650        13
57.660        13
57.670        40
57.680        20
57.690        40
57.700        20
57.710        53
57.720        27
57.730        20
57.740        40
57.750        27
57.760        13
57.770        27
57.780        27
57.790        27
57.800         0
57.810        40
57.820        13
57.830        13
57.840         7
57.850        13
57.860        20
57.870        20
57.880        40
57.890        13
57.900        33
57.910        27
57.920        20
57.930        33
57.940        33
57.950        47
57.960        27
57.970        20
57.980        13
57.990        47
58.000         7
58.010        13
58.020        27
58.030         7
58.040        27
58.050        33
58.060        13
58.070        27
58.080        40
58.090        20
58.100        53
58.110        53
58.120         7
58.130        20
58.140        13
58.150        13
58.160        27
58.170        20
58.180        13
58.190         0
58.200        20
58.210        33
58.220        33
58.230        40
58.240         7
58.250        20
58.260        47
58.270        20
58.280        20
58.290        13
58.300        20
58.310        27
58.320        13
58.330        27
58.340        13
58.350        20
58.360        20
58.370        13
58.380        27
58.390         0
58.400         0
58.410         0
58.420        27
58.430        33
58.440         7
58.450        27
58.460        13
58.470         7
58.480         7
58.490        20
58.500        47
58.510        20
58.520        13
58.530         0
58.540         7
58.550        33
58.560        20
58.570        20
58.580         7
58.590         7
58.600         7
58.610        20
58.620        13
58.630         7
58.640        13
58.650        13
58.660        60
58.670        27
58.680         7
58.690        20
58.700        20
58.710         7
58.720         7
58.730        20
58.740        33
58.750        13
58.760        20
58.770        27
58.780         0
58.790         7
58.800        33
58.810         7
58.820        13
58.830        33
58.840        13
58.850         7
58.860        27
58.870         0
58.880        20
58.890        13
58.900        20
58.910         7
58.920         0
58.930        20
58.940        40
58.950         0
58.960         7
58.970        20
58.980        27
58.990        13
59.000         0
59.010        13
59.020        27
59.030        27
59.040         0
59.050        20
59.060        27
59.070         7
59.080        13
59.090         0
59.100         7
59.110         7
59.120         7
59.130         7
59.140        20
59.150         7
59.160        13
59.170         0
59.180        20
59.190        20
59.200        27
59.210        13
59.220        13
59.230         7
59.240        27
59.250        13
59.260         0
59.270        13
59.280        27
59.290        27
59.300         7
59.310         0
59.320        13
59.330        33
59.340        27
59.350        20
59.360         7
59.370        27
59.380        20
59.390        13
59.400        20
59.410         0
59.420         0
59.430        27
59.440        13
59.450        20
59.460        20
59.470         7
59.480        13
59.490        40
59.500        93
59.510        20
59.520        20
59.530        27
59.540         7
59.550         0
59.560        13
59.570        13
59.580        27
59.590        33
59.600        27
59.610        27
59.620        20
59.630        20
59.640         0
59.650        20
59.660         0
59.670        27
59.680        13
59.690        27
59.700        33
59.710         7
59.720        27
59.730        20
59.740         7
59.750         7
59.760        33
59.770         0
59.780         7
59.790         0
59.800        33
59.810        20
59.820        13
59.830        33
59.840        20
59.850         7
59.860        13
59.870        20
59.880         7
59.890        40
59.900        27
59.910        40
59.920         7
59.930        13
59.940        20
59.950        33
59.960        33
59.970        27
59.980        27
59.990        20
60.000        13
