20.000        47
20.010        40
20.020        60
20.030        47
20.040        40
20.050        33
20.060        53
20.070        53
20.080        47
20.090        93
20.100        33
20.110        13
20.120        33
20.130        27
20.140        53
20.150        20
20.160        20
20.170        20
20.180        80
20.190        47
20.200        73
20.210        27
20.220        60
20.230        33
20.240        27
20.250        27
20.260        33
20.270        93
20.280        67
20.290        47
20.300        40
20.310        47
20.320        47
20.330        47
20.340        20
20.350        80
20.360        27
20.370        73
20.380        47
20.390        40
20.400        33
20.410        93
20.420        40
20.430        33
20.440        67
20.450        27
20.460        80
20.470         7
20.480        33
20.490        40
20.500        20
20.510        33
20.520        53
20.530        40
20.540        33
20.550        33
20.560        80
20.570        33
20.580        40
20.590        60
20.600        40
20.610        33
20.620        33
20.630        53
20.640        80
20.650        33
20.660        40
20.670        47
20.680        60
20.690        33
20.700        40
20.710        47
20.720        20
20.730        47
20.740        47
20.750        40
20.760        47
20.770        47
20.780        53
20.790        33
20.800        40
20.810        27
20.820        33
20.830        47
20.840        40
20.850        67
20.860        47
20.870        47
20.880        20
20.890        13
20.900        73
20.910        47
20.920        33
20.930        40
20.940        33
20.950        73
20.960       100
20.970        47
20.980        33
20.990        40
21.000        33
21.010        33
21.020        53
21.030        40
21.040        60
21.050        53
21.060        47
21.070        40
21.080        47
21.090        47
21.100        47
21.110        53
21.120        47
21.130        60
21.140       100
21.150        20
21.160        20
21.170        40
21.180        40
21.190        27
21.200        27
21.210        40
21.220        27
21.230        40
21.240        47
21.250        27
21.260        20
21.270        27
21.280        33
21.290        67
21.300         7
21.310        40
21.320        60
21.330        47
21.340        40
21.350        53
21.360        60
21.370        73
21.380        53
21.390        27
21.400        27
21.410        47
21.420        60
21.430        60
21.440        33
21.450        47
21.460        67
21.470        33
21.480        27
21.490        33
21.500        33
21.510        33
21.520        47
21.530        40
21.540        20
21.550        27
21.560        13
21.570        40
21.580        20
21.590        13
21.600        60
21.610        47
21.620        47
21.630         7
21.640        73
21.650        27
21.660         7
21.670        47
21.680        20
21.690        80
21.700        33
21.710        27
21.720        40
21.730        47
21.740        47
21.750        13
21.760        20
21.770        33
21.780        73
21.790        47
21.800        33
21.810         0
21.820        73
21.830        40
21.840        20
21.850        40
21.860        33
21.870        93
21.880        13
21.890        33
21.900        27
21.910        67
21.920        13
21.930        27
21.940        87
21.950        93
21.960        40
21.970        40
21.980        33
21.990        47
22.000        20
22.010        27
22.020        40
22.030        73
22.040       100
22.050        20
22.060        60
22.070        40
22.080        53
22.090        20
22.100        13
22.110        53
22.120        13
22.130        87
22.140        40
22.150        27
22.160        47
22.170        33
22.180        47
22.190        73
22.200        33
22.210        40
22.220        33
22.230        33
22.240        47
22.250        33
22.260        87
22.270        73
22.280        13
22.290        73
22.300        53
22.310        47
22.320        60
22.330        40
22.340        60
22.350       100
22.360        47
22.370        47
22.380        40
22.390        53
22.400        40
22.410        47
22.420        47
22.430        67
22.440        80
22.450        53
22.460       107
22.470       100
22.480       133
22.490        47
22.500        93
22.510        40
22.520        47
22.530        33
22.540       107
22.550        53
22.560        53
22.570        93
22.580        60
22.590        67
22.600        80
22.610        87
22.620        33
22.630        80
22.640        47
22.650        60
22.660       120
22.670        40
22.680        60
22.690        73
22.700       107
22.710        53
22.720        60
22.730        53
22.740       120
22.750        60
22.760        53
22.770        40
22.780        73
22.790       113
22.800        20
22.810        67
22.820        40
22.830        80
22.840        40
22.850        67
22.860        27
22.870        67
22.880        33
22.890        40
22.900        60
22.910        93
22.920       113
22.930        53
22.940        60
22.950        67
22.960       187
22.970        53
22.980        47
22.990        27
23.000        93
23.010        33
23.020        33
23.030        33
23.040        53
23.050        93
23.060        47
23.070        60
23.080        20
23.090       513
23.100        27
23.110        47
23.120        40
23.130       267
23.140       167
23.150        20
23.160        67
23.170        27
23.180       167
23.190        40
23.200        20
23.210        20
23.220        80
23.230        67
23.240        47
23.250        47
23.260         7
23.270       120
23.280        13
23.290        47
23.300        27
23.310        73
23.320        33
23.330        60
23.340        53
23.350        53
23.360        60
23.370        40
23.380        53
23.390        27
23.400       127
23.410        47
23.420        40
23.430        20
23.440        33
23.450        33
23.460        40
23.470        27
23.480        33
23.490        93
23.500        60
23.510        27
23.520        27
23.530        33
23.540        47
23.550        73
23.560        33
23.570        33
23.580        53
23.590        27
23.600        67
23.610        27
23.620        53
23.630        47
23.640        53
23.650        40
23.660        73
23.670        93
23.680        53
23.690        33
23.700        53
23.710        40
23.720        60
23.730        13
23.740        53
23.750        80
23.760         0
23.770        27
23.780        40
23.790       107
23.800        80
23.810        53
23.820        60
23.830        67
23.840        60
23.850        47
23.860        20
23.870        27
23.880       100
23.890        40
23.900        33
23.910        20
23.920        67
23.930        20
23.940        27
23.950        27
23.960        13
23.970        60
23.980        27
23.990        53
24.000        27
24.010        47
24.020        40
24.030        47
24.040        13
24.050        53
24.060        47
24.070        33
24.080        33
24.090        60
24.100        73
24.110        47
24.120        33
24.130        33
24.140        87
24.150        33
24.160        33
24.170        20
24.180        87
24.190        67
24.200        53
24.210        27
24.220        40
24.230       113
24.240        33
24.250        53
24.260        33
24.270        53
24.280        40
24.290        20
24.300        20
24.310        47
24.320        33
24.330        27
24.340        27
24.350        47
24.360        73
24.370        33
24.380        33
24.390        53
24.400       107
24.410        53
24.420        40
24.430        33
24.440        80
24.450        93
24.460        33
24.470        27
24.480        20
24.490       140
24.500        53
24.510        47
24.520        53
24.530        80
24.540        27
24.550        27
24.560        60
24.570        20
24.580       133
24.590        13
24.600        40
24.610        33
24.620        87
24.630        33
24.640        40
24.650        27
24.660        47
24.670       107
24.680        27
24.690        67
24.700        13
24.710       107
24.720        53
24.730        27
24.740        13
24.750        73
24.760       253
24.770        60
24.780        33
24.790        27
24.800       173
24.810        53
24.820        53
24.830        33
24.840       260
24.850        47
24.860        20
24.870        40
24.880        87
24.890       227
24.900        33
24.910        13
24.920        53
24.930       267
24.940        40
24.950        27
24.960        33
24.970       220
24.980        87
24.990         7
25.000        47
25.010        27
25.020       307
25.030        40
25.040        47
25.050        27
25.060       233
25.070        47
25.080        20
25.090        33
25.100       100
25.110       220
25.120        53
25.130        60
25.140        40
25.150       360
25.160        40
25.170        27
25.180         7
25.190       200
25.200       233
25.210        33
25.220        40
25.230        27
25.240       293
25.250        20
25.260        13
25.270        60
25.280       247
25.290       140
25.300        60
25.310        33
25.320        27
25.330       506
25.340        13
25.350        20
25.360        27
25.370       726
25.380       320
25.390        40
25.400        33
25.410        53
25.420      1799
25.430        73
25.440        33
25.450        73
25.460       986
25.470      1819
25.480        40
25.490        73
25.500       113
25.510      3885
25.520        80
25.530        67
25.540       153
25.550      9656
25.560      2172
25.570       127
25.580       200
25.590     23091
25.600     24117
25.610       100
25.620       173
25.630       726
25.640     62475
25.650       486
25.660       140
25.670       213
25.680     28002
25.690       407
25.700        27
25.710       100
25.720      7304
25.730      4132
25.740        73
25.750        33
25.760       946
25.770      2186
25.780        67
25.790        33
25.800        67
25.810      1479
25.820        53
25.830        40
25.840        47
25.850       526
25.860       160
25.870        33
25.880        20
25.890        53
25.900       606
25.910        33
25.920        20
25.930        27
25.940       420
25.950       113
25.960        40
25.970        33
25.980       100
25.990       380
26.000        13
26.010        33
26.020        33
26.030       247
26.040        47
26.050        33
26.060        33
26.070       167
26.080       193
26.090        33
26.100        40
26.110        67
26.120       187
26.130        27
26.140        20
26.150        40
26.160       387
26.170        33
26.180        20
26.190         7
26.200       133
26.210        80
26.220        20
26.230        33
26.240        33
26.250       320
26.260        13
26.270        27
26.280        33
26.290       240
26.300        27
26.310        27
26.320        33
26.330       253
26.340        33
26.350        47
26.360        53
26.370       140
26.380       127
26.390        20
26.400        33
26.410        60
26.420       180
26.430        40
26.440        40
26.450        27
26.460       193
26.470        13
26.480        53
26.490        33
26.500       327
26.510        20
26.520        13
26.530        20
26.540       173
26.550        93
26.560        20
26.570        33
26.580        47
26.590       273
26.600        13
26.610        20
26.620        27
26.630       240
26.640        47
26.650         7
26.660        27
26.670       233
26.680        67
26.690        47
26.700        53
26.710       107
26.720        60
26.730        27
26.740        40
26.750        20
26.760       287
26.770        40
26.780        13
26.790        47
26.800       140
26.810        33
26.820        20
26.830        33
26.840       207
26.850        73
26.860        33
26.870        40
26.880        27
26.890       193
26.900        20
26.910        40
26.920        33
26.930       113
26.940        20
26.950        27
26.960        27
26.970       100
26.980        80
26.990        20
27.000        20
27.010        60
27.020       187
27.030         7
27.040        47
27.050        40
27.060       227
27.070        13
27.080        40
27.090        33
27.100       253
27.110        40
27.120        53
27.130        20
27.140       167
27.150        87
27.160        20
27.170        33
27.180        47
27.190       280
27.200        40
27.210        13
27.220         7
27.230       193
27.240        20
27.250        33
27.260        33
27.270       127
27.280       127
27.290        53
27.300        20
27.310        27
27.320       187
27.330        33
27.340        13
27.350        60
27.360       200
27.370        27
27.380        33
27.390        27
27.400       120
27.410        67
27.420        67
27.430         7
27.440        20
27.450       213
27.460        27
27.470        33
27.480        27
27.490       233
27.500        60
27.510        53
27.520        13
27.530       140
27.540        80
27.550        20
27.560        13
27.570        20
27.580        73
27.590        27
27.600        20
27.610        20
27.620       187
27.630        20
27.640        20
27.650        20
27.660        87
27.670       113
27.680        33
27.690        20
27.700        40
27.710       153
27.720        20
27.730        20
27.740        33
27.750       167
27.760        53
27.770        33
27.780        27
27.790        27
27.800       227
27.810        27
27.820        27
27.830        27
27.840        87
27.850        93
27.860        40
27.870        33
27.880        27
27.890       207
27.900        27
27.910        40
27.920         0
27.930       127
27.940        67
27.950         7
27.960        47
27.970        13
27.980       187
27.990        27
28.000        20
28.010        27
28.020       153
28.030        13
28.040        33
28.050        20
28.060        80
28.070       173
28.080        27
28.090        27
28.100        47
28.110        87
28.120        20
28.130        20
28.140        13
28.150       213
28.160        60
28.170        27
28.180         7
28.190       120
28.200        87
28.210        40
28.220        27
28.230        40
28.240       240
28.250        13
28.260        13
28.270        40
28.280       160
28.290        27
28.300        20
28.310        13
28.320        87
28.330       133
28.340        27
28.350        33
28.360        33
28.370       100
28.380        33
28.390        47
28.400        20
28.410       120
28.420        47
28.430        20
28.440        27
28.450        60
28.460       113
28.470        33
28.480        27
28.490        27
28.500       260
28.510        13
28.520        33
28.530        33
28.540       153
28.550        40
28.560         7
28.570        33
28.580        33
28.590       193
28.600        33
28.610         7
28.620        27
28.630       147
28.640        20
28.650        13
28.660        13
28.670        60
28.680        80
28.690        27
28.700        40
28.710        27
28.720       107
28.730         7
28.740         7
28.750        27
28.760       200
28.770        20
28.780        20
28.790        27
28.800       107
28.810        47
28.820        27
28.830        27
28.840        20
28.850       147
28.860        13
28.870        53
28.880        47
28.890       167
28.900        20
28.910        20
28.920         0
28.930       107
28.940        93
28.950        40
28.960        73
28.970        27
28.980       140
28.990        27
29.000        27
29.010        47
29.020       133
29.030        33
29.040        47
29.050         7
29.060        93
29.070        73
29.080        33
29.090        13
29.100        27
29.110       167
29.120        53
29.130         7
29.140        27
29.150        80
29.160        87
29.170        13
29.180        27
29.190        33
29.200       173
29.210        20
29.220        47
29.230        33
29.240       127
29.250        20
29.260        40
29.270        13
29.280       140
29.290        80
29.300        27
29.310        40
29.320        53
29.330        80
29.340        47
29.350        60
29.360        13
29.370       247
29.380         7
29.390        40
29.400        13
29.410       127
29.420        27
29.430        53
29.440        60
29.450       113
29.460        87
29.470        13
29.480        20
29.490        47
29.500       100
29.510        27
29.520        20
29.530        53
29.540       140
29.550         7
29.560        27
29.570        27
29.580       173
29.590        67
29.600        13
29.610        13
29.620       187
29.630        60
29.640        27
29.650        33
29.660        53
29.670        87
29.680        20
29.690        20
29.700        33
29.710       147
29.720        33
29.730        27
29.740        20
29.750       127
29.760        20
29.770        33
29.780        20
29.790       113
29.800        67
29.810        20
29.820        20
29.830        67
29.840        60
29.850        33
29.860        13
29.870        20
29.880       100
29.890        13
29.900        27
29.910        20
29.920       113
29.930        13
29.940        13
29.950        13
29.960        87
29.970       187
29.980         7
29.990        27
30.000        27
30.010       180
30.020        20
30.030        20
30.040        47
30.050       113
30.060        87
30.070        13
30.080        47
30.090       107
30.100        67
30.110        20
30.120        13
30.130        13
30.140       187
30.150        13
30.160        60
30.170        40
30.180        80
30.190        40
30.200        13
30.210        27
30.220       107
30.230       100
30.240        13
30.250         7
30.260        60
30.270       147
30.280        20
30.290         7
30.300        13
30.310       113
30.320        27
30.330        20
30.340        27
30.350       160
30.360        20
30.370        33
30.380        33
30.390        40
30.400       100
30.410        13
30.420        33
30.430        47
30.440       107
30.450        27
30.460        13
30.470        27
30.480       153
30.490        47
30.500        40
30.510        33
30.520       120
30.530         7
30.540         7
30.550         7
30.560        60
30.570       160
30.580        27
30.590        40
30.600        13
30.610       100
30.620        13
30.630        13
30.640        27
30.650       100
30.660        27
30.670        33
30.680        33
30.690       120
30.700        80
30.710        13
30.720        20
30.730        13
30.740        73
30.750        27
30.760        33
30.770        13
30.780       193
30.790        33
30.800         0
30.810        27
30.820       207
30.830        27
30.840        33
30.850        13
30.860       120
30.870        53
30.880        27
30.890        27
30.900        20
30.910       100
30.920        47
30.930        40
30.940        27
30.950       113
30.960        33
30.970        20
30.980        47
30.990        93
31.000        67
31.010        40
31.020        67
31.030        40
31.040       133
31.050        13
31.060        13
31.070        73
31.080       113
31.090         7
31.100        33
31.110        47
31.120       107
31.130        33
31.140        27
31.150        27
31.160        60
31.170        40
31.180        13
31.190        27
31.200        27
31.210        93
31.220        53
31.230        13
31.240        13
31.250       127
31.260        27
31.270        40
31.280        33
31.290       133
31.300        40
31.310        33
31.320        47
31.330       113
31.340        53
31.350        40
31.360        20
31.370        40
31.380        33
31.390        47
31.400        33
31.410        33
31.420       100
31.430        27
31.440        33
31.450        40
31.460       127
31.470        33
31.480        33
31.490        73
31.500       160
31.510        33
31.520        47
31.530        33
31.540       113
31.550        60
31.560        20
31.570        20
31.580        80
31.590       107
31.600        47
31.610        60
31.620        53
31.630       120
31.640        47
31.650        60
31.660       100
31.670       133
31.680        73
31.690        53
31.700        60
31.710       173
31.720        47
31.730       100
31.740        80
31.750       147
31.760       140
31.770        67
31.780       120
31.790       160
31.800       107
31.810       120
31.820       153
31.830       127
31.840       220
31.850       153
31.860       140
31.870       133
31.880       207
31.890       173
31.900       200
31.910       240
31.920       207
31.930       260
31.940       213
31.950       200
31.960       233
31.970       273
31.980       220
31.990       327
32.000       213
32.010       333
32.020       300
32.030       320
32.040       267
32.050       393
32.060       340
32.070       307
32.080       333
32.090       373
32.100       353
32.110       393
32.120       380
32.130       280
32.140       280
32.150       393
32.160       420
32.170       333
32.180       367
32.190       407
32.200       300
32.210       340
32.220       340
32.230       320
32.240       373
32.250       387
32.260       307
32.270       300
32.280       313
32.290       407
32.300       333
32.310       327
32.320       213
32.330       253
32.340       327
32.350       253
32.360       213
32.370       327
32.380       300
32.390       200
32.400       267
32.410       240
32.420       267
32.430       200
32.440       280
32.450       240
32.460       220
32.470       187
32.480       233
32.490       193
32.500       247
32.510       227
32.520       180
32.530       160
32.540       213
32.550       127
32.560       167
32.570       113
32.580       227
32.590       140
32.600       180
32.610       120
32.620       120
32.630       133
32.640        80
32.650       180
32.660       120
32.670        67
32.680       147
32.690       167
32.700        60
32.710       107
32.720        53
32.730        80
32.740        80
32.750        33
32.760        73
32.770       100
32.780       113
32.790        47
32.800        67
32.810        80
32.820       127
32.830        47
32.840        40
32.850        60
32.860       107
32.870        53
32.880        53
32.890        47
32.900        47
32.910        40
32.920        47
32.930        73
32.940        60
32.950       120
32.960        53
32.970        20
32.980        47
32.990        67
33.000        47
33.010        53
33.020        13
33.030        80
33.040        80
33.050        27
33.060        60
33.070        53
33.080        93
33.090        53
33.100        47
33.110        60
33.120       133
33.130        40
33.140        80
33.150        20
33.160        87
33.170        33
33.180        33
33.190        13
33.200        27
33.210        73
33.220        60
33.230        27
33.240        33
33.250        73
33.260        60
33.270        13
33.280        27
33.290        80
33.300        20
33.310        33
33.320        13
33.330        40
33.340        80
33.350        27
33.360        27
33.370        33
33.380        80
33.390        33
33.400        13
33.410        27
33.420        33
33.430        73
33.440        33
33.450        20
33.460        20
33.470        73
33.480        27
33.490        40
33.500        20
33.510        80
33.520        40
33.530         7
33.540        27
33.550        13
33.560        60
33.570        53
33.580        20
33.590        33
33.600        67
33.610        27
33.620        13
33.630        27
33.640        53
33.650        47
33.660        40
33.670         7
33.680         7
33.690        67
33.700        20
33.710        53
33.720        27
33.730        87
33.740        40
33.750        27
33.760         7
33.770        67
33.780        40
33.790        20
33.800        33
33.810        47
33.820       127
33.830        13
33.840        33
33.850         7
33.860       127
33.870        27
33.880        27
33.890        13
33.900        33
33.910        87
33.920        27
33.930        13
33.940        27
33.950        87
33.960         7
33.970        20
33.980        53
33.990        80
34.000        33
34.010        40
34.020        20
34.030        40
34.040        33
34.050        33
34.060        20
34.070        27
34.080        80
34.090        27
34.100        40
34.110        13
34.120        33
34.130        73
34.140        13
34.150         0
34.160        20
34.170        53
34.180        60
34.190        27
34.200         7
34.210        47
34.220        33
34.230        27
34.240        33
34.250         7
34.260        53
34.270        47
34.280        33
34.290        20
34.300        20
34.310        80
34.320        27
34.330        13
34.340        33
34.350        93
34.360        33
34.370        40
34.380         7
34.390        47
34.400        20
34.410        13
34.420        13
34.430        47
34.440        80
34.450        33
34.460        20
34.470        13
34.480        47
34.490        20
34.500        13
34.510        20
34.520        27
34.530        93
34.540        33
34.550        47
34.560        20
34.570        53
34.580        13
34.590         7
34.600        13
34.610        27
34.620        53
34.630        20
34.640        33
34.650        33
34.660        67
34.670        27
34.680         7
34.690        13
34.700        33
34.710        33
34.720        20
34.730        33
34.740        27
34.750        53
34.760        13
34.770        13
34.780        33
34.790        40
34.800        13
34.810        20
34.820        27
34.830        53
34.840        13
34.850        27
34.860        20
34.870        33
34.880        27
34.890        60
34.900        13
34.910        27
34.920        93
34.930        33
34.940        13
34.950        20
34.960        73
34.970        13
34.980        33
34.990        20
35.000       120
35.010        13
35.020        27
35.030        33
35.040        53
35.050        27
35.060        13
35.070        13
35.080        40
35.090        40
35.100        20
35.110        40
35.120        13
35.130        60
35.140        33
35.150        27
35.160        53
35.170        53
35.180        27
35.190        40
35.200        33
35.210        13
35.220       100
35.230        13
35.240        27
35.250        20
35.260        67
35.270        20
35.280        20
35.290         0
35.300        40
35.310        67
35.320        27
35.330        27
35.340        13
35.350        47
35.360        33
35.370        13
35.380        27
35.390        27
35.400        53
35.410         7
35.420        13
35.430        13
35.440        53
35.450        20
35.460        27
35.470        13
35.480        47
35.490        20
35.500         7
35.510        27
35.520        47
35.530        47
35.540        27
35.550        33
35.560        13
35.570       107
35.580        13
35.590        13
35.600        20
35.610        40
35.620        60
35.630        20
35.640         7
35.650        20
35.660        87
35.670        33
35.680        53
35.690        40
35.700        60
35.710        20
35.720        27
35.730        40
35.740         7
35.750        73
35.760        40
35.770        27
35.780        13
35.790        47
35.800        13
35.810        33
35.820        20
35.830        40
35.840        33
35.850         7
35.860        13
35.870        27
35.880        53
35.890        13
35.900        27
35.910        27
35.920        47
35.930        40
35.940        53
35.950        47
35.960        27
35.970         7
35.980        40
35.990        33
36.000        40
36.010        13
36.020        13
36.030       100
36.040        13
36.050        13
36.060        13
36.070        13
36.080        33
36.090        20
36.100        20
36.110        40
36.120        47
36.130         7
36.140        53
36.150         7
36.160        53
36.170        53
36.180        20
36.190        40
36.200        33
36.210        27
36.220        60
36.230        40
36.240        13
36.250         7
36.260        13
36.270        40
36.280         0
36.290        20
36.300        13
36.310        60
36.320         7
36.330         7
36.340         7
36.350        27
36.360        47
36.370        13
36.380        27
36.390        27
36.400         7
36.410        53
36.420        33
36.430        20
36.440        40
36.450        13
36.460        53
36.470        13
36.480        20
36.490        20
36.500        40
36.510        53
36.520        20
36.530        40
36.540         0
36.550        73
36.560        27
36.570         7
36.580        13
36.590        27
36.600        67
36.610        20
36.620        13
36.630        27
36.640        20
36.650        13
36.660        27
36.670         0
36.680        27
36.690        73
36.700        27
36.710        33
36.720        27
36.730        13
36.740        60
36.750        33
36.760        40
36.770        13
36.780        33
36.790        60
36.800        13
36.810        20
36.820        13
36.830        40
36.840         7
36.850        20
36.860        33
36.870        40
36.880        27
36.890        20
36.900        27
36.910        20
36.920        27
36.930        13
36.940        27
36.950        40
36.960        20
36.970        27
36.980        53
36.990        20
37.000        13
37.010        20
37.020        60
37.030        33
37.040        13
37.050        27
37.060        60
37.070        20
37.080        27
37.090        20
37.100        13
37.110        80
37.120        27
37.130        27
37.140        20
37.150        13
37.160        40
37.170         7
37.180        20
37.190         0
37.200        20
37.210        87
37.220        27
37.230        20
37.240        20
37.250         7
37.260        53
37.270        13
37.280        40
37.290        40
37.300        27
37.310        13
37.320        27
37.330        20
37.340         7
37.350        53
37.360        20
37.370         0
37.380        13
37.390         0
37.400        40
37.410         7
37.420         7
37.430        13
37.440        27
37.450        60
37.460        33
37.470        33
37.480        33
37.490        20
37.500        27
37.510        27
37.520        20
37.530        20
37.540        40
37.550        27
37.560        20
37.570        27
37.580         7
37.590        40
37.600        13
37.610        20
37.620        13
37.630        47
37.640        27
37.650        33
37.660         0
37.670        20
37.680        47
37.690        13
37.700        20
37.710         7
37.720        60
37.730        13
37.740         7
37.750        13
37.760        40
37.770        33
37.780        13
37.790        13
37.800         7
37.810        33
37.820        33
37.830        27
37.840        13
37.850        40
37.860        33
37.870        20
37.880        13
37.890        13
37.900        33
37.910        27
37.920        13
37.930         7
37.940        13
37.950        33
37.960        20
37.970        40
37.980        20
37.990        40
38.000        13
38.010        13
38.020        33
38.030        60
38.040        40
38.050        20
38.060        40
38.070         0
38.080        40
38.090        27
38.100        20
38.110        20
38.120        60
38.130        13
38.140        20
38.150        13
38.160        33
38.170        33
38.180        20
38.190         7
38.200        20
38.210        20
38.220        33
38.230        13
38.240         7
38.250        33
38.260        33
38.270        27
38.280        20
38.290         7
38.300        40
38.310        13
38.320        13
38.330         7
38.340         7
38.350        40
38.360         7
38.370        13
38.380        27
38.390        33
38.400        13
38.410        13
38.420        27
38.430        20
38.440        47
38.450        13
38.460        20
38.470         7
38.480        60
38.490         0
38.500         7
38.510        27
38.520        53
38.530        20
38.540         7
38.550        20
38.560        27
38.570        60
38.580         7
38.590        47
38.600        13
38.610        40
38.620        27
38.630        13
38.640         7
38.650        33
38.660        67
38.670         7
38.680        20
38.690        20
38.700        67
38.710         7
38.720        20
38.730        13
38.740        53
38.750        47
38.760        20
38.770        20
38.780        33
38.790        20
38.800        13
38.810         7
38.820        40
38.830        33
38.840        20
38.850         0
38.860        27
38.870        60
38.880        13
38.890         7
38.900        20
38.910        40
38.920        47
38.930        33
38.940        20
38.950        47
38.960        13
38.970        20
38.980         7
38.990        13
39.000        20
39.010        27
39.020        27
39.030        20
39.040        53
39.050        27
39.060        13
39.070        13
39.080        33
39.090        47
39.100        20
39.110        20
39.120         7
39.130        20
39.140        13
39.150         7
39.160        13
39.170         7
39.180        27
39.190        20
39.200        40
39.210        20
39.220        40
39.230        40
39.240         0
39.250        27
39.260        40
39.270        27
39.280        33
39.290        20
39.300        20
39.310        47
39.320        33
39.330         0
39.340        40
39.350        87
39.360        13
39.370         0
39.380         7
39.390        27
39.400        20
39.410         7
39.420        47
39.430        40
39.440        27
39.450        33
39.460         7
39.470         7
39.480        47
39.490        40
39.500        33
39.510        13
39.520        33
39.530         7
39.540         7
39.550         7
39.560        53
39.570        13
39.580        60
39.590        40
39.600        53
39.610        27
39.620        13
39.630        27
39.640        20
39.650        47
39.660        33
39.670        13
39.680         0
39.690        20
39.700         7
39.710         7
39.720        13
39.730        47
39.740        47
39.750        13
39.760        20
39.770        13
39.780        27
39.790        53
39.800        20
39.810         7
39.820        20
39.830        53
39.840        13
39.850        13
39.860        33
39.870        67
39.880        33
39.890        13
39.900        13
39.910        40
39.920        27
39.930        53
39.940         0
39.950        13
39.960        33
39.970        13
39.980        13
39.990         7
40.000        60
40.010        13
40.020        27
40.030        20
40.040        40
40.050         7
40.060        13
40.070        27
40.080        53
40.090        33
40.100        20
40.110        33
40.120        20
40.130        40
40.140         7
40.150        27
40.160        13
40.170        53
40.180        13
40.190        27
40.200        13
40.210        33
40.220        13
40.230        13
40.240        27
40.250         0
40.260        60
40.270        13
40.280        33
40.290         7
40.300        53
40.310        47
40.320         0
40.330        13
40.340        13
40.350        33
40.360         7
40.370        13
40.380        27
40.390        67
40.400        47
40.410         7
40.420         7
40.430        53
40.440        27
40.450        40
40.460        13
40.470        33
40.480        13
40.490        13
40.500        20
40.510        13
40.520        27
40.530        27
40.540        13
40.550        13
40.560        33
40.570         7
40.580        40
40.590         7
40.600        47
40.610         7
40.620        27
40.630         7
40.640        20
40.650        13
40.660        13
40.670        20
40.680        20
40.690        47
40.700         7
40.710        13
40.720         7
40.730        20
40.740        20
40.750        20
40.760        20
40.770        27
40.780        60
40.790        13
40.800        27
40.810        27
40.820        40
40.830         7
40.840        20
40.850        20
40.860        20
40.870        40
40.880        20
40.890        27
40.900         7
40.910        60
40.920         7
40.930         0
40.940        20
40.950        40
40.960        20
40.970        13
40.980        33
40.990        20
41.000        33
41.010         7
41.020        27
41.030        40
41.040        47
41.050         7
41.060        53
41.070        27
41.080         7
41.090        20
41.100        13
41.110        27
41.120        53
41.130        33
41.140         7
41.150        13
41.160        33
41.170        20
41.180        33
41.190        13
41.200        27
41.210        33
41.220         7
41.230        20
41.240         7
41.250        27
41.260        27
41.270         7
41.280        20
41.290        53
41.300        27
41.310        13
41.320        20
41.330        33
41.340        27
41.350        13
41.360        47
41.370        33
41.380        20
41.390        20
41.400        20
41.410        13
41.420        33
41.430        13
41.440        13
41.450        20
41.460        27
41.470        20
41.480        13
41.490        20
41.500        53
41.510         7
41.520         7
41.530        13
41.540        27
41.550        20
41.560        20
41.570        33
41.580        40
41.590         0
41.600        13
41.610        27
41.620        20
41.630        20
41.640         7
41.650        13
41.660        27
41.670        33
41.680        20
41.690         7
41.700         7
41.710         7
41.720        20
41.730         7
41.740        13
41.750        20
41.760        13
41.770        13
41.780        20
41.790         7
41.800        20
41.810        33
41.820        20
41.830        27
41.840        13
41.850        33
41.860        20
41.870        20
41.880        20
41.890        47
41.900        13
41.910         0
41.920        20
41.930        47
41.940        20
41.950        20
41.960        20
41.970        40
41.980        20
41.990        20
42.000         7
42.010        27
42.020        20
42.030        20
42.040        20
42.050        20
42.060        27
42.070        27
42.080        27
42.090        33
42.100        33
42.110         7
42.120        20
42.130        27
42.140        27
42.150        13
42.160        33
42.170        33
42.180        13
42.190        40
42.200        13
42.210        27
42.220        27
42.230         7
42.240        27
42.250        13
42.260        13
42.270        33
42.280         7
42.290        20
42.300        20
42.310        33
42.320        13
42.330        13
42.340        13
42.350        33
42.360        33
42.370        20
42.380         7
42.390        20
42.400        13
42.410        13
42.420        33
42.430        20
42.440        20
42.450        13
42.460        13
42.470        20
42.480        40
42.490        20
42.500        20
42.510         7
42.520        40
42.530        13
42.540         0
42.550         7
42.560        27
42.570        33
42.580         7
42.590         7
42.600        13
42.610        33
42.620        13
42.630        13
42.640        13
42.650        13
42.660         7
42.670        13
42.680        40
42.690        20
42.700         0
42.710        27
42.720        13
42.730         7
42.740        33
42.750         7
42.760        20
42.770        13
42.780        13
42.790        27
42.800        27
42.810        27
42.820        53
42.830         7
42.840        33
42.850        40
42.860        47
42.870        33
42.880         7
42.890         7
42.900        27
42.910         0
42.920        40
42.930        20
42.940        33
42.950        27
42.960        13
42.970        20
42.980        20
42.990        13
43.000        20
43.010         0
43.020         7
43.030        13
43.040         7
43.050        27
43.060        20
43.070        40
43.080         7
43.090        20
43.100         7
43.110        40
43.120        20
43.130         0
43.140        20
43.150        33
43.160        33
43.170        27
43.180        27
43.190        13
43.200        40
43.210        27
43.220        40
43.230        13
43.240         7
43.250         7
43.260        13
43.270        13
43.280        53
43.290        33
43.300        27
43.310         0
43.320        13
43.330         7
43.340        27
43.350        20
43.360         7
43.370        20
43.380        40
43.390        20
43.400         7
43.410        20
43.420         7
43.430        47
43.440        13
43.450        60
43.460        33
43.470        20
43.480        13
43.490        20
43.500        27
43.510        33
43.520        13
43.530        33
43.540        20
43.550        13
43.560        27
43.570        33
43.580        20
43.590        40
43.600        13
43.610        33
43.620        33
43.630         0
43.640        27
43.650        13
43.660        27
43.670         0
43.680        20
43.690        27
43.700        53
43.710        20
43.720        13
43.730        13
43.740        40
43.750        27
43.760        20
43.770        20
43.780        27
43.790        13
43.800        13
43.810        60
43.820        20
43.830        40
43.840        20
43.850        20
43.860        33
43.870        40
43.880        47
43.890        20
43.900        27
43.910        40
43.920         0
43.930        20
43.940        27
43.950         7
43.960        13
43.970         7
43.980        33
43.990        20
44.000        13
44.010        27
44.020        20
44.030        33
44.040        60
44.050        13
44.060        20
44.070        53
44.080        47
44.090        33
44.100        53
44.110        67
44.120        33
44.130        20
44.140        20
44.150        33
44.160        20
44.170        33
44.180        20
44.190        27
44.200        40
44.210        27
44.220        33
44.230        20
44.240        20
44.250        13
44.260        27
44.270        13
44.280        40
44.290        47
44.300         7
44.310        33
44.320        47
44.330        47
44.340        67
44.350        33
44.360        40
44.370        40
44.380         7
44.390        40
44.400        27
44.410        27
44.420        47
44.430        40
44.440        20
44.450        60
44.460        20
44.470        20
44.480         7
44.490        40
44.500        60
44.510        27
44.520         7
44.530        60
44.540        20
44.550        60
44.560        40
44.570        20
44.580        67
44.590        53
44.600        27
44.610        40
44.620        20
44.630        73
44.640        40
44.650        40
44.660        47
44.670        73
44.680        53
44.690        53
44.700        47
44.710        20
44.720        40
44.730        27
44.740        20
44.750        53
44.760        20
44.770        33
44.780        47
44.790        73
44.800        67
44.810        67
44.820        33
44.830        47
44.840        87
44.850        53
44.860        47
44.870        67
44.880        20
44.890        73
44.900        60
44.910        93
44.920        47
44.930        80
44.940        53
44.950        53
44.960        40
44.970        60
44.980        47
44.990        87
45.000        13
45.010        53
45.020        80
45.030        53
45.040        27
45.050        47
45.060        53
45.070        67
45.080        67
45.090        87
45.100        67
45.110        60
45.120       127
45.130       100
45.140        73
45.150        27
45.160        87
45.170        80
45.180        67
45.190       113
45.200       120
45.210        73
45.220        87
45.230       133
45.240        73
45.250        80
45.260        60
45.270       113
45.280       127
45.290       100
45.300       120
45.310       100
45.320        87
45.330       160
45.340       147
45.350       167
45.360       180
45.370        87
45.380       140
45.390       200
45.400        93
45.410        73
45.420       140
45.430       247
45.440       200
45.450       133
45.460       200
45.470       233
45.480       153
45.490       167
45.500       173
45.510       200
45.520       220
45.530       267
45.540       173
45.550       273
45.560       353
45.570       153
45.580       160
45.590       187
45.600       260
45.610       207
45.620       187
45.630       273
45.640       240
45.650       287
45.660       253
45.670       227
45.680       293
45.690       293
45.700       367
45.710       187
45.720       247
45.730       267
45.740       360
45.750       240
45.760       313
45.770       400
45.780       380
45.790       253
45.800       320
45.810       287
45.820       373
45.830       207
45.840       240
45.850       293
45.860       393
45.870       280
45.880       300
45.890       347
45.900       446
45.910       307
45.920       307
45.930       340
45.940       353
45.950       347
45.960       360
45.970       340
45.980       347
45.990       300
46.000       340
46.010       360
46.020       320
46.030       327
46.040       273
46.050       307
46.060       293
46.070       320
46.080       347
46.090       280
46.100       347
46.110       300
46.120       220
46.130       367
46.140       280
46.150       220
46.160       307
46.170       340
46.180       420
46.190       180
46.200       253
46.210       347
46.220       340
46.230       260
46.240       260
46.250       233
46.260       307
46.270       260
46.280       160
46.290       207
46.300       327
46.310       187
46.320       160
46.330       153
46.340       220
46.350       207
46.360       260
46.370       187
46.380       193
46.390       173
46.400       133
46.410       180
46.420       173
46.430       180
46.440       193
46.450       160
46.460       153
46.470       120
46.480       207
46.490       193
46.500       140
46.510       193
46.520       180
46.530       167
46.540       173
46.550       140
46.560       140
46.570       173
46.580       140
46.590       160
46.600       133
46.610       100
46.620       100
46.630       120
46.640       140
46.650       107
46.660       113
46.670       127
46.680       100
46.690       113
46.700        93
46.710       113
46.720       107
46.730        93
46.740        93
46.750       200
46.760        80
46.770        73
46.780        87
46.790       147
46.800       100
46.810        53
46.820       107
46.830        67
46.840       140
46.850        87
46.860        80
46.870        73
46.880       113
46.890        93
46.900        87
46.910        60
46.920       107
46.930       140
46.940        73
46.950        87
46.960        47
46.970        93
46.980        67
46.990        60
47.000        73
47.010       187
47.020        73
47.030        40
47.040        33
47.050        53
47.060       127
47.070        47
47.080        93
47.090        27
47.100       180
47.110       160
47.120        20
47.130        47
47.140       147
47.150       353
47.160        40
47.170        47
47.180        60
47.190       686
47.200       520
47.210        67
47.220        27
47.230       187
47.240       253
47.250        60
47.260        27
47.270        53
47.280       213
47.290        33
47.300        33
47.310        73
47.320        73
47.330        73
47.340        33
47.350        67
47.360        33
47.370       113
47.380        47
47.390        47
47.400        33
47.410        33
47.420        27
47.430        40
47.440        47
47.450        20
47.460        80
47.470        67
47.480        40
47.490        67
47.500        47
47.510        47
47.520        80
47.530        60
47.540        47
47.550        73
47.560        40
47.570        20
47.580        20
47.590        27
47.600        60
47.610        60
47.620        20
47.630        60
47.640        47
47.650        20
47.660        53
47.670        27
47.680        47
47.690        33
47.700        27
47.710        33
47.720        53
47.730        33
47.740        47
47.750        20
47.760        67
47.770        73
47.780        47
47.790        60
47.800        27
47.810        33
47.820        80
47.830        27
47.840        33
47.850        27
47.860        53
47.870        33
47.880        33
47.890        27
47.900        33
47.910        53
47.920        20
47.930        13
47.940        27
47.950        20
47.960        27
47.970        33
47.980        13
47.990        60
48.000        13
48.010        20
48.020        20
48.030        13
48.040        13
48.050        33
48.060         7
48.070        27
48.080        33
48.090        67
48.100        13
48.110        20
48.120        27
48.130        33
48.140        40
48.150         7
48.160        40
48.170        20
48.180        20
48.190        13
48.200        27
48.210        20
48.220        20
48.230        20
48.240        47
48.250        67
48.260        13
48.270        33
48.280        27
48.290        20
48.300        13
48.310        33
48.320        20
48.330        13
48.340        13
48.350        20
48.360        33
48.370        20
48.380         7
48.390        40
48.400        47
48.410        67
48.420        40
48.430        27
48.440        40
48.450        40
48.460         7
48.470        33
48.480        27
48.490        47
48.500         7
48.510         7
48.520        27
48.530        27
48.540        40
48.550        40
48.560        13
48.570        13
48.580        53
48.590        20
48.600         7
48.610        13
48.620        13
48.630        40
48.640        47
48.650        20
48.660        20
48.670        33
48.680        27
48.690        33
48.700        20
48.710        13
48.720         7
48.730        13
48.740        40
48.750        13
48.760        53
48.770        13
48.780        20
48.790        13
48.800        40
48.810        47
48.820         0
48.830         7
48.840        27
48.850        33
48.860        33
48.870        20
48.880        13
48.890        13
48.900        27
48.910        27
48.920        20
48.930        33
48.940        33
48.950        20
48.960        20
48.970        27
48.980        27
48.990        33
49.000        33
49.010        33
49.020        27
49.030        20
49.040        27
49.050        33
49.060        27
49.070        40
49.080        20
49.090        47
49.100        13
49.110         0
49.120        13
49.130        33
49.140        13
49.150         7
49.160        40
49.170        27
49.180        33
49.190        27
49.200        33
49.210        13
49.220        13
49.230        73
49.240        40
49.250         7
49.260        27
49.270        40
49.280        60
49.290        33
49.300        27
49.310        27
49.320        40
49.330        27
49.340         7
49.350         7
49.360         7
49.370        27
49.380        20
49.390        27
49.400        13
49.410        20
49.420        40
49.430         7
49.440        20
49.450        13
49.460        33
49.470        47
49.480        27
49.490         0
49.500        33
49.510        27
49.520        20
49.530        40
49.540        33
49.550        33
49.560        67
49.570        20
49.580        27
49.590        20
49.600        13
49.610        33
49.620        33
49.630         7
49.640        33
49.650        20
49.660        33
49.670        53
49.680        33
49.690        20
49.700        20
49.710        60
49.720        40
49.730        20
49.740         7
49.750         7
49.760         7
49.770        20
49.780         7
49.790        27
49.800        27
49.810        40
49.820        13
49.830        27
49.840        27
49.850        33
49.860        40
49.870        20
49.880        27
49.890        13
49.900        20
49.910        33
49.920         7
49.930        13
49.940         7
49.950        27
49.960        13
49.970        33
49.980        13
49.990        33
50.000        33
50.010        33
50.020        27
50.030        13
50.040        13
50.050        33
50.060        27
50.070        20
50.080        20
50.090         7
50.100        60
50.110        13
50.120        13
50.130        27
50.140        27
50.150        20
50.160        33
50.170        13
50.180         7
50.190        20
50.200        20
50.210        33
50.220        27
50.230        40
50.240        13
50.250        13
50.260        20
50.270        40
50.280        40
50.290        40
50.300         7
50.310        27
50.320        13
50.330        20
50.340        27
50.350        33
50.360        20
50.370        20
50.380        20
50.390        20
50.400        67
50.410        33
50.420        13
50.430         0
50.440        20
50.450        60
50.460        13
50.470        33
50.480        27
50.490        13
50.500        20
50.510        27
50.520        20
50.530         7
50.540        13
50.550        20
50.560        20
50.570        33
50.580        60
50.590        20
50.600         7
50.610        40
50.620        33
50.630         0
50.640         0
50.650        87
50.660       127
50.670        47
50.680        33
50.690        13
50.700       207
50.710       187
50.720        27
50.730        33
50.740        33
50.750       187
50.760       160
50.770        20
50.780        33
50.790        13
50.800       140
50.810       167
50.820         7
50.830        33
50.840        27
50.850        20
50.860         7
50.870       300
50.880       140
50.890        40
50.900        20
50.910        80
50.920       160
50.930        20
50.940        33
50.950        27
50.960       260
50.970       167
50.980         0
50.990        20
51.000        60
51.010       193
51.020        33
51.030        20
51.040        33
51.050       107
51.060       320
51.070        27
51.080        13
51.090        20
51.100       133
51.110        80
51.120         7
51.130        27
51.140        47
51.150       287
51.160        33
51.170        27
51.180        47
51.190       180
51.200       120
51.210        53
51.220        27
51.230        33
51.240       193
51.250       140
51.260        20
51.270        27
51.280        33
51.290       187
51.300        20
51.310         7
51.320        33
51.330        87
51.340       327
51.350        40
51.360        40
51.370        20
51.380       147
51.390        73
51.400        13
51.410        53
51.420        27
51.430       333
51.440       120
51.450        27
51.460        33
51.470        73
51.480       153
51.490        20
51.500        33
51.510        27
51.520       280
51.530        80
51.540        47
51.550        47
51.560       127
51.570       167
51.580        33
51.590        20
51.600        33
51.610       147
51.620       213
51.630        13
51.640        27
51.650        40
51.660       193
51.670        53
51.680        53
51.690        27
51.700       133
51.710       260
51.720        47
51.730        53
51.740        27
51.750       260
51.760        33
51.770        33
51.780         7
51.790       193
51.800       233
51.810        33
51.820         7
51.830        47
51.840       227
51.850        33
51.860        27
51.870        40
51.880       167
51.890       300
51.900        20
51.910        47
51.920        60
51.930       207
51.940       100
51.950        33
51.960        40
51.970        93
51.980       353
51.990        40
52.000        47
52.010        60
52.020       187
52.030       133
52.040        13
52.050        53
52.060        93
52.070       553
52.080        33
52.090        47
52.100        53
52.110       300
52.120       280
52.130        40
52.140        40
52.150        53
52.160       506
52.170       227
52.180        47
52.190        13
52.200       260
52.210       500
52.220       107
52.230        20
52.240        80
52.250      1086
52.260       347
52.270        53
52.280        40
52.290       713
52.300      1479
52.310        53
52.320        33
52.330       760
52.340      2752
52.350        53
52.360        53
52.370        80
52.380      1706
52.390      2646
52.400        40
52.410        67
52.420      2286
52.430      3772
52.440       120
52.450        60
52.460       440
52.470      5584
52.480      2632
52.490        33
52.500       180
52.510      7864
52.520     24517
52.530       460
52.540       180
52.550      2432
52.560     70385
52.570      9436
52.580        93
52.590       453
52.600     68399
52.610     66493
52.620       373
52.630        93
52.640      4865
52.650     20832
52.660      1173
52.670        47
52.680       220
52.690     16460
52.700     50153
52.710       240
52.720       127
52.730      1200
52.740     42830
52.750     15314
52.760        67
52.770        80
52.780      1399
52.790     17606
52.800       520
52.810        27
52.820        60
52.830      2919
52.840      1106
52.850        40
52.860        60
52.870       127
52.880      2726
52.890       873
52.900        27
52.910        47
52.920       367
52.930       726
52.940        53
52.950        20
52.960        67
52.970       940
52.980       420
52.990        33
53.000        20
53.010       193
53.020       387
53.030        53
53.040        53
53.050        33
53.060       347
53.070       740
53.080        33
53.090        53
53.100        33
53.110        67
53.120       440
53.130        60
53.140        53
53.150        40
53.160       247
53.170       500
53.180        40
53.190         7
53.200        20
53.210       247
53.220       153
53.230        13
53.240        40
53.250        47
53.260       526
53.270       247
53.280        27
53.290        60
53.300        33
53.310       160
53.320       133
53.330        13
53.340         7
53.350        33
53.360       426
53.370       133
53.380        20
53.390        53
53.400        87
53.410       253
53.420        40
53.430        27
53.440        13
53.450       213
53.460       300
53.470        20
53.480        20
53.490        27
53.500        20
53.510        40
53.520       220
53.530       207
53.540        13
53.550         7
53.560        33
53.570       180
53.580       187
53.590        27
53.600         7
53.610        67
53.620       173
53.630       100
53.640        27
53.650        27
53.660        33
53.670       273
53.680       160
53.690        13
53.700        13
53.710        33
53.720         0
53.730       147
53.740       167
53.750        33
53.760        13
53.770         7
53.780         7
53.790        40
53.800        13
53.810       213
53.820       213
53.830        33
53.840        33
53.850        33
53.860       133
53.870       100
53.880        20
53.890        33
53.900        33
53.910       213
53.920        87
53.930        13
53.940        60
53.950        40
53.960       113
53.970       127
53.980       113
53.990        27
54.000        20
54.010        13
54.020        40
54.030       127
54.040       187
54.050        33
54.060        40
54.070        20
54.080        67
54.090       133
54.100        33
54.110         7
54.120        40
54.130       160
54.140       113
54.150        33
54.160        20
54.170        33
54.180       140
54.190        80
54.200        20
54.210        20
54.220        33
54.230        67
54.240       267
54.250        40
54.260         7
54.270        33
54.280        40
54.290       167
54.300        93
54.310        27
54.320        33
54.330        40
54.340        13
54.350       207
54.360        53
54.370        13
54.380        33
54.390        67
54.400       153
54.410        87
54.420        20
54.430         7
54.440        47
54.450       173
54.460        80
54.470         7
54.480         0
54.490        47
54.500        73
54.510        60
54.520        40
54.530        13
54.540        27
54.550       173
54.560       127
54.570         7
54.580        33
54.590        40
54.600       140
54.610        40
54.620        13
54.630         7
54.640        53
54.650       213
54.660        53
54.670        27
54.680        13
54.690        67
54.700        87
54.710        33
54.720        27
54.730        20
54.740       140
54.750        93
54.760        33
54.770        13
54.780        73
54.790       133
54.800        33
54.810        20
54.820         7
54.830       193
54.840        40
54.850        33
54.860        13
54.870        67
54.880       140
54.890        13
54.900        20
54.910        20
54.920       113
54.930       167
54.940        13
54.950         7
54.960        53
54.970       147
54.980        33
54.990        20
55.000        13
55.010        93
55.020       140
55.030        27
55.040        13
55.050        13
55.060        60
55.070        13
55.080        27
55.090         7
55.100       167
55.110       140
55.120        27
55.130         7
55.140        87
55.150       113
55.160        13
55.170        27
55.180        13
55.190       160
55.200       147
55.210        20
55.220         7
55.230        40
55.240       120
55.250        27
55.260        33
55.270         7
55.280       140
55.290       140
55.300        13
55.310        13
55.320        33
55.330       113
55.340        13
55.350        27
55.360         0
55.370        80
55.380        73
55.390         0
55.400         7
55.410         0
55.420        13
55.430       113
55.440        20
55.450         7
55.460        27
55.470        73
55.480       193
55.490        27
55.500         7
55.510        20
55.520       107
55.530        40
55.540         7
55.550        13
55.560        33
55.570       200
55.580        27
55.590        20
55.600        40
55.610        13
55.620        87
55.630        67
55.640         7
55.650        27
55.660        27
55.670       120
55.680        53
55.690        33
55.700        13
55.710        40
55.720       120
55.730        27
55.740        33
55.750        40
55.760        73
55.770       187
55.780        40
55.790        20
55.800         7
55.810        20
55.820        47
55.830       113
55.840        87
55.850        33
55.860        20
55.870        13
55.880         7
55.890        67
55.900       160
55.910         0
55.920        13
55.930        20
55.940        33
55.950        67
55.960        20
55.970        13
55.980        20
55.990        93
56.000       147
56.010        33
56.020         7
56.030         0
56.040        47
56.050       133
56.060        47
56.070        13
56.080         7
56.090        33
56.100        47
56.110       207
56.120         7
56.130        13
56.140        13
56.150       127
56.160        27
56.170         7
56.180         7
56.190         7
56.200        80
56.210        93
56.220        13
56.230        13
56.240        47
56.250       133
56.260        60
56.270        20
56.280         7
56.290        13
56.300        13
56.310       167
56.320        60
56.330         0
56.340        20
56.350        60
56.360        73
56.370        47
56.380         7
56.390         0
56.400         7
56.410        40
56.420       173
56.430        40
56.440        13
56.450         7
56.460        60
56.470        67
56.480        13
56.490         0
56.500        27
56.510         0
56.520        33
56.530       193
56.540        60
56.550         7
56.560        33
56.570        20
56.580        93
56.590        47
56.600         7
56.610         0
56.620         0
56.630        13
56.640       153
56.650        60
56.660        13
56.670        13
56.680        27
56.690       100
56.700        33
56.710        20
56.720        20
56.730         7
56.740        87
56.750       133
56.760        40
56.770        20
56.780        13
56.790        20
56.800        40
56.810        80
56.820         0
56.830         0
56.840        20
56.850        73
56.860       147
56.870         7
56.880        20
56.890         7
56.900        60
56.910        53
56.920        40
56.930        13
56.940        13
56.950         7
56.960       153
56.970       100
56.980        13
56.990         0
57.000        20
57.010        20
57.020       113
57.030        13
57.040         7
57.050        13
57.060        13
57.070       227
57.080        47
57.090        13
57.100         7
57.110        20
57.120        73
57.130         7
57.140        27
57.150         0
57.160        53
57.170       153
57.180        67
57.190        27
57.200        13
57.210        13
57.220       120
57.230        53
57.240         0
57.250         0
57.260        13
57.270       113
57.280       113
57.290         0
57.300         7
57.310        20
57.320       100
57.330        47
57.340         7
57.350        13
57.360        53
57.370       133
57.380        93
57.390         7
57.400        13
57.410        20
57.420        53
57.430        27
57.440         7
57.450        40
57.460        20
57.470       100
57.480       160
57.490        27
57.500         7
57.510        20
57.520        40
57.530        53
57.540        40
57.550        53
57.560        13
57.570        33
57.580       147
57.590        33
57.600        20
57.610        13
57.620        20
57.630       100
57.640        33
57.650         7
57.660        13
57.670        13
57.680        13
57.690       147
57.700       107
57.710        27
57.720        13
57.730         7
57.740        13
57.750        60
57.760        47
57.770        40
57.780        27
57.790         7
57.800        87
57.810       100
57.820        20
57.830        13
57.840        20
57.850        67
57.860       100
57.870        13
57.880         7
57.890        27
57.900         7
57.910        93
57.920       127
57.930        27
57.940        27
57.950        27
57.960       107
57.970        47
57.980        13
57.990        20
58.000        47
58.010        93
58.020        27
58.030        20
58.040        13
58.050        67
58.060        87
58.070        33
58.080        47
58.090         7
58.100        67
58.110        67
58.120         0
58.130        27
58.140         7
58.150        93
58.160        47
58.170        20
58.180        33
58.190        13
58.200       140
58.210        67
58.220         7
58.230        20
58.240        47
58.250        60
58.260        40
58.270         7
58.280        20
58.290        80
58.300        73
58.310         7
58.320        40
58.330        27
58.340        73
58.350       107
58.360        20
58.370        27
58.380        20
58.390       160
58.400        27
58.410        27
58.420        20
58.430        27
58.440        27
58.450        27
58.460        13
58.470        27
58.480        60
58.490       100
58.500        40
58.510        27
58.520         0
58.530       100
58.540        40
58.550         7
58.560        13
58.570        13
58.580       153
58.590        20
58.600        13
58.610        13
58.620        20
58.630        60
58.640        27
58.650        13
58.660        20
58.670         7
58.680       107
58.690        87
58.700        13
58.710         0
58.720        13
58.730        47
58.740        60
58.750        27
58.760        20
58.770        13
58.780        80
58.790       100
58.800        27
58.810         7
58.820         7
58.830        40
58.840        47
58.850        13
58.860         7
58.870         0
58.880        73
58.890       113
58.900        20
58.910        20
58.920        20
58.930        27
58.940        53
58.950        20
58.960        13
58.970         7
58.980        20
58.990        67
59.000        80
59.010        20
59.020         7
59.030        13
59.040        33
59.050        60
59.060        40
59.070        20
59.080         7
59.090        27
59.100       127
59.110        73
59.120        27
59.130         7
59.140        20
59.150        93
59.160        33
59.170         7
59.180         7
59.190        27
59.200        60
59.210        33
59.220         7
59.230        13
59.240        20
59.250        87
59.260        13
59.270         0
59.280        20
59.290        60
59.300       133
59.310        20
59.320        13
59.330         0
59.340        33
59.350        60
59.360        27
59.370        20
59.380        13
59.390        87
59.400        73
59.410        33
59.420        20
59.430        13
59.440        73
59.450        40
59.460         7
59.470        20
59.480         0
59.490       100
59.500        13
59.510        20
59.520        40
59.530        33
59.540        60
59.550        27
59.560         7
59.570         7
59.580        40
59.590        67
59.600        27
59.610        27
59.620         0
59.630        60
59.640        60
59.650         0
59.660         7
59.670        33
59.680        80
59.690        40
59.700        27
59.710        13
59.720        20
59.730        20
59.740        53
59.750        20
59.760        13
59.770         7
59.780        27
59.790        80
59.800        13
59.810         7
59.820        13
59.830        53
59.840        27
59.850        33
59.860         7
59.870        40
59.880        80
59.890        13
59.900         7
59.910         0
59.920        47
59.930        47
59.940        33
59.950        27
59.960        13
59.970        67
59.980       120
59.990         0
60.000         0
