20.000        67
20.010        40
20.020        87
20.030        53
20.040        20
20.050        53
20.060        47
20.070        60
20.080        40
20.090        60
20.100        47
20.110        33
20.120        60
20.130        47
20.140        40
20.150        53
20.160        47
20.170        33
20.180        40
20.190        53
20.200        40
20.210        53
20.220        47
20.230        40
20.240        40
20.250        67
20.260        13
20.270        60
20.280        33
20.290        60
20.300        47
20.310        80
20.320        40
20.330        60
20.340        20
20.350        20
20.360        40
20.370        33
20.380         7
20.390        47
20.400        73
20.410        40
20.420        60
20.430        33
20.440        40
20.450        73
20.460        60
20.470        53
20.480        40
20.490        33
20.500        60
20.510        53
20.520        47
20.530        47
20.540        60
20.550        53
20.560        33
20.570        40
20.580        60
20.590        13
20.600        33
20.610        20
20.620        47
20.630        60
20.640        20
20.650        73
20.660        40
20.670        27
20.680        40
20.690        47
20.700        73
20.710        33
20.720        60
20.730        33
20.740        67
20.750        60
20.760        40
20.770        47
20.780        67
20.790        67
20.800        53
20.810        47
20.820        33
20.830        40
20.840        53
20.850        33
20.860        40
20.870        53
20.880        20
20.890        53
20.900        47
20.910        33
20.920        27
20.930        60
20.940        73
20.950        60
20.960        53
20.970        40
20.980        40
20.990        33
21.000        53
21.010        53
21.020        67
21.030        47
21.040        60
21.050        67
21.060        53
21.070        27
21.080        47
21.090        33
21.100        53
21.110        40
21.120        40
21.130        40
21.140        27
21.150        53
21.160        40
21.170        27
21.180        53
21.190        40
21.200        47
21.210         7
21.220        20
21.230        60
21.240        47
21.250        93
21.260        47
21.270        53
21.280        33
21.290        20
21.300        13
21.310        40
21.320        33
21.330        27
21.340        27
21.350        47
21.360        80
21.370        47
21.380        47
21.390        47
21.400        47
21.410        53
21.420        33
21.430        47
21.440        40
21.450        93
21.460        47
21.470        60
21.480        40
21.490        47
21.500        40
21.510        40
21.520        40
21.530        67
21.540        40
21.550        67
21.560        60
21.570        47
21.580        40
21.590        27
21.600        13
21.610        47
21.620        53
21.630        53
21.640        33
21.650        40
21.660        73
21.670        40
21.680        53
21.690        60
21.700        20
21.710        73
21.720        33
21.730        40
21.740        47
21.750        40
21.760        27
21.770        40
21.780        40
21.790        47
21.800        13
21.810        40
21.820        33
21.830        27
21.840        67
21.850        53
21.860         7
21.870        40
21.880        60
21.890        40
21.900        33
21.910        47
21.920        33
21.930        73
21.940        47
21.950        53
21.960        67
21.970        47
21.980        53
21.990        33
22.000        40
22.010        33
22.020        47
22.030        40
22.040        67
22.050        40
22.060       140
22.070        40
22.080        33
22.090        80
22.100         7
22.110        20
22.120        33
22.130        87
22.140        13
22.150        40
22.160        73
22.170        47
22.180        40
22.190        27
22.200        40
22.210        60
22.220        20
22.230         7
22.240        20
22.250        27
22.260        27
22.270        40
22.280        40
22.290        60
22.300        60
22.310        47
22.320        47
22.330        33
22.340        47
22.350        33
22.360        40
22.370        53
22.380        33
22.390        20
22.400        40
22.410        27
22.420        27
22.430        73
22.440        13
22.450        40
22.460        40
22.470        47
22.480        33
22.490        67
22.500        13
22.510        33
22.520        40
22.530        40
22.540        27
22.550        33
22.560        20
22.570        27
22.580        47
22.590        40
22.600        13
22.610        33
22.620        47
22.630        27
22.640        33
22.650        53
22.660        67
22.670        53
22.680        27
22.690        20
22.700        47
22.710        40
22.720        33
22.730        53
22.740        33
22.750        53
22.760        27
22.770        47
22.780        53
22.790        40
22.800        40
22.810        40
22.820        13
22.830        13
22.840        40
22.850        20
22.860        40
22.870        40
22.880        53
22.890        33
22.900        13
22.910        40
22.920        40
22.930        47
22.940        47
22.950        67
22.960        47
22.970        33
22.980        53
22.990        53
23.000        47
23.010        33
23.020        47
23.030        47
23.040        33
23.050        53
23.060        20
23.070        33
23.080        47
23.090        20
23.100         7
23.110        73
23.120         7
23.130        27
23.140        40
23.150        47
23.160        20
23.170        13
23.180        47
23.190        27
23.200        40
23.210        53
23.220        80
23.230        33
23.240        27
23.250        13
23.260        53
23.270        27
23.280        40
23.290        33
23.300        40
23.310        33
23.320        27
23.330        27
23.340        53
23.350        40
23.360        27
23.370        33
23.380        67
23.390        73
23.400        47
23.410        53
23.420        27
23.430        47
23.440        33
23.450        27
23.460        20
23.470        33
23.480        40
23.490        40
23.500        13
23.510        33
23.520        53
23.530        67
23.540        20
23.550        47
23.560        53
23.570        60
23.580        53
23.590        67
23.600        33
23.610        47
23.620        60
23.630        60
23.640        33
23.650        60
23.660        27
23.670        33
23.680        40
23.690        27
23.700        40
23.710        20
23.720        33
23.730        53
23.740        47
23.750        27
23.760        80
23.770        27
23.780        47
23.790        27
23.800        40
23.810        60
23.820        40
23.830         7
23.840        13
23.850        20
23.860        27
23.870        53
23.880        13
23.890         7
23.900        20
23.910        33
23.920        27
23.930        33
23.940        40
23.950        33
23.960        27
23.970        40
23.980         7
23.990        20
24.000        47
24.010        33
24.020        13
24.030        20
24.040        33
24.050        27
24.060        27
24.070        40
24.080        27
24.090        40
24.100        27
24.110        27
24.120         7
24.130        27
24.140        47
24.150        40
24.160        27
24.170        53
24.180        27
24.190        33
24.200        13
24.210        60
24.220        13
24.230        40
24.240        33
24.250        27
24.260        33
24.270        53
24.280        40
24.290        27
24.300        20
24.310        33
24.320        47
24.330        53
24.340        73
24.350        53
24.360        33
24.370        20
24.380        40
24.390        33
24.400        13
24.410        27
24.420         7
24.430        40
24.440        27
24.450        40
24.460        13
24.470        47
24.480        33
24.490        13
24.500        20
24.510        47
24.520        13
24.530        53
24.540        53
24.550        40
24.560         0
24.570        33
24.580        60
24.590        33
24.600        27
24.610        67
24.620        20
24.630        60
24.640        40
24.650        13
24.660        33
24.670        53
24.680        13
24.690        33
24.700        33
24.710        20
24.720        20
24.730        27
24.740        13
24.750        40
24.760        40
24.770        53
24.780        40
24.790        27
24.800        27
24.810         0
24.820        27
24.830        20
24.840        40
24.850        27
24.860        40
24.870        47
24.880        73
24.890        33
24.900        60
24.910        27
24.920        47
24.930        33
24.940        47
24.950        40
24.960        60
24.970        27
24.980        67
24.990        33
25.000        33
25.010        33
25.020        27
25.030        47
25.040        27
25.050        53
25.060        47
25.070        27
25.080        40
25.090        47
25.100        47
25.110         7
25.120        47
25.130        20
25.140        47
25.150        20
25.160        13
25.170        33
25.180        47
25.190        20
25.200        53
25.210        27
25.220        40
25.230        33
25.240        20
25.250        33
25.260        40
25.270        20
25.280        13
25.290        33
25.300        40
25.310        20
25.320         7
25.330        40
25.340        27
25.350        47
25.360        13
25.370        13
25.380        40
25.390        33
25.400        20
25.410        13
25.420        20
25.430        33
25.440        73
25.450        13
25.460        33
25.470        40
25.480        27
25.490        27
25.500        20
25.510        33
25.520        33
25.530        40
25.540        20
25.550        47
25.560        40
25.570        20
25.580        27
25.590        13
25.600        13
25.610        20
25.620        13
25.630        40
25.640        20
25.650        27
25.660        47
25.670        40
25.680        73
25.690        53
25.700        40
25.710        33
25.720        40
25.730        47
25.740         7
25.750        33
25.760        13
25.770        27
25.780        13
25.790        47
25.800        33
25.810        20
25.820        33
25.830        20
25.840        33
25.850        13
25.860        40
25.870        27
25.880        20
25.890        20
25.900        20
25.910        13
25.920        27
25.930        33
25.940        13
25.950        47
25.960        67
25.970        60
25.980        27
25.990        40
26.000        13
26.010        27
26.020       160
26.030        33
26.040        20
26.050        27
26.060        27
26.070        40
26.080        47
26.090        27
26.100        33
26.110        27
26.120        40
26.130        27
26.140        13
26.150        20
26.160        20
26.170        47
26.180        20
26.190        53
26.200        20
26.210        27
26.220        33
26.230        40
26.240        27
26.250        27
26.260        33
26.270        60
26.280         7
26.290        33
26.300        27
26.310        27
26.320        33
26.330        40
26.340         7
26.350        33
26.360        40
26.370        33
26.380        27
26.390        13
26.400        40
26.410        13
26.420        40
26.430        20
26.440        27
26.450        53
26.460        40
26.470        47
26.480        40
26.490        33
26.500        27
26.510        20
26.520        33
26.530        27
26.540        33
26.550        20
26.560        33
26.570        20
26.580        20
26.590        47
26.600        13
26.610        20
26.620        60
26.630        20
26.640        13
26.650        27
26.660        47
26.670        67
26.680        53
26.690        20
26.700        27
26.710        47
26.720        27
26.730        33
26.740        27
26.750        20
26.760        33
26.770         7
26.780        27
26.790        27
26.800        20
26.810         7
26.820        40
26.830        20
26.840        20
26.850        40
26.860        27
26.870        27
26.880         7
26.890        33
26.900        20
26.910        33
26.920        13
26.930        20
26.940        20
26.950        40
26.960        20
26.970        20
26.980        40
26.990        40
27.000        40
27.010        27
27.020        27
27.030        33
27.040        60
27.050        27
27.060        33
27.070         7
27.080        20
27.090        20
27.100        13
27.110        53
27.120         7
27.130        27
27.140        27
27.150        33
27.160        27
27.170        20
27.180        47
27.190        40
27.200        13
27.210        40
27.220        40
27.230        33
27.240        13
27.250        33
27.260        53
27.270        53
27.280        13
27.290        40
27.300        27
27.310        13
27.320         7
27.330        33
27.340        20
27.350        20
27.360         0
27.370        40
27.380        20
27.390        40
27.400        33
27.410        27
27.420        33
27.430        47
27.440        53
27.450        27
27.460        33
27.470        20
27.480        27
27.490        27
27.500        47
27.510        67
27.520        33
27.530        53
27.540        53
27.550        40
27.560        20
27.570        20
27.580        60
27.590        40
27.600        40
27.610        20
27.620        13
27.630        27
27.640        27
27.650        13
27.660        20
27.670        40
27.680        33
27.690        27
27.700        20
27.710        33
27.720        40
27.730        27
27.740        40
27.750        27
27.760        27
27.770        33
27.780        47
27.790        27
27.800        27
27.810        40
27.820        60
27.830        27
27.840        67
27.850        60
27.860        27
27.870        47
27.880        47
27.890        53
27.900        47
27.910        47
27.920        73
27.930        73
27.940        67
27.950        27
27.960        93
27.970        60
27.980        40
27.990        60
28.000        67
28.010        40
28.020        33
28.030        67
28.040        47
28.050        33
28.060        47
28.070        40
28.080        53
28.090        20
28.100        20
28.110        33
28.120        20
28.130        47
28.140        47
28.150        33
28.160        40
28.170        27
28.180        13
28.190        13
28.200        53
28.210        20
28.220        47
28.230        13
28.240        27
28.250        27
28.260        13
28.270        27
28.280        40
28.290        27
28.300        27
28.310        27
28.320        40
28.330        20
28.340        20
28.350        27
28.360        27
28.370        20
28.380        13
28.390        53
28.400        27
28.410        27
28.420        40
28.430        33
28.440        27
28.450        27
28.460        33
28.470        40
28.480        27
28.490        33
28.500        33
28.510        27
28.520        20
28.530        47
28.540        33
28.550        20
28.560        27
28.570        13
28.580        27
28.590        13
28.600        13
28.610        33
28.620        27
28.630        20
28.640        33
28.650        20
28.660        33
28.670         7
28.680        40
28.690         7
28.700         0
28.710        27
28.720        27
28.730         7
28.740        27
28.750        40
28.760        27
28.770        20
28.780        60
28.790        33
28.800        40
28.810        53
28.820        27
28.830        53
28.840        33
28.850        27
28.860        27
28.870        47
28.880        13
28.890        20
28.900        40
28.910        13
28.920        33
28.930        53
28.940        47
28.950        33
28.960        20
28.970        33
28.980        20
28.990        47
29.000        47
29.010        33
29.020        27
29.030        40
29.040        20
29.050        33
29.060         7
29.070        27
29.080        60
29.090        27
29.100        47
29.110        53
29.120        13
29.130        53
29.140        60
29.150        27
29.160        47
29.170        20
29.180        47
29.190        33
29.200        40
29.210        53
29.220        60
29.230        47
29.240        33
29.250        73
29.260        40
29.270        27
29.280        33
29.290        33
29.300        13
29.310        20
29.320        40
29.330        27
29.340        27
29.350        40
29.360        20
29.370        20
29.380        27
29.390        20
29.400        27
29.410        13
29.420        33
29.430        33
29.440        20
29.450        20
29.460        33
29.470        20
29.480        33
29.490        27
29.500        33
29.510        40
29.520        53
29.530        33
29.540        33
29.550        40
29.560        20
29.570        27
29.580        13
29.590        47
29.600        13
29.610        33
29.620        27
29.630        33
29.640        20
29.650        20
29.660         7
29.670        20
29.680        13
29.690         7
29.700        13
29.710        20
29.720        33
29.730        20
29.740        33
29.750        20
29.760        20
29.770        20
29.780        60
29.790        67
29.800        40
29.810        20
29.820        27
29.830        27
29.840        20
29.850        40
29.860        33
29.870        33
29.880        33
29.890        53
29.900        40
29.910        53
29.920        27
29.930        40
29.940        40
29.950        40
29.960        33
29.970        27
29.980        27
29.990        60
30.000        67
30.010        33
30.020        67
30.030        47
30.040        40
30.050        73
30.060        53
30.070        80
30.080        33
30.090        93
30.100        40
30.110        73
30.120        73
30.130        40
30.140        67
30.150        73
30.160        60
30.170        93
30.180        33
30.190        27
30.200        87
30.210        80
30.220        53
30.230        60
30.240        87
30.250        27
30.260        20
30.270        67
30.280        53
30.290        67
30.300        67
30.310        87
30.320        40
30.330        33
30.340        20
30.350        73
30.360        80
30.370        47
30.380        40
30.390        73
30.400        87
30.410        53
30.420        73
30.430        40
30.440        73
30.450        53
30.460        47
30.470        53
30.480        60
30.490        67
30.500        67
30.510       100
30.520        73
30.530        67
30.540        53
30.550        53
30.560        80
30.570        47
30.580        73
30.590        53
30.600        60
30.610        87
30.620        93
30.630       127
30.640       100
30.650       100
30.660       120
30.670       120
30.680       127
30.690       173
30.700       160
30.710       173
30.720       247
30.730       227
30.740       247
30.750       300
30.760       360
30.770       393
30.780       320
30.790       473
30.800       513
30.810       580
30.820       760
30.830       846
30.840       873
30.850       973
30.860      1226
30.870      1406
30.880      1273
30.890      1706
30.900      1866
30.910      2219
30.920      2919
30.930      3072
30.940      3459
30.950      4125
30.960      5165
30.970      5198
30.980      5225
30.990      5511
31.000      5325
31.010      5211
31.020      5371
31.030      4638
31.040      4398
31.050      4158
31.060      3885
31.070      3245
31.080      3045
31.090      2432
31.100      2306
31.110      2119
31.120      1593
31.130      1246
31.140       766
31.150       733
31.160       586
31.170       486
31.180       420
31.190       360
31.200       327
31.210       233
31.220       187
31.230       240
31.240       187
31.250       133
31.260       153
31.270       113
31.280       120
31.290       113
31.300       160
31.310       133
31.320       113
31.330        73
31.340        53
31.350        53
31.360        67
31.370        93
31.380        67
31.390        87
31.400        40
31.410        80
31.420        80
31.430        27
31.440        80
31.450        73
31.460        60
31.470        87
31.480        80
31.490        93
31.500        53
31.510        73
31.520        87
31.530        47
31.540        53
31.550        73
31.560        53
31.570        53
31.580        67
31.590        73
31.600        53
31.610        60
31.620        60
31.630        73
31.640        47
31.650        33
31.660        33
31.670        20
31.680        47
31.690        87
31.700        47
31.710        47
31.720        53
31.730        20
31.740        53
31.750        60
31.760         0
31.770        47
31.780        73
31.790        20
31.800        40
31.810        67
31.820        47
31.830        67
31.840        33
31.850        33
31.860        20
31.870        27
31.880        87
31.890        47
31.900        27
31.910        47
31.920        47
31.930        47
31.940        33
31.950        20
31.960        40
31.970        47
31.980        53
31.990        47
32.000        33
32.010        60
32.020        33
32.030        20
32.040        67
32.050        40
32.060        13
32.070        73
32.080        47
32.090        33
32.100        53
32.110        60
32.120        40
32.130        33
32.140        87
32.150        67
32.160        20
32.170        73
32.180        53
32.190        40
32.200        60
32.210        33
32.220        47
32.230        47
32.240        67
32.250        33
32.260        27
32.270        40
32.280        47
32.290        27
32.300        13
32.310        40
32.320        33
32.330        80
32.340        40
32.350        47
32.360         7
32.370        27
32.380        67
32.390        33
32.400        40
32.410        53
32.420        47
32.430        47
32.440        40
32.450        33
32.460        47
32.470        53
32.480        47
32.490        47
32.500        47
32.510        53
32.520        40
32.530        40
32.540        47
32.550        40
32.560        47
32.570        47
32.580        27
32.590        60
32.600       100
32.610        33
32.620        53
32.630        60
32.640        27
32.650        33
32.660        47
32.670        27
32.680        20
32.690        40
32.700        40
32.710        53
32.720        33
32.730        40
32.740        47
32.750        33
32.760        33
32.770        53
32.780        33
32.790        33
32.800        13
32.810        40
32.820        40
32.830        27
32.840        53
32.850        20
32.860        40
32.870        20
32.880        53
32.890        40
32.900        47
32.910        33
32.920        40
32.930        40
32.940        27
32.950        13
32.960        20
32.970        33
32.980        27
32.990        27
33.000        27
33.010        33
33.020        40
33.030        20
33.040        20
33.050        13
33.060        33
33.070        47
33.080        47
33.090        40
33.100         7
33.110        47
33.120        40
33.130        20
33.140        40
33.150        20
33.160        53
33.170        73
33.180        33
33.190        33
33.200        60
33.210        33
33.220        33
33.230        40
33.240        20
33.250        27
33.260        47
33.270        20
33.280        33
33.290         7
33.300        73
33.310        53
33.320        33
33.330        13
33.340        27
33.350        27
33.360        20
33.370        33
33.380        73
33.390        53
33.400        40
33.410        33
33.420        20
33.430        27
33.440        33
33.450        27
33.460        40
33.470        33
33.480        53
33.490        60
33.500        27
33.510        47
33.520        47
33.530        53
33.540        20
33.550        13
33.560        73
33.570        27
33.580         7
33.590        20
33.600        53
33.610        40
33.620        20
33.630        27
33.640        13
33.650        33
33.660         7
33.670        33
33.680        33
33.690        47
33.700        40
33.710         7
33.720        33
33.730        47
33.740        27
33.750        13
33.760        47
33.770        20
33.780        27
33.790        40
33.800        27
33.810        27
33.820        40
33.830        13
33.840        27
33.850        27
33.860        33
33.870        33
33.880        47
33.890        40
33.900        20
33.910        67
33.920        27
33.930        40
33.940        20
33.950        20
33.960        13
33.970        40
33.980        47
33.990        13
34.000        60
34.010        33
34.020        20
34.030        20
34.040        20
34.050        47
34.060        47
34.070        20
34.080         7
34.090        27
34.100        20
34.110         7
34.120        33
34.130        20
34.140        27
34.150        40
34.160        33
34.170        20
34.180        53
34.190        27
34.200        33
34.210         7
34.220        40
34.230        27
34.240        33
34.250        47
34.260        27
34.270        40
34.280        20
34.290        40
34.300        47
34.310        33
34.320        27
34.330        67
34.340        27
34.350        40
34.360        33
34.370        33
34.380        33
34.390        47
34.400        27
34.410        27
34.420        40
34.430        67
34.440        33
34.450        33
34.460        20
34.470        27
34.480        33
34.490        20
34.500        53
34.510         7
34.520        40
34.530        33
34.540        20
34.550        27
34.560        33
34.570        53
34.580        27
34.590        20
34.600        33
34.610        20
34.620        40
34.630        27
34.640        53
34.650        27
34.660        20
34.670        27
34.680        20
34.690        20
34.700        27
34.710        40
34.720        20
34.730        40
34.740        20
34.750        27
34.760        47
34.770        13
34.780         0
34.790        33
34.800        40
34.810        27
34.820         7
34.830        53
34.840        60
34.850        47
34.860        33
34.870        33
34.880        53
34.890        47
34.900        53
34.910         7
34.920        33
34.930        40
34.940        40
34.950        13
34.960        40
34.970        33
34.980        53
34.990        27
35.000        53
35.010        47
35.020        13
35.030        27
35.040        40
35.050        40
35.060        27
35.070        40
35.080        20
35.090        33
35.100        13
35.110        33
35.120        47
35.130        47
35.140        53
35.150        93
35.160        40
35.170       107
35.180        93
35.190        53
35.200        47
35.210        47
35.220        13
35.230        40
35.240        53
35.250        20
35.260        40
35.270        60
35.280        20
35.290        20
35.300        27
35.310        40
35.320        47
35.330        33
35.340        27
35.350        33
35.360        33
35.370        20
35.380        20
35.390        40
35.400        40
35.410        13
35.420        20
35.430        20
35.440        27
35.450        20
35.460        20
35.470        27
35.480         7
35.490        33
35.500        27
35.510        20
35.520        40
35.530        27
35.540        33
35.550        20
35.560        13
35.570        40
35.580         7
35.590        40
35.600        33
35.610        27
35.620        40
35.630        27
35.640        20
35.650        60
35.660        47
35.670        20
35.680         7
35.690        53
35.700        33
35.710        40
35.720        60
35.730        40
35.740        13
35.750        27
35.760        27
35.770        47
35.780        27
35.790        33
35.800        20
35.810        20
35.820        40
35.830        33
35.840        33
35.850        13
35.860        33
35.870        20
35.880        40
35.890        33
35.900        33
35.910        27
35.920        13
35.930        47
35.940        20
35.950        13
35.960        20
35.970        40
35.980        60
35.990         7
36.000        13
36.010        33
36.020        33
36.030        20
36.040        40
36.050        13
36.060        20
36.070        13
36.080        20
36.090        27
36.100        40
36.110        33
36.120        40
36.130        13
36.140        40
36.150        20
36.160        13
36.170         7
36.180        40
36.190        13
36.200        13
36.210        20
36.220        60
36.230        13
36.240        20
36.250        47
36.260        13
36.270        27
36.280        13
36.290        20
36.300        20
36.310         7
36.320        33
36.330        40
36.340        27
36.350        40
36.360        47
36.370        40
36.380         7
36.390        53
36.400        27
36.410        27
36.420        47
36.430        20
36.440        27
36.450        33
36.460        33
36.470        27
36.480        20
36.490        33
36.500        20
36.510        20
36.520         7
36.530        20
36.540        33
36.550        40
36.560        20
36.570        27
36.580        20
36.590        20
36.600        13
36.610        27
36.620        33
36.630        27
36.640        47
36.650        33
36.660        33
36.670        20
36.680        33
36.690        33
36.700        20
36.710        40
36.720        33
36.730        60
36.740         7
36.750        27
36.760        27
36.770        20
36.780        13
36.790        20
36.800        27
36.810        47
36.820        40
36.830        33
36.840        33
36.850        20
36.860        40
36.870        13
36.880        20
36.890        40
36.900        13
36.910         7
36.920        13
36.930        33
36.940        20
36.950         0
36.960        13
36.970        27
36.980        20
36.990        20
37.000         0
37.010        53
37.020        20
37.030        27
37.040        33
37.050        27
37.060        13
37.070        33
37.080        13
37.090        13
37.100        33
37.110        40
37.120        27
37.130        13
37.140        20
37.150        47
37.160        13
37.170        13
37.180        27
37.190        13
37.200        13
37.210         7
37.220        60
37.230         0
37.240        20
37.250        13
37.260        20
37.270        60
37.280        33
37.290        13
37.300        13
37.310        27
37.320        27
37.330         7
37.340        53
37.350         7
37.360        33
37.370        27
37.380        13
37.390        33
37.400        33
37.410        40
37.420        20
37.430        47
37.440        13
37.450        33
37.460        33
37.470        47
37.480        27
37.490        13
37.500        27
37.510         7
37.520        20
37.530        40
37.540        20
37.550        20
37.560        20
37.570        13
37.580        53
37.590        27
37.600        20
37.610        20
37.620        20
37.630         7
37.640        40
37.650        13
37.660         0
37.670        53
37.680        20
37.690        27
37.700        40
37.710        47
37.720        27
37.730        27
37.740        27
37.750        40
37.760        53
37.770         7
37.780        40
37.790         7
37.800        20
37.810        20
37.820        27
37.830        20
37.840        27
37.850        33
37.860        33
37.870        33
37.880        27
37.890        20
37.900        40
37.910        27
37.920        27
37.930        27
37.940        20
37.950        27
37.960        40
37.970        20
37.980         7
37.990        27
38.000         7
38.010        27
38.020        40
38.030        47
38.040        13
38.050        20
38.060        13
38.070        33
38.080        33
38.090         7
38.100        33
38.110        47
38.120        67
38.130        80
38.140        73
38.150        40
38.160       100
38.170        60
38.180        13
38.190        80
38.200        40
38.210        47
38.220        53
38.230        80
38.240        80
38.250        53
38.260        93
38.270        27
38.280        40
38.290        47
38.300        40
38.310        67
38.320        60
38.330        47
38.340        67
38.350        40
38.360        40
38.370        40
38.380        33
38.390        20
38.400        13
38.410        40
38.420        40
38.430        27
38.440        13
38.450        27
38.460        27
38.470        33
38.480        20
38.490        27
38.500        20
38.510        33
38.520        20
38.530         7
38.540        13
38.550        27
38.560        27
38.570        13
38.580        40
38.590        33
38.600        20
38.610        33
38.620        27
38.630        13
38.640        13
38.650        33
38.660        20
38.670        40
38.680        33
38.690        13
38.700        27
38.710        13
38.720        20
38.730        20
38.740        40
38.750        33
38.760        47
38.770         0
38.780        47
38.790         7
38.800         0
38.810        13
38.820        33
38.830        33
38.840         7
38.850        40
38.860         0
38.870        33
38.880        33
38.890        27
38.900        13
38.910        33
38.920        20
38.930         7
38.940        20
38.950        27
38.960        20
38.970        40
38.980        13
38.990        13
39.000        40
39.010         7
39.020        20
39.030        20
39.040         7
39.050        27
39.060        27
39.070        33
39.080        13
39.090        13
39.100        27
39.110        33
39.120         7
39.130        13
39.140        33
39.150        33
39.160        40
39.170        33
39.180         7
39.190        20
39.200        20
39.210        13
39.220        40
39.230        20
39.240        27
39.250        33
39.260        20
39.270        13
39.280        13
39.290        20
39.300        33
39.310        20
39.320        27
39.330        13
39.340        27
39.350        20
39.360        27
39.370        40
39.380        53
39.390        33
39.400        33
39.410        20
39.420        13
39.430         7
39.440        40
39.450         0
39.460        20
39.470        27
39.480        40
39.490        33
39.500        20
39.510         0
39.520        53
39.530        33
39.540        13
39.550        33
39.560        20
39.570        13
39.580        27
39.590        13
39.600        20
39.610        20
39.620        47
39.630        13
39.640        13
39.650        27
39.660         7
39.670        20
39.680        33
39.690         0
39.700         7
39.710        27
39.720        33
39.730        13
39.740        13
39.750        20
39.760        27
39.770        20
39.780        27
39.790        20
39.800         7
39.810         7
39.820        33
39.830        20
39.840         0
39.850        53
39.860        27
39.870        33
39.880        20
39.890        33
39.900         0
39.910        20
39.920         7
39.930        27
39.940        33
39.950        13
39.960         7
39.970        27
39.980        13
39.990        13
40.000         7
40.010        40
40.020        20
40.030        33
40.040        20
40.050        13
40.060        20
40.070        13
40.080        20
40.090        40
40.100        33
40.110        20
40.120        13
40.130         7
40.140        27
40.150        40
40.160        20
40.170        20
40.180        40
40.190        13
40.200        27
40.210         0
40.220        33
40.230         7
40.240         7
40.250        13
40.260        27
40.270         0
40.280        33
40.290        27
40.300        13
40.310        27
40.320        47
40.330        27
40.340        20
40.350        33
40.360        33
40.370        40
40.380        40
40.390         7
40.400        13
40.410        20
40.420        27
40.430        47
40.440        13
40.450        20
40.460         7
40.470        20
40.480        13
40.490        20
40.500         7
40.510        33
40.520        20
40.530        20
40.540         7
40.550        20
40.560        33
40.570        27
40.580         7
40.590        53
40.600        13
40.610        40
40.620        13
40.630        27
40.640         7
40.650        20
40.660        20
40.670         7
40.680        33
40.690        13
40.700        20
40.710        13
40.720        13
40.730        27
40.740        20
40.750        20
40.760        27
40.770        40
40.780        40
40.790        33
40.800         7
40.810        40
40.820         7
40.830         0
40.840        20
40.850        33
40.860         7
40.870        20
40.880         7
40.890        33
40.900        13
40.910        13
40.920         7
40.930        20
40.940         7
40.950        20
40.960        13
40.970        13
40.980        47
40.990         7
41.000        40
41.010        27
41.020        47
41.030         7
41.040         0
41.050        40
41.060         7
41.070        33
41.080        27
41.090        13
41.100         7
41.110        13
41.120        40
41.130        20
41.140         7
41.150        13
41.160        40
41.170        13
41.180        13
41.190        47
41.200        20
41.210        13
41.220        20
41.230        13
41.240        20
41.250        20
41.260        47
41.270         7
41.280        13
41.290         0
41.300        27
41.310        20
41.320        20
41.330        20
41.340        20
41.350        20
41.360        20
41.370        40
41.380        47
41.390        27
41.400         7
41.410        27
41.420        20
41.430         0
41.440        27
41.450        27
41.460        20
41.470        13
41.480        20
41.490        20
41.500        33
41.510        20
41.520        47
41.530        20
41.540        13
41.550        33
41.560        20
41.570        40
41.580        67
41.590        33
41.600         7
41.610        27
41.620        47
41.630        53
41.640        53
41.650        67
41.660        93
41.670       113
41.680        80
41.690        87
41.700       113
41.710        47
41.720        67
41.730        73
41.740       100
41.750        40
41.760        80
41.770        60
41.780        60
41.790        47
41.800        73
41.810        33
41.820        40
41.830        60
41.840        40
41.850        27
41.860        20
41.870        33
41.880        33
41.890        13
41.900        27
41.910        27
41.920        47
41.930        20
41.940        27
41.950        40
41.960         7
41.970        27
41.980        53
41.990        33
42.000        20
42.010        13
42.020        27
42.030        27
42.040        13
42.050        27
42.060        13
42.070        33
42.080         0
42.090        33
42.100         0
42.110        20
42.120        13
42.130        20
42.140        20
42.150        20
42.160        13
42.170        40
42.180        33
42.190        27
42.200        13
42.210        27
42.220        47
42.230        33
42.240        47
42.250        20
42.260        27
42.270         7
42.280        40
42.290        20
42.300        33
42.310        20
42.320        40
42.330        27
42.340        20
42.350        20
42.360        40
42.370         7
42.380        13
42.390        27
42.400        33
42.410        27
42.420        60
42.430         7
42.440        20
42.450        13
42.460         7
42.470        20
42.480        27
42.490        33
42.500        20
42.510        13
42.520         7
42.530        13
42.540        33
42.550        47
42.560        33
42.570        20
42.580        13
42.590        40
42.600        20
42.610        27
42.620        27
42.630        20
42.640         0
42.650         0
42.660        40
42.670        20
42.680         0
42.690        20
42.700        13
42.710        20
42.720        20
42.730        13
42.740        27
42.750        20
42.760         7
42.770        33
42.780        27
42.790        13
42.800        27
42.810        13
42.820        47
42.830        33
42.840        33
42.850        13
42.860        13
42.870        33
42.880         0
42.890        33
42.900        20
42.910        40
42.920        20
42.930        13
42.940         7
42.950        27
42.960        13
42.970         7
42.980        27
42.990        60
43.000         7
43.010        13
43.020        27
43.030        20
43.040         7
43.050         7
43.060        20
43.070        20
43.080        13
43.090        20
43.100         0
43.110        47
43.120        20
43.130        40
43.140         7
43.150        13
43.160        20
43.170        40
43.180        13
43.190        33
43.200        27
43.210         7
43.220        27
43.230        40
43.240        13
43.250        40
43.260        40
43.270         0
43.280        13
43.290         7
43.300        27
43.310        27
43.320        47
43.330        53
43.340        47
43.350        33
43.360         7
43.370        40
43.380        20
43.390        20
43.400        27
43.410        33
43.420        13
43.430        13
43.440        27
43.450        27
43.460        20
43.470        20
43.480        47
43.490         0
43.500        53
43.510        13
43.520        40
43.530        13
43.540        33
43.550        53
43.560        13
43.570        27
43.580        13
43.590        20
43.600        20
43.610        13
43.620        13
43.630        40
43.640        27
43.650        27
43.660        27
43.670        27
43.680        20
43.690        13
43.700        13
43.710         0
43.720        33
43.730        13
43.740        27
43.750        20
43.760        27
43.770        27
43.780        27
43.790        27
43.800        13
43.810        13
43.820        33
43.830        13
43.840         7
43.850         7
43.860         7
43.870        27
43.880        13
43.890        27
43.900        13
43.910        13
43.920         7
43.930        47
43.940        13
43.950        20
43.960        27
43.970        20
43.980        27
43.990        27
44.000        20
44.010        13
44.020        27
44.030        27
44.040        53
44.050        33
44.060        20
44.070        40
44.080        47
44.090        27
44.100        53
44.110        20
44.120        27
44.130        20
44.140        33
44.150        20
44.160        20
44.170        20
44.180        40
44.190        40
44.200        53
44.210        53
44.220        40
44.230        27
44.240        60
44.250        53
44.260        13
44.270        27
44.280        93
44.290        27
44.300        53
44.310        80
44.320        47
44.330        53
44.340        60
44.350        93
44.360        53
44.370        47
44.380        93
44.390        67
44.400        73
44.410       113
44.420        73
44.430        53
44.440        53
44.450        67
44.460        87
44.470        60
44.480        73
44.490        87
44.500        60
44.510        87
44.520        20
44.530        87
44.540        47
44.550        73
44.560        60
44.570        67
44.580        60
44.590        60
44.600        67
44.610        40
44.620        47
44.630        60
44.640        33
44.650        40
44.660        47
44.670        27
44.680        40
44.690         7
44.700        13
44.710        40
44.720        53
44.730        27
44.740        27
44.750        20
44.760        33
44.770        60
44.780        20
44.790        27
44.800        20
44.810        27
44.820        13
44.830        20
44.840        27
44.850        27
44.860        47
44.870        20
44.880        33
44.890        20
44.900        13
44.910        27
44.920        60
44.930        33
44.940        13
44.950        40
44.960        20
44.970        20
44.980        27
44.990        20
45.000        13
45.010        13
45.020        13
45.030        33
45.040         7
45.050         0
45.060        47
45.070        27
45.080        20
45.090        27
45.100        20
45.110        27
45.120        13
45.130        27
45.140        47
45.150        40
45.160        13
45.170        20
45.180        27
45.190        40
45.200        13
45.210        13
45.220        20
45.230         7
45.240        20
45.250        27
45.260        20
45.270         0
45.280        13
45.290        20
45.300        33
45.310         7
45.320        33
45.330        13
45.340        27
45.350         7
45.360        33
45.370        13
45.380        20
45.390        13
45.400        47
45.410         7
45.420        20
45.430        40
45.440        27
45.450        53
45.460        33
45.470         7
45.480        13
45.490         0
45.500        20
45.510        33
45.520        40
45.530         0
45.540        20
45.550        20
45.560        13
45.570        27
45.580         7
45.590         7
45.600        40
45.610        20
45.620        27
45.630         7
45.640        13
45.650        20
45.660        20
45.670         7
45.680        20
45.690         0
45.700        20
45.710         7
45.720        13
45.730        20
45.740        40
45.750         7
45.760         7
45.770        40
45.780        20
45.790        20
45.800        13
45.810        47
45.820        13
45.830        13
45.840        27
45.850         7
45.860        13
45.870         0
45.880        40
45.890        27
45.900        13
45.910         7
45.920        13
45.930        20
45.940        20
45.950        13
45.960        13
45.970        27
45.980        20
45.990        13
46.000        20
46.010        13
46.020        13
46.030        13
46.040        20
46.050        20
46.060        20
46.070        27
46.080         7
46.090        27
46.100        33
46.110        27
46.120        13
46.130         7
46.140        13
46.150        20
46.160        13
46.170        13
46.180        13
46.190        13
46.200        13
46.210         7
46.220         7
46.230         7
46.240        20
46.250        13
46.260        13
46.270        27
46.280        13
46.290        20
46.300        27
46.310        13
46.320        27
46.330         0
46.340        27
46.350        33
46.360        13
46.370         7
46.380        13
46.390        40
46.400        13
46.410         7
46.420         7
46.430        27
46.440         7
46.450        13
46.460        13
46.470        20
46.480         7
46.490        33
46.500        33
46.510        40
46.520        27
46.530        13
46.540        20
46.550        27
46.560        13
46.570        13
46.580        27
46.590        27
46.600        47
46.610        20
46.620        20
46.630        20
46.640        33
46.650         7
46.660         7
46.670        27
46.680         7
46.690        20
46.700        20
46.710        27
46.720        40
46.730        13
46.740        53
46.750        27
46.760        20
46.770        20
46.780        33
46.790        20
46.800        13
46.810        47
46.820         7
46.830        13
46.840         7
46.850         7
46.860         0
46.870        20
46.880        13
46.890        13
46.900         0
46.910        13
46.920         7
46.930        20
46.940        20
46.950        13
46.960        33
46.970        13
46.980        13
46.990         0
47.000        13
47.010        27
47.020        20
47.030        27
47.040         7
47.050         7
47.060        13
47.070         0
47.080        33
47.090        40
47.100        20
47.110        20
47.120        13
47.130         0
47.140         7
47.150        27
47.160        20
47.170         0
47.180        27
47.190        27
47.200        33
47.210        40
47.220        20
47.230        13
47.240         7
47.250        13
47.260        20
47.270        13
47.280        27
47.290         7
47.300        20
47.310        27
47.320        13
47.330         7
47.340        13
47.350        40
47.360         0
47.370        13
47.380         7
47.390        33
47.400        13
47.410        13
47.420        27
47.430        20
47.440        47
47.450         7
47.460        20
47.470        13
47.480        20
47.490         0
47.500         0
47.510        20
47.520        27
47.530        27
47.540        13
47.550         7
47.560         7
47.570        33
47.580        20
47.590        13
47.600        13
47.610         0
47.620        20
47.630        27
47.640        13
47.650        20
47.660         0
47.670        27
47.680         7
47.690         7
47.700         0
47.710        13
47.720        20
47.730        40
47.740         7
47.750        20
47.760        20
47.770         0
47.780         7
47.790         7
47.800         7
47.810        13
47.820        20
47.830         7
47.840        13
47.850        13
47.860         7
47.870        27
47.880        20
47.890        33
47.900        13
47.910        13
47.920         7
47.930         7
47.940        13
47.950         7
47.960        27
47.970        20
47.980        27
47.990        27
48.000        33
48.010         7
48.020        20
48.030        27
48.040        33
48.050        40
48.060         0
48.070        33
48.080        20
48.090        27
48.100         7
48.110        13
48.120        27
48.130        13
48.140        20
48.150        27
48.160        27
48.170        20
48.180        27
48.190        40
48.200        27
48.210        13
48.220        13
48.230        13
48.240        13
48.250         7
48.260         7
48.270        33
48.280        13
48.290        33
48.300        13
48.310        33
48.320        20
48.330        27
48.340         0
48.350         7
48.360        53
48.370        13
48.380         0
48.390        13
48.400        13
48.410        13
48.420        27
48.430        27
48.440         7
48.450        27
48.460        40
48.470        20
48.480        13
48.490        27
48.500        27
48.510        33
48.520        20
48.530        27
48.540        33
48.550        20
48.560         7
48.570        20
48.580        13
48.590         7
48.600         7
48.610        27
48.620        27
48.630        20
48.640         0
48.650        40
48.660        13
48.670        20
48.680        27
48.690        20
48.700        13
48.710         7
48.720         0
48.730         7
48.740        27
48.750        20
48.760        13
48.770         7
48.780        20
48.790         7
48.800        20
48.810        13
48.820        13
48.830         7
48.840        13
48.850        27
48.860        40
48.870        20
48.880        53
48.890        27
48.900         7
48.910         7
48.920        20
48.930         0
48.940        27
48.950        20
48.960         0
48.970         7
48.980        27
48.990        13
49.000        13
49.010        13
49.020        20
49.030        20
49.040         7
49.050        20
49.060         0
49.070         7
49.080         7
49.090        20
49.100        13
49.110        13
49.120        20
49.130        33
49.140        13
49.150        13
49.160         7
49.170        27
49.180         7
49.190        33
49.200        13
49.210         7
49.220        13
49.230        13
49.240        13
49.250        13
49.260        20
49.270        13
49.280         0
49.290        27
49.300        13
49.310        27
49.320         7
49.330         7
49.340        33
49.350        13
49.360        27
49.370        20
49.380        27
49.390        27
49.400        13
49.410        13
49.420        13
49.430         0
49.440        13
49.450        20
49.460        27
49.470        13
49.480        20
49.490         7
49.500        27
49.510         7
49.520        47
49.530        27
49.540        27
49.550         0
49.560        13
49.570        13
49.580         7
49.590         7
49.600         7
49.610        20
49.620        33
49.630        53
49.640        20
49.650        20
49.660        27
49.670         0
49.680        40
49.690         7
49.700        13
49.710        20
49.720        20
49.730        20
49.740        13
49.750         7
49.760         0
49.770         7
49.780        20
49.790         0
49.800         7
49.810        20
49.820        13
49.830        27
49.840        13
49.850        20
49.860        20
49.870        13
49.880        27
49.890        47
49.900        33
49.910        13
49.920         0
49.930        40
49.940        20
49.950        13
49.960        27
49.970        27
49.980        40
49.990         7
50.000        13
50.010        20
50.020        33
50.030        27
50.040        20
50.050        13
50.060        33
50.070         7
50.080        20
50.090        13
50.100        20
50.110        27
50.120        20
50.130        27
50.140        13
50.150        20
50.160        20
50.170        13
50.180        13
50.190        20
50.200        27
50.210        27
50.220        20
50.230         7
50.240        20
50.250         7
50.260        20
50.270        13
50.280        13
50.290        13
50.300         7
50.310         7
50.320        13
50.330        13
50.340        13
50.350        27
50.360         7
50.370         7
50.380        20
50.390        13
50.400         0
50.410        27
50.420        20
50.430        13
50.440         7
50.450        13
50.460         7
50.470        33
50.480         7
50.490        13
50.500        27
50.510         7
50.520        27
50.530         7
50.540        20
50.550         7
50.560        20
50.570         7
50.580         7
50.590        27
50.600         7
50.610        27
50.620        13
50.630         7
50.640        20
50.650         0
50.660        20
50.670         0
50.680        27
50.690        20
50.700        13
50.710        20
50.720        13
50.730         7
50.740        27
50.750         7
50.760        13
50.770        20
50.780        20
50.790        20
50.800        33
50.810         7
50.820        13
50.830         0
50.840        20
50.850        20
50.860         0
50.870         7
50.880        33
50.890        20
50.900        27
50.910        47
50.920         0
50.930        27
50.940        13
50.950         0
50.960         7
50.970        27
50.980        13
50.990         7
51.000        13
51.010        20
51.020        13
51.030        27
51.040        27
51.050         0
51.060        13
51.070        27
51.080         0
51.090        13
51.100         7
51.110        40
51.120        13
51.130        13
51.140        33
51.150        20
51.160         0
51.170        13
51.180        33
51.190         0
51.200        40
51.210         0
51.220        13
51.230        20
51.240        27
51.250        20
51.260        13
51.270        20
51.280        27
51.290         0
51.300        20
51.310         0
51.320        13
51.330        13
51.340        27
51.350        33
51.360        13
51.370        33
51.380        20
51.390        20
51.400        20
51.410        27
51.420        27
51.430        20
51.440        20
51.450         7
51.460        13
51.470         7
51.480        13
51.490        20
51.500        40
51.510         0
51.520        27
51.530        20
51.540         7
51.550        27
51.560        20
51.570        20
51.580        20
51.590        13
51.600        13
51.610        13
51.620        20
51.630        13
51.640        13
51.650        13
51.660        27
51.670         0
51.680        27
51.690        20
51.700        20
51.710        20
51.720         7
51.730        20
51.740         7
51.750        67
51.760        27
51.770        20
51.780        27
51.790        13
51.800        13
51.810        13
51.820        13
51.830        13
51.840        27
51.850         7
51.860        27
51.870         0
51.880        20
51.890         7
51.900         7
51.910         0
51.920        20
51.930        13
51.940        27
51.950        13
51.960        13
51.970        20
51.980        13
51.990         7
52.000        20
52.010         7
52.020        13
52.030         0
52.040         7
52.050         7
52.060         7
52.070        33
52.080         0
52.090        20
52.100         7
52.110        13
52.120         7
52.130         7
52.140         0
52.150         7
52.160        13
52.170        27
52.180        20
52.190        27
52.200        13
52.210        20
52.220        40
52.230        20
52.240        40
52.250         7
52.260        27
52.270         0
52.280        20
52.290        13
52.300        13
52.310         0
52.320         7
52.330         7
52.340        13
52.350         0
52.360        20
52.370         7
52.380        33
52.390        20
52.400        13
52.410        20
52.420        13
52.430        20
52.440         0
52.450        20
52.460         7
52.470        27
52.480        13
52.490        20
52.500         0
52.510         0
52.520        20
52.530        40
52.540         0
52.550        13
52.560        33
52.570        20
52.580        20
52.590         7
52.600        13
52.610        20
52.620         0
52.630         7
52.640         7
52.650         7
52.660         7
52.670        20
52.680        20
52.690        20
52.700        13
52.710        13
52.720        27
52.730        13
52.740        20
52.750        20
52.760        33
52.770        20
52.780         7
52.790         7
52.800        33
52.810         7
52.820        20
52.830        33
52.840        20
52.850        33
52.860        20
52.870        20
52.880        13
52.890         0
52.900        13
52.910        20
52.920        20
52.930         0
52.940        13
52.950        20
52.960         0
52.970        13
52.980        13
52.990         7
53.000        20
53.010        13
53.020        40
53.030        13
53.040         7
53.050        13
53.060        20
53.070        33
53.080        20
53.090        13
53.100         7
53.110         7
53.120        20
53.130         7
53.140         0
53.150         7
53.160        27
53.170        13
53.180        33
53.190        13
53.200        20
53.210         7
53.220         7
53.230        13
53.240         7
53.250        47
53.260        20
53.270        13
53.280        20
53.290         7
53.300        13
53.310         7
53.320         7
53.330         0
53.340        20
53.350        13
53.360        40
53.370        13
53.380        20
53.390         0
53.400         7
53.410        33
53.420        40
53.430        13
53.440         7
53.450        13
53.460         7
53.470         7
53.480        13
53.490        13
53.500        20
53.510        27
53.520        13
53.530         7
53.540         7
53.550        13
53.560        13
53.570         7
53.580        13
53.590        20
53.600         7
53.610         7
53.620        27
53.630        13
53.640         0
53.650        20
53.660        13
53.670        20
53.680        20
53.690        33
53.700        20
53.710        13
53.720        27
53.730         0
53.740        13
53.750        20
53.760         7
53.770         7
53.780         0
53.790        13
53.800        20
53.810        20
53.820        27
53.830        27
53.840        20
53.850        53
53.860        27
53.870        20
53.880        20
53.890        13
53.900         7
53.910         7
53.920        13
53.930        20
53.940         7
53.950        33
53.960        33
53.970        27
53.980        13
53.990         7
54.000        13
54.010        13
54.020        40
54.030         0
54.040         7
54.050        13
54.060         7
54.070         7
54.080         7
54.090        13
54.100        20
54.110         0
54.120        20
54.130         7
54.140        13
54.150        27
54.160        20
54.170        13
54.180         7
54.190        27
54.200        13
54.210        20
54.220        33
54.230        13
54.240        13
54.250         7
54.260        20
54.270         7
54.280         7
54.290        27
54.300        27
54.310         7
54.320        27
54.330        20
54.340        20
54.350        20
54.360        20
54.370        13
54.380        13
54.390        13
54.400        13
54.410         7
54.420        20
54.430        13
54.440        20
54.450         7
54.460        27
54.470        13
54.480         7
54.490        13
54.500        20
54.510         7
54.520        20
54.530         7
54.540        13
54.550        20
54.560        20
54.570         7
54.580        20
54.590         7
54.600         7
54.610        13
54.620        20
54.630        20
54.640         7
54.650         0
54.660        27
54.670        20
54.680        20
54.690        27
54.700        20
54.710        33
54.720        13
54.730        27
54.740        27
54.750        20
54.760        13
54.770        13
54.780        13
54.790        27
54.800        40
54.810        27
54.820        20
54.830        33
54.840         7
54.850        13
54.860        47
54.870        40
54.880        40
54.890         7
54.900        13
54.910        53
54.920        53
54.930        20
54.940        53
54.950        53
54.960        13
54.970        40
54.980        40
54.990        67
55.000       100
55.010        60
55.020        67
55.030       113
55.040       120
55.050       113
55.060       113
55.070       180
55.080       127
55.090       160
55.100       187
55.110       167
55.120       140
55.130       127
55.140       127
55.150       187
55.160       160
55.170       127
55.180       133
55.190       100
55.200       167
55.210       120
55.220       173
55.230       113
55.240        73
55.250       107
55.260       120
55.270       133
55.280        53
55.290       107
55.300        33
55.310        73
55.320        53
55.330        60
55.340        87
55.350        87
55.360        47
55.370        67
55.380        27
55.390        40
55.400        33
55.410         7
55.420        27
55.430        13
55.440        40
55.450        27
55.460        13
55.470        20
55.480        13
55.490        13
55.500        40
55.510         0
55.520        13
55.530        20
55.540        13
55.550         0
55.560         7
55.570        33
55.580        20
55.590        13
55.600        20
55.610        27
55.620        20
55.630        20
55.640         7
55.650        13
55.660        20
55.670         7
55.680        20
55.690         7
55.700         0
55.710        27
55.720        20
55.730        27
55.740         7
55.750         7
55.760         0
55.770        13
55.780         7
55.790         7
55.800        13
55.810        27
55.820        33
55.830        33
55.840        13
55.850        13
55.860         7
55.870        27
55.880        13
55.890         7
55.900         7
55.910        27
55.920         0
55.930         7
55.940         0
55.950         0
55.960         7
55.970        27
55.980         0
55.990        13
56.000         7
56.010         0
56.020         7
56.030         7
56.040         7
56.050        27
56.060        20
56.070        27
56.080        27
56.090        20
56.100        27
56.110        13
56.120        13
56.130         0
56.140         7
56.150        27
56.160        13
56.170        20
56.180        13
56.190         7
56.200         0
56.210        20
56.220        27
56.230        20
56.240         7
56.250         7
56.260         7
56.270         7
56.280        13
56.290        27
56.300        13
56.310        27
56.320        27
56.330        27
56.340         0
56.350        20
56.360        20
56.370        13
56.380         7
56.390        27
56.400        20
56.410         7
56.420        20
56.430        13
56.440         7
56.450        13
56.460         0
56.470        13
56.480        27
56.490        33
56.500         7
56.510         7
56.520         7
56.530        13
56.540         7
56.550        20
56.560         7
56.570        20
56.580        13
56.590        13
56.600        13
56.610         0
56.620        13
56.630        20
56.640         7
56.650         7
56.660         7
56.670         7
56.680        13
56.690        13
56.700        20
56.710        13
56.720         7
56.730        13
56.740         0
56.750        13
56.760        20
56.770        20
56.780         0
56.790        20
56.800        27
56.810         0
56.820        13
56.830        20
56.840         0
56.850        20
56.860        13
56.870        20
56.880         0
56.890        20
56.900        13
56.910         7
56.920         7
56.930        20
56.940         7
56.950         7
56.960         0
56.970        20
56.980        27
56.990        13
57.000         7
57.010        20
57.020        20
57.030        20
57.040        13
57.050         7
57.060        20
57.070         7
57.080        13
57.090         0
57.100        20
57.110        13
57.120        13
57.130        13
57.140        20
57.150        13
57.160        13
57.170        20
57.180        13
57.190        20
57.200         7
57.210        13
57.220        20
57.230        13
57.240        13
57.250         7
57.260        13
57.270         7
57.280        13
57.290        20
57.300        27
57.310        33
57.320         0
57.330        13
57.340         7
57.350         7
57.360         7
57.370         7
57.380        20
57.390         0
57.400         0
57.410        20
57.420        20
57.430        20
57.440        33
57.450        13
57.460        20
57.470         7
57.480        20
57.490        33
57.500        47
57.510        20
57.520        40
57.530        40
57.540        33
57.550        33
57.560        13
57.570        33
57.580        13
57.590        40
57.600        27
57.610         7
57.620         7
57.630        20
57.640        27
57.650        13
57.660        47
57.670        20
57.680        40
57.690        20
57.700        13
57.710        33
57.720        13
57.730         0
57.740        13
57.750         7
57.760        20
57.770         7
57.780        27
57.790        20
57.800        13
57.810         7
57.820         7
57.830        33
57.840        27
57.850         7
57.860        33
57.870        20
57.880         7
57.890         0
57.900        13
57.910        27
57.920        13
57.930        13
57.940        13
57.950         0
57.960         7
57.970         7
57.980         7
57.990        13
58.000        20
58.010        13
58.020        13
58.030        13
58.040         7
58.050         7
58.060        33
58.070         7
58.080        27
58.090        13
58.100        20
58.110        27
58.120        13
58.130         7
58.140        20
58.150        20
58.160        27
58.170        13
58.180        13
58.190         7
58.200         7
58.210         7
58.220        13
58.230         0
58.240         7
58.250        13
58.260        53
58.270        13
58.280        13
58.290        13
58.300         7
58.310        13
58.320        20
58.330         7
58.340        20
58.350         7
58.360         0
58.370         7
58.380        13
58.390        13
58.400        20
58.410        27
58.420        33
58.430        13
58.440        13
58.450         7
58.460         0
58.470        20
58.480        13
58.490         7
58.500         0
58.510        27
58.520        20
58.530         7
58.540         7
58.550        13
58.560        20
58.570        13
58.580        13
58.590        13
58.600         7
58.610         7
58.620        13
58.630        13
58.640        13
58.650        20
58.660         7
58.670        27
58.680        13
58.690         7
58.700        13
58.710        13
58.720        20
58.730        20
58.740        20
58.750        13
58.760         0
58.770         0
58.780        20
58.790        47
58.800         7
58.810        13
58.820        20
58.830        13
58.840        13
58.850        13
58.860         7
58.870        13
58.880         0
58.890        33
58.900        20
58.910         7
58.920        20
58.930        13
58.940        20
58.950         7
58.960        13
58.970        20
58.980        20
58.990         7
59.000         0
59.010        20
59.020         7
59.030        33
59.040         7
59.050         0
59.060         7
59.070        13
59.080         7
59.090        20
59.100         7
59.110         7
59.120         7
59.130         0
59.140        20
59.150         7
59.160        13
59.170         0
59.180         7
59.190        27
59.200        20
59.210        53
59.220        20
59.230         7
59.240        13
59.250         0
59.260        33
59.270        13
59.280        20
59.290        20
59.300        20
59.310         0
59.320        20
59.330        13
59.340        20
59.350        20
59.360         0
59.370        33
59.380        13
59.390        20
59.400         0
59.410         0
59.420         7
59.430        13
59.440        13
59.450        20
59.460        13
59.470        20
59.480         0
59.490         7
59.500        13
59.510        13
59.520         7
59.530         7
59.540         7
59.550        20
59.560        13
59.570         0
59.580         7
59.590         7
59.600        13
59.610         0
59.620        27
59.630         7
59.640        27
59.650         7
59.660         7
59.670        33
59.680         7
59.690        27
59.700        13
59.710         7
59.720        13
59.730        13
59.740         7
59.750        20
59.760        20
59.770        13
59.780         0
59.790        13
59.800         7
59.810        27
59.820         7
59.830        13
59.840        13
59.850        33
59.860        13
59.870         7
59.880        40
59.890        27
59.900        13
59.910        20
59.920        20
59.930        20
59.940        13
59.950        33
59.960        20
59.970        20
59.980        13
59.990         0
60.000         0
