20.000        40
20.010        40
20.020        53
20.030        47
20.040         7
20.050        53
20.060        47
20.070        40
20.080        47
20.090        40
20.100        20
20.110        47
20.120        40
20.130        47
20.140        87
20.150        27
20.160        27
20.170        33
20.180        47
20.190        47
20.200        47
20.210        60
20.220        47
20.230        67
20.240        73
20.250        47
20.260        47
20.270        47
20.280        47
20.290        27
20.300        33
20.310        13
20.320        27
20.330        40
20.340        33
20.350        53
20.360        40
20.370        27
20.380        27
20.390        53
20.400        33
20.410        33
20.420        40
20.430        20
20.440        93
20.450        33
20.460        27
20.470        27
20.480        13
20.490        87
20.500        20
20.510        33
20.520        40
20.530        40
20.540        73
20.550        33
20.560        20
20.570        67
20.580        27
20.590        27
20.600        20
20.610        27
20.620        93
20.630        27
20.640        53
20.650        27
20.660        20
20.670        47
20.680        33
20.690        73
20.700        60
20.710        27
20.720        13
20.730        40
20.740        33
20.750        53
20.760        87
20.770        60
20.780        33
20.790        47
20.800        47
20.810        60
20.820        33
20.830        40
20.840        60
20.850        33
20.860        33
20.870        27
20.880        27
20.890        47
20.900        60
20.910        60
20.920        27
20.930        47
20.940        47
20.950        47
20.960        53
20.970        60
20.980        47
20.990        40
21.000        20
21.010        40
21.020        60
21.030        13
21.040        33
21.050        60
21.060        53
21.070        20
21.080        47
21.090        33
21.100        47
21.110        20
21.120        40
21.130        40
21.140        20
21.150        40
21.160        20
21.170        40
21.180        27
21.190        47
21.200        40
21.210        53
21.220        67
21.230        47
21.240        47
21.250        13
21.260        27
21.270         7
21.280        53
21.290        27
21.300        40
21.310        73
21.320        40
21.330        47
21.340        33
21.350        73
21.360        33
21.370        53
21.380        40
21.390        47
21.400        40
21.410        53
21.420        40
21.430        40
21.440        20
21.450        13
21.460        27
21.470        33
21.480        40
21.490        27
21.500        40
21.510        47
21.520        13
21.530        40
21.540        27
21.550        27
21.560        33
21.570        53
21.580        27
21.590        27
21.600        67
21.610        67
21.620         7
21.630        47
21.640        47
21.650        27
21.660        47
21.670        53
21.680        40
21.690        47
21.700        27
21.710        27
21.720        27
21.730        73
21.740        40
21.750        40
21.760        40
21.770        20
21.780        40
21.790        47
21.800        47
21.810        20
21.820        47
21.830        60
21.840        33
21.850        33
21.860        27
21.870        40
21.880        33
21.890        27
21.900        53
21.910        53
21.920        20
21.930        60
21.940        33
21.950        33
21.960        27
21.970        33
21.980        53
21.990        53
22.000        40
22.010        20
22.020        67
22.030        53
22.040        13
22.050        53
22.060        27
22.070        60
22.080        20
22.090        20
22.100        53
22.110        40
22.120        47
22.130        33
22.140        20
22.150        40
22.160        40
22.170        20
22.180        40
22.190        33
22.200        33
22.210        67
22.220        53
22.230        27
22.240        27
22.250        33
22.260        47
22.270        27
22.280        47
22.290        20
22.300        60
22.310        60
22.320        20
22.330        80
22.340         7
22.350        33
22.360        33
22.370        13
22.380        40
22.390        60
22.400        33
22.410        27
22.420        40
22.430        27
22.440         7
22.450        33
22.460        27
22.470        80
22.480        13
22.490        53
22.500        40
22.510        33
22.520        33
22.530        40
22.540        53
22.550        20
22.560        67
22.570        27
22.580        13
22.590        20
22.600        47
22.610        33
22.620        27
22.630        47
22.640        33
22.650        13
22.660        47
22.670        27
22.680        13
22.690        13
22.700        20
22.710        33
22.720        60
22.730        27
22.740         0
22.750        60
22.760        73
22.770        33
22.780        60
22.790        53
22.800        40
22.810        67
22.820        27
22.830        47
22.840        67
22.850         7
22.860        20
22.870        33
22.880        33
22.890        40
22.900        67
22.910        13
22.920        47
22.930        47
22.940        60
22.950        33
22.960        47
22.970        53
22.980        13
22.990        40
23.000        27
23.010        27
23.020        27
23.030        33
23.040        40
23.050        47
23.060        27
23.070        40
23.080        40
23.090        33
23.100        40
23.110        60
23.120        60
23.130        40
23.140        53
23.150        33
23.160        40
23.170        27
23.180        40
23.190        47
23.200        13
23.210        27
23.220        47
23.230        40
23.240        53
23.250        27
23.260        13
23.270        33
23.280        40
23.290        40
23.300        47
23.310        40
23.320        47
23.330        60
23.340        20
23.350        13
23.360        47
23.370        40
23.380        47
23.390        20
23.400        53
23.410        40
23.420        53
23.430        47
23.440         7
23.450        47
23.460        33
23.470        60
23.480        33
23.490        47
23.500        27
23.510        33
23.520        13
23.530        20
23.540        27
23.550        20
23.560        47
23.570        13
23.580        20
23.590        20
23.600        27
23.610        40
23.620        13
23.630        27
23.640        33
23.650        53
23.660        33
23.670        33
23.680        13
23.690        53
23.700        27
23.710        40
23.720        20
23.730        47
23.740        20
23.750        40
23.760        20
23.770        20
23.780        27
23.790        40
23.800        20
23.810        27
23.820        60
23.830        27
23.840        40
23.850        20
23.860        47
23.870        47
23.880        33
23.890        47
23.900        13
23.910        20
23.920        20
23.930        13
23.940         7
23.950        20
23.960        47
23.970        20
23.980         7
23.990        20
24.000         0
24.010        73
24.020        27
24.030        47
24.040        27
24.050        33
24.060        27
24.070        27
24.080        33
24.090        27
24.100        53
24.110         7
24.120        20
24.130        20
24.140        27
24.150        33
24.160        40
24.170        20
24.180        40
24.190        33
24.200        47
24.210        20
24.220        47
24.230        47
24.240        27
24.250        13
24.260        27
24.270        33
24.280        53
24.290        33
24.300        40
24.310        20
24.320        20
24.330        27
24.340        40
24.350        67
24.360        40
24.370        27
24.380        27
24.390         7
24.400        33
24.410        13
24.420        33
24.430        53
24.440         0
24.450        20
24.460        47
24.470        40
24.480        27
24.490        20
24.500        27
24.510        40
24.520        13
24.530         7
24.540        27
24.550        20
24.560        27
24.570        33
24.580        33
24.590        33
24.600        47
24.610        53
24.620         7
24.630        40
24.640        47
24.650        33
24.660        53
24.670        53
24.680        47
24.690        27
24.700        47
24.710        20
24.720        20
24.730        40
24.740        27
24.750        13
24.760        47
24.770        40
24.780        53
24.790        20
24.800        20
24.810        13
24.820        33
24.830        13
24.840        60
24.850        47
24.860        27
24.870        33
24.880        27
24.890        20
24.900        53
24.910        33
24.920        40
24.930        33
24.940        33
24.950        33
24.960        47
24.970        40
24.980        20
24.990        47
25.000        27
25.010        40
25.020        33
25.030        40
25.040        40
25.050        13
25.060        13
25.070        27
25.080        40
25.090        33
25.100        47
25.110        47
25.120        53
25.130        40
25.140        67
25.150        27
25.160        13
25.170        53
25.180        60
25.190        60
25.200        33
25.210        13
25.220        53
25.230        27
25.240        33
25.250        20
25.260        13
25.270        27
25.280        13
25.290        27
25.300        33
25.310        20
25.320        13
25.330        33
25.340        13
25.350        47
25.360        33
25.370        40
25.380        13
25.390        20
25.400        40
25.410        40
25.420        20
25.430        27
25.440        40
25.450        40
25.460        33
25.470        20
25.480        67
25.490        27
25.500        27
25.510        67
25.520        27
25.530        27
25.540        27
25.550        27
25.560        33
25.570        33
25.580        27
25.590        40
25.600        53
25.610        53
25.620         7
25.630        33
25.640        33
25.650        13
25.660         7
25.670        13
25.680         0
25.690        33
25.700        40
25.710        60
25.720        33
25.730        13
25.740        13
25.750         7
25.760        13
25.770        27
25.780        20
25.790        13
25.800         7
25.810        27
25.820        33
25.830        33
25.840        53
25.850        33
25.860        33
25.870        53
25.880        27
25.890        27
25.900         7
25.910        33
25.920        27
25.930        20
25.940        27
25.950        20
25.960        60
25.970        27
25.980        47
25.990        47
26.000        27
26.010        40
26.020        40
26.030        40
26.040        13
26.050        20
26.060        27
26.070        20
26.080        13
26.090        33
26.100        40
26.110        20
26.120        27
26.130        33
26.140        40
26.150        33
26.160        40
26.170        13
26.180        33
26.190        80
26.200        47
26.210        33
26.220        47
26.230        40
26.240        33
26.250        13
26.260        20
26.270        13
26.280        27
26.290        40
26.300        40
26.310        40
26.320        20
26.330        20
26.340        20
26.350        20
26.360        20
26.370         7
26.380        13
26.390        73
26.400        40
26.410        20
26.420        20
26.430        20
26.440        20
26.450        33
26.460        40
26.470        80
26.480        40
26.490        20
26.500        27
26.510        40
26.520        20
26.530        40
26.540        20
26.550        27
26.560        47
26.570        27
26.580        20
26.590        33
26.600        27
26.610        33
26.620         7
26.630        33
26.640        40
26.650        53
26.660        13
26.670        40
26.680        33
26.690        40
26.700        27
26.710        47
26.720        20
26.730        27
26.740         7
26.750        33
26.760        33
26.770        47
26.780        33
26.790        40
26.800        33
26.810        40
26.820        13
26.830        60
26.840         7
26.850        13
26.860         7
26.870        13
26.880        33
26.890         7
26.900        27
26.910        27
26.920         7
26.930        40
26.940        40
26.950        20
26.960        27
26.970        47
26.980        27
26.990        40
27.000        33
27.010        27
27.020        47
27.030        40
27.040        33
27.050        27
27.060        33
27.070        20
27.080        53
27.090        40
27.100        27
27.110        47
27.120        47
27.130        20
27.140        27
27.150        13
27.160         7
27.170        40
27.180         7
27.190        47
27.200        47
27.210        47
27.220        20
27.230        20
27.240        33
27.250        20
27.260         7
27.270        33
27.280        13
27.290         7
27.300        20
27.310        13
27.320        33
27.330        33
27.340        20
27.350        20
27.360        13
27.370        27
27.380        40
27.390        40
27.400        27
27.410        20
27.420        40
27.430        47
27.440        13
27.450        33
27.460        20
27.470        20
27.480        27
27.490        40
27.500        13
27.510        40
27.520        33
27.530        27
27.540         7
27.550        33
27.560        33
27.570        13
27.580        33
27.590         0
27.600        20
27.610        13
27.620        60
27.630        20
27.640        20
27.650        47
27.660        33
27.670        27
27.680        20
27.690        33
27.700         7
27.710        13
27.720        20
27.730        13
27.740        20
27.750        20
27.760        13
27.770         7
27.780        33
27.790        20
27.800        67
27.810        47
27.820        40
27.830        47
27.840        33
27.850        13
27.860        13
27.870        20
27.880        27
27.890        53
27.900        27
27.910        67
27.920        33
27.930        60
27.940        47
27.950        20
27.960        40
27.970        33
27.980        53
27.990        27
28.000        40
28.010        40
28.020        27
28.030        27
28.040        27
28.050        73
28.060        33
28.070        27
28.080         7
28.090        33
28.100        20
28.110        40
28.120        27
28.130        27
28.140        27
28.150         7
28.160        27
28.170        20
28.180        47
28.190        27
28.200        27
28.210        27
28.220        20
28.230        53
28.240        73
28.250        40
28.260        20
28.270        27
28.280        27
28.290        33
28.300        27
28.310        20
28.320        40
28.330        47
28.340         7
28.350        40
28.360        27
28.370         7
28.380        33
28.390        20
28.400        13
28.410        20
28.420        47
28.430        27
28.440        47
28.450        20
28.460        33
28.470        13
28.480        27
28.490        33
28.500        33
28.510        20
28.520        33
28.530         7
28.540        27
28.550        20
28.560        13
28.570        27
28.580        47
28.590        60
28.600        13
28.610        20
28.620        27
28.630         7
28.640         7
28.650        40
28.660        27
28.670        40
28.680        53
28.690        53
28.700        33
28.710        47
28.720         7
28.730        27
28.740        27
28.750        20
28.760        27
28.770        47
28.780        27
28.790        20
28.800        27
28.810        33
28.820        40
28.830        53
28.840        20
28.850        27
28.860        20
28.870        33
28.880        20
28.890        13
28.900        33
28.910        13
28.920        53
28.930        33
28.940        33
28.950        33
28.960        40
28.970        40
28.980        27
28.990        60
29.000        33
29.010        27
29.020         7
29.030        13
29.040        13
29.050        47
29.060        33
29.070        13
29.080        40
29.090        53
29.100        27
29.110        27
29.120        47
29.130        13
29.140        53
29.150        20
29.160        20
29.170        13
29.180        27
29.190        47
29.200        53
29.210        47
29.220        47
29.230        33
29.240        13
29.250        33
29.260        40
29.270        20
29.280        67
29.290        20
29.300        27
29.310        33
29.320        80
29.330        80
29.340        13
29.350        53
29.360        27
29.370        67
29.380        20
29.390        40
29.400        20
29.410        47
29.420        13
29.430        27
29.440        27
29.450        20
29.460        27
29.470        13
29.480        20
29.490        27
29.500         7
29.510        27
29.520        20
29.530        13
29.540        20
29.550        33
29.560        53
29.570        20
29.580        20
29.590        20
29.600        20
29.610        47
29.620        40
29.630        27
29.640        33
29.650        60
29.660        13
29.670        40
29.680        53
29.690        13
29.700        13
29.710        33
29.720        27
29.730        20
29.740        40
29.750        33
29.760        20
29.770        40
29.780        13
29.790        40
29.800        47
29.810         7
29.820        40
29.830        27
29.840        27
29.850        40
29.860        53
29.870        47
29.880         0
29.890         7
29.900        27
29.910        33
29.920        20
29.930        53
29.940        33
29.950        20
29.960        53
29.970        40
29.980        80
29.990        27
30.000        33
30.010        27
30.020        13
30.030        33
30.040        67
30.050        80
30.060        27
30.070        47
30.080        33
30.090        20
30.100        53
30.110        53
30.120        47
30.130        67
30.140        33
30.150        27
30.160        53
30.170        27
30.180        93
30.190        20
30.200        47
30.210        13
30.220        47
30.230        40
30.240        33
30.250        20
30.260         7
30.270        27
30.280        33
30.290        47
30.300        20
30.310        33
30.320        40
30.330        60
30.340        67
30.350        53
30.360        60
30.370        33
30.380        53
30.390        47
30.400        27
30.410        33
30.420        60
30.430        67
30.440        33
30.450        20
30.460        20
30.470        47
30.480        60
30.490        20
30.500        40
30.510        20
30.520        20
30.530        67
30.540        60
30.550        33
30.560        87
30.570        67
30.580        20
30.590        47
30.600        73
30.610        73
30.620        73
30.630        87
30.640        47
30.650        80
30.660        67
30.670        80
30.680        87
30.690       107
30.700       127
30.710       187
30.720        67
30.730       187
30.740       233
30.750       253
30.760       333
30.770       273
30.780       273
30.790       260
30.800       393
30.810       440
30.820       486
30.830       633
30.840       666
30.850       840
30.860       800
30.870      1006
30.880      1326
30.890      1193
30.900      1413
30.910      1786
30.920      1919
30.930      2152
30.940      2572
30.950      2566
30.960      2679
30.970      2932
30.980      2599
30.990      2832
31.000      2512
31.010      2732
31.020      2406
31.030      2252
31.040      2053
31.050      1686
31.060      1613
31.070      1186
31.080      1173
31.090      1113
31.100       693
31.110       633
31.120       593
31.130       426
31.140       420
31.150       307
31.160       273
31.170       153
31.180       180
31.190       133
31.200       113
31.210       127
31.220       133
31.230       140
31.240        73
31.250        73
31.260        80
31.270        47
31.280        87
31.290        73
31.300        40
31.310        40
31.320        47
31.330        60
31.340        40
31.350        80
31.360        40
31.370        47
31.380        53
31.390        87
31.400        60
31.410        80
31.420        27
31.430        40
31.440        60
31.450        27
31.460        47
31.470        40
31.480        33
31.490        60
31.500        20
31.510        20
31.520        33
31.530        20
31.540        40
31.550        33
31.560        33
31.570        13
31.580        87
31.590        60
31.600        33
31.610        40
31.620        33
31.630        60
31.640        20
31.650         7
31.660        47
31.670        33
31.680        87
31.690        33
31.700        20
31.710        53
31.720        47
31.730        60
31.740        53
31.750        60
31.760        40
31.770        40
31.780        40
31.790        33
31.800        47
31.810        80
31.820        20
31.830        67
31.840        33
31.850        27
31.860        47
31.870        13
31.880        27
31.890        40
31.900        40
31.910        47
31.920        33
31.930        53
31.940        33
31.950        33
31.960        13
31.970         7
31.980        47
31.990         0
32.000        20
32.010        13
32.020        60
32.030        33
32.040        47
32.050         7
32.060        40
32.070        27
32.080        40
32.090        27
32.100        20
32.110        53
32.120        27
32.130        40
32.140        13
32.150        73
32.160        33
32.170        47
32.180        40
32.190        27
32.200        33
32.210        67
32.220         7
32.230        20
32.240        20
32.250        67
32.260        33
32.270        27
32.280        47
32.290        33
32.300        40
32.310        33
32.320        27
32.330        13
32.340        53
32.350        60
32.360        40
32.370         7
32.380        33
32.390        20
32.400        27
32.410        33
32.420        33
32.430        40
32.440        13
32.450        27
32.460         0
32.470        40
32.480        20
32.490        40
32.500        33
32.510        33
32.520        47
32.530        27
32.540        20
32.550        27
32.560        13
32.570        20
32.580        53
32.590        33
32.600        33
32.610        13
32.620        33
32.630        40
32.640        33
32.650         0
32.660        60
32.670        27
32.680        33
32.690         0
32.700        20
32.710        40
32.720        13
32.730        33
32.740        60
32.750        60
32.760        27
32.770        33
32.780        40
32.790        33
32.800        40
32.810        13
32.820        33
32.830        20
32.840        20
32.850         7
32.860        40
32.870        47
32.880        47
32.890        47
32.900         7
32.910        40
32.920         7
32.930        33
32.940        47
32.950        40
32.960        33
32.970         7
32.980        27
32.990        20
33.000        27
33.010         0
33.020        33
33.030        13
33.040        27
33.050        13
33.060        53
33.070        13
33.080        53
33.090        27
33.100        27
33.110        13
33.120        47
33.130        27
33.140        27
33.150         0
33.160        60
33.170        13
33.180        47
33.190        33
33.200        27
33.210        20
33.220        20
33.230        27
33.240        20
33.250        20
33.260        33
33.270        20
33.280        47
33.290        20
33.300        20
33.310        13
33.320        47
33.330        20
33.340        20
33.350        27
33.360        47
33.370        27
33.380        40
33.390        33
33.400        27
33.410        27
33.420        20
33.430        20
33.440        33
33.450        40
33.460        13
33.470        40
33.480        20
33.490        20
33.500        27
33.510        13
33.520        13
33.530        27
33.540        47
33.550        33
33.560        27
33.570        20
33.580        20
33.590        20
33.600        53
33.610        33
33.620         7
33.630        53
33.640        40
33.650        40
33.660        33
33.670        20
33.680        67
33.690        20
33.700        53
33.710        33
33.720        20
33.730        33
33.740        33
33.750        20
33.760        40
33.770         7
33.780        27
33.790        33
33.800        20
33.810        27
33.820        27
33.830        13
33.840        20
33.850        20
33.860        20
33.870        33
33.880        27
33.890        13
33.900        27
33.910        47
33.920        33
33.930        40
33.940        20
33.950        20
33.960        33
33.970        33
33.980        20
33.990        47
34.000        20
34.010        53
34.020        20
34.030        13
34.040        27
34.050        33
34.060        27
34.070        20
34.080         7
34.090        20
34.100        13
34.110        53
34.120        13
34.130        33
34.140        33
34.150        20
34.160        13
34.170         7
34.180        33
34.190        27
34.200        40
34.210        53
34.220        20
34.230        27
34.240        20
34.250        20
34.260        27
34.270        20
34.280         7
34.290        13
34.300        20
34.310         0
34.320        47
34.330        33
34.340        47
34.350        27
34.360        27
34.370         7
34.380        27
34.390        13
34.400        40
34.410         7
34.420        20
34.430         0
34.440        20
34.450        33
34.460        40
34.470        40
34.480        13
34.490        27
34.500        20
34.510        40
34.520        60
34.530        33
34.540        27
34.550        27
34.560         7
34.570         0
34.580        27
34.590        27
34.600         7
34.610        13
34.620        33
34.630        13
34.640         7
34.650        20
34.660        20
34.670        33
34.680        20
34.690        47
34.700        33
34.710         7
34.720        40
34.730        27
34.740        40
34.750        60
34.760        13
34.770        20
34.780        13
34.790         7
34.800        40
34.810        20
34.820        40
34.830        27
34.840        27
34.850        40
34.860         7
34.870        27
34.880        40
34.890        27
34.900        20
34.910        33
34.920         7
34.930        13
34.940        27
34.950        13
34.960        20
34.970        53
34.980        27
34.990        33
35.000        20
35.010        13
35.020        33
35.030        33
35.040        20
35.050         0
35.060         7
35.070        33
35.080        27
35.090        33
35.100        20
35.110        20
35.120        27
35.130        47
35.140        27
35.150        20
35.160        33
35.170        40
35.180        73
35.190        53
35.200        73
35.210        80
35.220        40
35.230        40
35.240        53
35.250        53
35.260        20
35.270        40
35.280        20
35.290        33
35.300        20
35.310        20
35.320        33
35.330        20
35.340        27
35.350         7
35.360        13
35.370        13
35.380        27
35.390        47
35.400        20
35.410        20
35.420        20
35.430        33
35.440        20
35.450        20
35.460         7
35.470        20
35.480        27
35.490         7
35.500        27
35.510        20
35.520         0
35.530        27
35.540        40
35.550        60
35.560        13
35.570        20
35.580        27
35.590        40
35.600        27
35.610        27
35.620        33
35.630        27
35.640        20
35.650         7
35.660        40
35.670        13
35.680        33
35.690        13
35.700        20
35.710        20
35.720        33
35.730        20
35.740        13
35.750        13
35.760        33
35.770        13
35.780        20
35.790        20
35.800        13
35.810        40
35.820         7
35.830        20
35.840        40
35.850         7
35.860        27
35.870        33
35.880        33
35.890        33
35.900        20
35.910         7
35.920         7
35.930        20
35.940        33
35.950        33
35.960        13
35.970        27
35.980         7
35.990        13
36.000        47
36.010        20
36.020        40
36.030         7
36.040        33
36.050        20
36.060        20
36.070        20
36.080        20
36.090        33
36.100        20
36.110        33
36.120        13
36.130        13
36.140        27
36.150        13
36.160         0
36.170        20
36.180        20
36.190         0
36.200        40
36.210        20
36.220        33
36.230        20
36.240        27
36.250        47
36.260        20
36.270         0
36.280        40
36.290        33
36.300        27
36.310        33
36.320        20
36.330        13
36.340        33
36.350        13
36.360         7
36.370         0
36.380        27
36.390        27
36.400        27
36.410        27
36.420        20
36.430        20
36.440        20
36.450        27
36.460        20
36.470        27
36.480        13
36.490         7
36.500         7
36.510        13
36.520        13
36.530        20
36.540         7
36.550        40
36.560        13
36.570        13
36.580        13
36.590        60
36.600        20
36.610        20
36.620        33
36.630        20
36.640        13
36.650         0
36.660        27
36.670        27
36.680        27
36.690        20
36.700        20
36.710        20
36.720        40
36.730        27
36.740        33
36.750        20
36.760         7
36.770        20
36.780        27
36.790        27
36.800        13
36.810        27
36.820        13
36.830         7
36.840        20
36.850        47
36.860        33
36.870        27
36.880        20
36.890        40
36.900        13
36.910        33
36.920        27
36.930        13
36.940         7
36.950        33
36.960        13
36.970        27
36.980        13
36.990        27
37.000        33
37.010        20
37.020        13
37.030        20
37.040        33
37.050        13
37.060         7
37.070        60
37.080         7
37.090        13
37.100        20
37.110         7
37.120        27
37.130        20
37.140        40
37.150        20
37.160        20
37.170        40
37.180        40
37.190        13
37.200        13
37.210        53
37.220        13
37.230        27
37.240         0
37.250        13
37.260        40
37.270        67
37.280        13
37.290        13
37.300        60
37.310        27
37.320        20
37.330        27
37.340        40
37.350        27
37.360        27
37.370        40
37.380        20
37.390         7
37.400        20
37.410        20
37.420        13
37.430        20
37.440         7
37.450        40
37.460         7
37.470        47
37.480        33
37.490        27
37.500        33
37.510        20
37.520        33
37.530         7
37.540        47
37.550        20
37.560        40
37.570        47
37.580        40
37.590        40
37.600        13
37.610        13
37.620        33
37.630        40
37.640        33
37.650        13
37.660        13
37.670        27
37.680        67
37.690        40
37.700         0
37.710        13
37.720         7
37.730        47
37.740        27
37.750        13
37.760        13
37.770         7
37.780        33
37.790         7
37.800        20
37.810        40
37.820         7
37.830         7
37.840        20
37.850        40
37.860        40
37.870         7
37.880        13
37.890        33
37.900        33
37.910        53
37.920        20
37.930        13
37.940        27
37.950         7
37.960        20
37.970        27
37.980        13
37.990        27
38.000        13
38.010        20
38.020        13
38.030        20
38.040        33
38.050        40
38.060        20
38.070        27
38.080        33
38.090         7
38.100        20
38.110        27
38.120        40
38.130        67
38.140        27
38.150        67
38.160        27
38.170        33
38.180        47
38.190        20
38.200        27
38.210        27
38.220        27
38.230        87
38.240        47
38.250        20
38.260        53
38.270        33
38.280        47
38.290        53
38.300        47
38.310        40
38.320        33
38.330        60
38.340        20
38.350        20
38.360        27
38.370        47
38.380        13
38.390        53
38.400        13
38.410        20
38.420        27
38.430        33
38.440         7
38.450         7
38.460        13
38.470        20
38.480        27
38.490        20
38.500        13
38.510        40
38.520        27
38.530        27
38.540         7
38.550        33
38.560        20
38.570        33
38.580        27
38.590        20
38.600        27
38.610        13
38.620        27
38.630        40
38.640        13
38.650        20
38.660        67
38.670        33
38.680        20
38.690        40
38.700         7
38.710        67
38.720        47
38.730        40
38.740        13
38.750        20
38.760        13
38.770         7
38.780        20
38.790        20
38.800        60
38.810        13
38.820        40
38.830        33
38.840        20
38.850        47
38.860        33
38.870        20
38.880        13
38.890        20
38.900         7
38.910        33
38.920        20
38.930        33
38.940        40
38.950        27
38.960        20
38.970        27
38.980        40
38.990        40
39.000        33
39.010        53
39.020        33
39.030        53
39.040        20
39.050        47
39.060        13
39.070        13
39.080        20
39.090        33
39.100        13
39.110        20
39.120        13
39.130         0
39.140         7
39.150         7
39.160        27
39.170        27
39.180        13
39.190        13
39.200        13
39.210         7
39.220        47
39.230        27
39.240        33
39.250        20
39.260        27
39.270        27
39.280        27
39.290        20
39.300        13
39.310         7
39.320         7
39.330        27
39.340        53
39.350        20
39.360         7
39.370         0
39.380        27
39.390        47
39.400        40
39.410        33
39.420        40
39.430        33
39.440        13
39.450        33
39.460        53
39.470        53
39.480        13
39.490        13
39.500         7
39.510        40
39.520        20
39.530        13
39.540        27
39.550        27
39.560        47
39.570        13
39.580        20
39.590        20
39.600         0
39.610         7
39.620         7
39.630        20
39.640        33
39.650        27
39.660        20
39.670        20
39.680        27
39.690        20
39.700        33
39.710        27
39.720         7
39.730        13
39.740        13
39.750        13
39.760        13
39.770        33
39.780         7
39.790        20
39.800        20
39.810        20
39.820        27
39.830        20
39.840         7
39.850        13
39.860        13
39.870        27
39.880        40
39.890        20
39.900        13
39.910        13
39.920         7
39.930         7
39.940        27
39.950        27
39.960        27
39.970        47
39.980        13
39.990         7
40.000         7
40.010        27
40.020         7
40.030        13
40.040         7
40.050        27
40.060        13
40.070         7
40.080        20
40.090        40
40.100         7
40.110         7
40.120         7
40.130        13
40.140        20
40.150        13
40.160        13
40.170        20
40.180        13
40.190        20
40.200        20
40.210        27
40.220         0
40.230         7
40.240        67
40.250        33
40.260         7
40.270        20
40.280        27
40.290         7
40.300        13
40.310        13
40.320        20
40.330        40
40.340         7
40.350        33
40.360        40
40.370        13
40.380        33
40.390        27
40.400        20
40.410        20
40.420        47
40.430        13
40.440         0
40.450         0
40.460        27
40.470        27
40.480        33
40.490         7
40.500        47
40.510        27
40.520        20
40.530        27
40.540        20
40.550         0
40.560        13
40.570        40
40.580         7
40.590         7
40.600         7
40.610        13
40.620         7
40.630         7
40.640        13
40.650        20
40.660        20
40.670        20
40.680        27
40.690         0
40.700        40
40.710         7
40.720        20
40.730        13
40.740        40
40.750         7
40.760        13
40.770         7
40.780        20
40.790         7
40.800        27
40.810        47
40.820        20
40.830        13
40.840        27
40.850        40
40.860        27
40.870        13
40.880        33
40.890        33
40.900         7
40.910        13
40.920        20
40.930        20
40.940        13
40.950        20
40.960        20
40.970        47
40.980        13
40.990        33
41.000         7
41.010        20
41.020        20
41.030        13
41.040        13
41.050         7
41.060        40
41.070         0
41.080        27
41.090        20
41.100        27
41.110        47
41.120        27
41.130        33
41.140        20
41.150        13
41.160         7
41.170        33
41.180         0
41.190        33
41.200        13
41.210        13
41.220         7
41.230        27
41.240         7
41.250         7
41.260        53
41.270        33
41.280         0
41.290        47
41.300         7
41.310        13
41.320        13
41.330        27
41.340        13
41.350        33
41.360        40
41.370         7
41.380        33
41.390        20
41.400        33
41.410        20
41.420        33
41.430        27
41.440        27
41.450        27
41.460        13
41.470        27
41.480        13
41.490        33
41.500         7
41.510        60
41.520        27
41.530         7
41.540         7
41.550        20
41.560        27
41.570         0
41.580         0
41.590        67
41.600        20
41.610        47
41.620        53
41.630        40
41.640        60
41.650        53
41.660        33
41.670        87
41.680        13
41.690        67
41.700        80
41.710        47
41.720        53
41.730        60
41.740        60
41.750        40
41.760        67
41.770        33
41.780        60
41.790        40
41.800        27
41.810        33
41.820        27
41.830        60
41.840        53
41.850        33
41.860        20
41.870        40
41.880        13
41.890        20
41.900         0
41.910        40
41.920        33
41.930        13
41.940         7
41.950        33
41.960        20
41.970        40
41.980        47
41.990         7
42.000        33
42.010        40
42.020        33
42.030        27
42.040        13
42.050        13
42.060        13
42.070         0
42.080        20
42.090        13
42.100        13
42.110        13
42.120        20
42.130        27
42.140        47
42.150        13
42.160        27
42.170         0
42.180        13
42.190         0
42.200        27
42.210        27
42.220        27
42.230        33
42.240        33
42.250        33
42.260         7
42.270        20
42.280        13
42.290        13
42.300         7
42.310        20
42.320        13
42.330         7
42.340        20
42.350        20
42.360        27
42.370        33
42.380        40
42.390        33
42.400         7
42.410        27
42.420        33
42.430        20
42.440        20
42.450        27
42.460        40
42.470        27
42.480        40
42.490        13
42.500        33
42.510        20
42.520        13
42.530         0
42.540        27
42.550        20
42.560        33
42.570         7
42.580        33
42.590        20
42.600        27
42.610        13
42.620        13
42.630        13
42.640        13
42.650        27
42.660        40
42.670        27
42.680        20
42.690         7
42.700        27
42.710        20
42.720        20
42.730        27
42.740         7
42.750        13
42.760        13
42.770        40
42.780        40
42.790        33
42.800         7
42.810        13
42.820        13
42.830        33
42.840        20
42.850         7
42.860        20
42.870        33
42.880        20
42.890        13
42.900        47
42.910        33
42.920        20
42.930        33
42.940        20
42.950         7
42.960        20
42.970        67
42.980        40
42.990        27
43.000        27
43.010        47
43.020        47
43.030        13
43.040        33
43.050         7
43.060        13
43.070        40
43.080        20
43.090        13
43.100        33
43.110        40
43.120        27
43.130        27
43.140         7
43.150        27
43.160        13
43.170        27
43.180        13
43.190        40
43.200        33
43.210         7
43.220        13
43.230        20
43.240        33
43.250        33
43.260        27
43.270        20
43.280        40
43.290        60
43.300        33
43.310        27
43.320        53
43.330        33
43.340        67
43.350        67
43.360        47
43.370        60
43.380        33
43.390         7
43.400        47
43.410        33
43.420        27
43.430        33
43.440        27
43.450        27
43.460        20
43.470        27
43.480        13
43.490        13
43.500         7
43.510        33
43.520         7
43.530        13
43.540        13
43.550        13
43.560        13
43.570        40
43.580        27
43.590        27
43.600        33
43.610        20
43.620         7
43.630        33
43.640        27
43.650        47
43.660        20
43.670        20
43.680        27
43.690        60
43.700        27
43.710         7
43.720        27
43.730        20
43.740        20
43.750        13
43.760        27
43.770        20
43.780        27
43.790        13
43.800        20
43.810        27
43.820         7
43.830         7
43.840        33
43.850        20
43.860        13
43.870        33
43.880        33
43.890        40
43.900        20
43.910        20
43.920         0
43.930        27
43.940        27
43.950        20
43.960        33
43.970         7
43.980         7
43.990        13
44.000        13
44.010        20
44.020        27
44.030         7
44.040        27
44.050        33
44.060        20
44.070        40
44.080        33
44.090        33
44.100        20
44.110        20
44.120        13
44.130        27
44.140        27
44.150        27
44.160        13
44.170         7
44.180        13
44.190        20
44.200        13
44.210        13
44.220        13
44.230        27
44.240        27
44.250        20
44.260        20
44.270        33
44.280        20
44.290        27
44.300        20
44.310        20
44.320        40
44.330        20
44.340        13
44.350        20
44.360        13
44.370        20
44.380         7
44.390        33
44.400        13
44.410        13
44.420        20
44.430        27
44.440        40
44.450        13
44.460        33
44.470         7
44.480        33
44.490        47
44.500        33
44.510        33
44.520        47
44.530         7
44.540        13
44.550        40
44.560        40
44.570        13
44.580        33
44.590        33
44.600        40
44.610        27
44.620        40
44.630        47
44.640        20
44.650        20
44.660        27
44.670        13
44.680         7
44.690        13
44.700        13
44.710        33
44.720        13
44.730        13
44.740        20
44.750        13
44.760        20
44.770        20
44.780        27
44.790        27
44.800         7
44.810        13
44.820         7
44.830        13
44.840        13
44.850        33
44.860        13
44.870        20
44.880        33
44.890        13
44.900        33
44.910        13
44.920        27
44.930         7
44.940        13
44.950         7
44.960        20
44.970        13
44.980        27
44.990        13
45.000        20
45.010        13
45.020         7
45.030        13
45.040        27
45.050        13
45.060        27
45.070        27
45.080        27
45.090         7
45.100        13
45.110        20
45.120        33
45.130        33
45.140        27
45.150        20
45.160        27
45.170        13
45.180        40
45.190        20
45.200         7
45.210        20
45.220        20
45.230         7
45.240         0
45.250        40
45.260        13
45.270        33
45.280         7
45.290        20
45.300        13
45.310        20
45.320         7
45.330        20
45.340         7
45.350        27
45.360        13
45.370        33
45.380        40
45.390         7
45.400         0
45.410        13
45.420        27
45.430        20
45.440         7
45.450        27
45.460        20
45.470         7
45.480        20
45.490        27
45.500        13
45.510        13
45.520         7
45.530        13
45.540         7
45.550        33
45.560        40
45.570         7
45.580        33
45.590         0
45.600        20
45.610        13
45.620        20
45.630         0
45.640        33
45.650        40
45.660        40
45.670        40
45.680        27
45.690         7
45.700         7
45.710        13
45.720        20
45.730         7
45.740        13
45.750        20
45.760        33
45.770        20
45.780        20
45.790        33
45.800        27
45.810         7
45.820         7
45.830        20
45.840        40
45.850        20
45.860        13
45.870        13
45.880        20
45.890         7
45.900        13
45.910        13
45.920        20
45.930        40
45.940        40
45.950        40
45.960        27
45.970        20
45.980        20
45.990         0
46.000        20
46.010        27
46.020        13
46.030        27
46.040        13
46.050        13
46.060        20
46.070        20
46.080        13
46.090         7
46.100        47
46.110        27
46.120        13
46.130        20
46.140         7
46.150         7
46.160         0
46.170         0
46.180        20
46.190        40
46.200        20
46.210        20
46.220        13
46.230        27
46.240         7
46.250        13
46.260        20
46.270        20
46.280        40
46.290        27
46.300        20
46.310        20
46.320        20
46.330        27
46.340        27
46.350        13
46.360        33
46.370         7
46.380         0
46.390        13
46.400        40
46.410        13
46.420        20
46.430        33
46.440        40
46.450        27
46.460        27
46.470         7
46.480        20
46.490        27
46.500         7
46.510        33
46.520        33
46.530        20
46.540        33
46.550        27
46.560        20
46.570        27
46.580        13
46.590        33
46.600        27
46.610        20
46.620         7
46.630        20
46.640        20
46.650        20
46.660         0
46.670        20
46.680        20
46.690        13
46.700        20
46.710        13
46.720        27
46.730        33
46.740        20
46.750         7
46.760         7
46.770        13
46.780        53
46.790        20
46.800        27
46.810        13
46.820         7
46.830        20
46.840        13
46.850        27
46.860        40
46.870        47
46.880        33
46.890         7
46.900        20
46.910        20
46.920         7
46.930        20
46.940         7
46.950        33
46.960        13
46.970        33
46.980        27
46.990        13
47.000         7
47.010        13
47.020        27
47.030        33
47.040         7
47.050        20
47.060        33
47.070        27
47.080         7
47.090        27
47.100        20
47.110         7
47.120        33
47.130         7
47.140         7
47.150        13
47.160         7
47.170        33
47.180        27
47.190        20
47.200        40
47.210        27
47.220        20
47.230        13
47.240        13
47.250        13
47.260         7
47.270        20
47.280        27
47.290        40
47.300        40
47.310         7
47.320        27
47.330        13
47.340        13
47.350        20
47.360        73
47.370        13
47.380        27
47.390        20
47.400        20
47.410         7
47.420        33
47.430        20
47.440        20
47.450        40
47.460        27
47.470        20
47.480        20
47.490        33
47.500        13
47.510        40
47.520        40
47.530        27
47.540        20
47.550        13
47.560        27
47.570        27
47.580         7
47.590        27
47.600        27
47.610        13
47.620        13
47.630         7
47.640        20
47.650         7
47.660         7
47.670        47
47.680         7
47.690        13
47.700        33
47.710        13
47.720        13
47.730        20
47.740        13
47.750        13
47.760        27
47.770        13
47.780        13
47.790        33
47.800        27
47.810         7
47.820        27
47.830        13
47.840        20
47.850        27
47.860        13
47.870        27
47.880        13
47.890        20
47.900        33
47.910        20
47.920         7
47.930        33
47.940        33
47.950         7
47.960        27
47.970        40
47.980         0
47.990        27
48.000        27
48.010        33
48.020         7
48.030        27
48.040        27
48.050        13
48.060         0
48.070         0
48.080         0
48.090         7
48.100        13
48.110        33
48.120         0
48.130        20
48.140        27
48.150        20
48.160        33
48.170        27
48.180        27
48.190        20
48.200         7
48.210        47
48.220        33
48.230        20
48.240        20
48.250         7
48.260        40
48.270        20
48.280        33
48.290        27
48.300        13
48.310        27
48.320        13
48.330        27
48.340        27
48.350        13
48.360        40
48.370        20
48.380        67
48.390        27
48.400        13
48.410        40
48.420        27
48.430         0
48.440        13
48.450        13
48.460        20
48.470        20
48.480        27
48.490        27
48.500        13
48.510         0
48.520        27
48.530        27
48.540        33
48.550         0
48.560         0
48.570        40
48.580        27
48.590         7
48.600        13
48.610        20
48.620        33
48.630        13
48.640        20
48.650         7
48.660        27
48.670        13
48.680        20
48.690        20
48.700        27
48.710         0
48.720        27
48.730         7
48.740        27
48.750         7
48.760        20
48.770         7
48.780        13
48.790        13
48.800        13
48.810         7
48.820         7
48.830         7
48.840        47
48.850        13
48.860        13
48.870        13
48.880        13
48.890        33
48.900        20
48.910        27
48.920         0
48.930        27
48.940        33
48.950        20
48.960        13
48.970        13
48.980         0
48.990        13
49.000        33
49.010         7
49.020         0
49.030        13
49.040        13
49.050        20
49.060        20
49.070        20
49.080        20
49.090        20
49.100        13
49.110        27
49.120         7
49.130        60
49.140        27
49.150        33
49.160        27
49.170        20
49.180        13
49.190         0
49.200         7
49.210        13
49.220        20
49.230        27
49.240        20
49.250        27
49.260        20
49.270        33
49.280         7
49.290         7
49.300        20
49.310        13
49.320         0
49.330        33
49.340        20
49.350        20
49.360        27
49.370        20
49.380         7
49.390        20
49.400         7
49.410        20
49.420        13
49.430        20
49.440        13
49.450        20
49.460        13
49.470         0
49.480        20
49.490        27
49.500        20
49.510        20
49.520         7
49.530        13
49.540        20
49.550        20
49.560         0
49.570        20
49.580         7
49.590        33
49.600        13
49.610        20
49.620        13
49.630        13
49.640        27
49.650        20
49.660        33
49.670        60
49.680         0
49.690        13
49.700        13
49.710        13
49.720        13
49.730         0
49.740        13
49.750        13
49.760         7
49.770         7
49.780         7
49.790        33
49.800        13
49.810         0
49.820        13
49.830        27
49.840        27
49.850         7
49.860        13
49.870         0
49.880        13
49.890        20
49.900        13
49.910        20
49.920        40
49.930         7
49.940        33
49.950         7
49.960         0
49.970        20
49.980         7
49.990         7
50.000        40
50.010        27
50.020        67
50.030         7
50.040        13
50.050         7
50.060         0
50.070        20
50.080        20
50.090         7
50.100        13
50.110        27
50.120         0
50.130        20
50.140        13
50.150        27
50.160        27
50.170        33
50.180        20
50.190        20
50.200        13
50.210        27
50.220        13
50.230        13
50.240        53
50.250        27
50.260        27
50.270        27
50.280        13
50.290        13
50.300         7
50.310        13
50.320        13
50.330         7
50.340        13
50.350        27
50.360        33
50.370         0
50.380         7
50.390        40
50.400        27
50.410         0
50.420        20
50.430        33
50.440        13
50.450        33
50.460        13
50.470        13
50.480        27
50.490        33
50.500         7
50.510        40
50.520        13
50.530         7
50.540        20
50.550        40
50.560         7
50.570         7
50.580        27
50.590        20
50.600         7
50.610        27
50.620         7
50.630        13
50.640        27
50.650        47
50.660        13
50.670         7
50.680         7
50.690         7
50.700        20
50.710         7
50.720         7
50.730        20
50.740         7
50.750        13
50.760        33
50.770        53
50.780        13
50.790        27
50.800         7
50.810        33
50.820        33
50.830        13
50.840        27
50.850        20
50.860        13
50.870        20
50.880        13
50.890        33
50.900        27
50.910        13
50.920         7
50.930        20
50.940        20
50.950        20
50.960        20
50.970        13
50.980         0
50.990        13
51.000        13
51.010        13
51.020        20
51.030         7
51.040        40
51.050         7
51.060        27
51.070        40
51.080         0
51.090        20
51.100        13
51.110        13
51.120        13
51.130        13
51.140        27
51.150         7
51.160         7
51.170         0
51.180        33
51.190        13
51.200        13
51.210        20
51.220        20
51.230        13
51.240        13
51.250         7
51.260         0
51.270        20
51.280        13
51.290         7
51.300        13
51.310        20
51.320        27
51.330         7
51.340        13
51.350         0
51.360        13
51.370        33
51.380         7
51.390         7
51.400        20
51.410        13
51.420        13
51.430        13
51.440        20
51.450        13
51.460        33
51.470         7
51.480        13
51.490         7
51.500        13
51.510         0
51.520        33
51.530        20
51.540        27
51.550         7
51.560        13
51.570        27
51.580         0
51.590         7
51.600         0
51.610        27
51.620        20
51.630         7
51.640        13
51.650        13
51.660         0
51.670        27
51.680        20
51.690        13
51.700         7
51.710        13
51.720         7
51.730        13
51.740        27
51.750        13
51.760        20
51.770         7
51.780         7
51.790        13
51.800        13
51.810        20
51.820        13
51.830        33
51.840        13
51.850        27
51.860        20
51.870        13
51.880        27
51.890         7
51.900        20
51.910         7
51.920        20
51.930         0
51.940        40
51.950         0
51.960        20
51.970        20
51.980        33
51.990        13
52.000         0
52.010        27
52.020        20
52.030        13
52.040        20
52.050        27
52.060        20
52.070         7
52.080        20
52.090        20
52.100         0
52.110         7
52.120        33
52.130        20
52.140         7
52.150        47
52.160        20
52.170        20
52.180         7
52.190        20
52.200        27
52.210         7
52.220        13
52.230         7
52.240        13
52.250        13
52.260        13
52.270         7
52.280        13
52.290        13
52.300         0
52.310        27
52.320        27
52.330        20
52.340        13
52.350        13
52.360        13
52.370        33
52.380         7
52.390        20
52.400        13
52.410        20
52.420        13
52.430        20
52.440        27
52.450         7
52.460        20
52.470        20
52.480         0
52.490        27
52.500         7
52.510        20
52.520        20
52.530        27
52.540        13
52.550        20
52.560         0
52.570        13
52.580        20
52.590        20
52.600        20
52.610        20
52.620        27
52.630        33
52.640        20
52.650        27
52.660         7
52.670        33
52.680        13
52.690        40
52.700        40
52.710         7
52.720        13
52.730        20
52.740         7
52.750        27
52.760        20
52.770         0
52.780        20
52.790        20
52.800        13
52.810        27
52.820         7
52.830         7
52.840        20
52.850        13
52.860         7
52.870         7
52.880         0
52.890        20
52.900        27
52.910         7
52.920         7
52.930        27
52.940        27
52.950        20
52.960         0
52.970         7
52.980        33
52.990         7
53.000        20
53.010        20
53.020        27
53.030         7
53.040         7
53.050        40
53.060         7
53.070        20
53.080        13
53.090        33
53.100        20
53.110        13
53.120         7
53.130        13
53.140         0
53.150         7
53.160        27
53.170        27
53.180         7
53.190        13
53.200        13
53.210        20
53.220         7
53.230        13
53.240        27
53.250        13
53.260         7
53.270        20
53.280        53
53.290         7
53.300        33
53.310        40
53.320         7
53.330         7
53.340        27
53.350        13
53.360        27
53.370        13
53.380        20
53.390        13
53.400        20
53.410        20
53.420        27
53.430        13
53.440        20
53.450        13
53.460         7
53.470        33
53.480        20
53.490        20
53.500        13
53.510        13
53.520        13
53.530        33
53.540        20
53.550        20
53.560        47
53.570        27
53.580        27
53.590        13
53.600        13
53.610        20
53.620        40
53.630        40
53.640        20
53.650        20
53.660         0
53.670        13
53.680        20
53.690        13
53.700        20
53.710         7
53.720        13
53.730        33
53.740         7
53.750         7
53.760         7
53.770         7
53.780        33
53.790        20
53.800        27
53.810        13
53.820        20
53.830        13
53.840        27
53.850         7
53.860        27
53.870        20
53.880        13
53.890        33
53.900        33
53.910         0
53.920        40
53.930        27
53.940         0
53.950         7
53.960        13
53.970        33
53.980        27
53.990        27
54.000         7
54.010        20
54.020        20
54.030        13
54.040        40
54.050        20
54.060        20
54.070        33
54.080        27
54.090         7
54.100         7
54.110        13
54.120        27
54.130         7
54.140        13
54.150        20
54.160         7
54.170        13
54.180         7
54.190        13
54.200        20
54.210         7
54.220        27
54.230        20
54.240         0
54.250         0
54.260         7
54.270         7
54.280        20
54.290        13
54.300        20
54.310        27
54.320        13
54.330        13
54.340         7
54.350        27
54.360        13
54.370        20
54.380         7
54.390        20
54.400        27
54.410        13
54.420         7
54.430        13
54.440        13
54.450        33
54.460        13
54.470        20
54.480        27
54.490        13
54.500        27
54.510        40
54.520        13
54.530        13
54.540        27
54.550        20
54.560        47
54.570        20
54.580        20
54.590        13
54.600        20
54.610         0
54.620        13
54.630        13
54.640        13
54.650        20
54.660        27
54.670        13
54.680         0
54.690        27
54.700        20
54.710        33
54.720        20
54.730        13
54.740        33
54.750        20
54.760        27
54.770        40
54.780        27
54.790         7
54.800        27
54.810         0
54.820        20
54.830        27
54.840         7
54.850        13
54.860        40
54.870        13
54.880        27
54.890        13
54.900        40
54.910        53
54.920        13
54.930        33
54.940        13
54.950        33
54.960        67
54.970        60
54.980        40
54.990        60
55.000        47
55.010        67
55.020        67
55.030        67
55.040        87
55.050       100
55.060        87
55.070       100
55.080       107
55.090        80
55.100       100
55.110        67
55.120       133
55.130       107
55.140       160
55.150       140
55.160       147
55.170        87
55.180        87
55.190       160
55.200        53
55.210       107
55.220        80
55.230        80
55.240        80
55.250       120
55.260        80
55.270        67
55.280        73
55.290        47
55.300        67
55.310        60
55.320        60
55.330        40
55.340        47
55.350        67
55.360        20
55.370        33
55.380        73
55.390        13
55.400        27
55.410        20
55.420         0
55.430        20
55.440        33
55.450        53
55.460        20
55.470        33
55.480        13
55.490        20
55.500        13
55.510         7
55.520        20
55.530        27
55.540        20
55.550         7
55.560        13
55.570         7
55.580        13
55.590        20
55.600        13
55.610         7
55.620        27
55.630        20
55.640        20
55.650         7
55.660        13
55.670        20
55.680        40
55.690        33
55.700        13
55.710        20
55.720         7
55.730        13
55.740        47
55.750        13
55.760        20
55.770         7
55.780        20
55.790        27
55.800        27
55.810        13
55.820        27
55.830        20
55.840        20
55.850         7
55.860        13
55.870         0
55.880         7
55.890        27
55.900         7
55.910        40
55.920        20
55.930         7
55.940        27
55.950        13
55.960        13
55.970        40
55.980        20
55.990        20
56.000        20
56.010         0
56.020        33
56.030        27
56.040         7
56.050        33
56.060        20
56.070         7
56.080        13
56.090        33
56.100        13
56.110         7
56.120         0
56.130        13
56.140         7
56.150         7
56.160        27
56.170         7
56.180        13
56.190         7
56.200         7
56.210         7
56.220        13
56.230         0
56.240        13
56.250        20
56.260        13
56.270        13
56.280         7
56.290        33
56.300        13
56.310         7
56.320        20
56.330        47
56.340         7
56.350        13
56.360        13
56.370        13
56.380        27
56.390        13
56.400        13
56.410        20
56.420        13
56.430        13
56.440        20
56.450         7
56.460        13
56.470        13
56.480         0
56.490         7
56.500        27
56.510         0
56.520        13
56.530        13
56.540        20
56.550        13
56.560         0
56.570        13
56.580        20
56.590        20
56.600        33
56.610        27
56.620        20
56.630         7
56.640         7
56.650         0
56.660        33
56.670        27
56.680        27
56.690        13
56.700         7
56.710         7
56.720        13
56.730         7
56.740        27
56.750         7
56.760         0
56.770         7
56.780         7
56.790         0
56.800         0
56.810        27
56.820        33
56.830        13
56.840        13
56.850        20
56.860        33
56.870        20
56.880        13
56.890        20
56.900         7
56.910        13
56.920         7
56.930        13
56.940        33
56.950        27
56.960        20
56.970        27
56.980        13
56.990        20
57.000         7
57.010        20
57.020        27
57.030        33
57.040        20
57.050         7
57.060         7
57.070        33
57.080        13
57.090        13
57.100        13
57.110        20
57.120        20
57.130        13
57.140        27
57.150        27
57.160        27
57.170        13
57.180        27
57.190        33
57.200        33
57.210        20
57.220        47
57.230         0
57.240        13
57.250        27
57.260        33
57.270        13
57.280        33
57.290         7
57.300        20
57.310        33
57.320         7
57.330        27
57.340         7
57.350         0
57.360        20
57.370        27
57.380        13
57.390         7
57.400         0
57.410        13
57.420        20
57.430        20
57.440        27
57.450        40
57.460        13
57.470        27
57.480        20
57.490        13
57.500         7
57.510        40
57.520        33
57.530        33
57.540        33
57.550        53
57.560        40
57.570        13
57.580        27
57.590        13
57.600        20
57.610         7
57.620        20
57.630        47
57.640        33
57.650        33
57.660         0
57.670        20
57.680        47
57.690        33
57.700        33
57.710        13
57.720        33
57.730        20
57.740        13
57.750        33
57.760        27
57.770        67
57.780        33
57.790        27
57.800        13
57.810        33
57.820         0
57.830        20
57.840        20
57.850         7
57.860        27
57.870        13
57.880         7
57.890        27
57.900        20
57.910        13
57.920        13
57.930        20
57.940         7
57.950        13
57.960         7
57.970         7
57.980        13
57.990        20
58.000         7
58.010         7
58.020        13
58.030        13
58.040         7
58.050        53
58.060        13
58.070        13
58.080         7
58.090        13
58.100        20
58.110        13
58.120        13
58.130        40
58.140        20
58.150         7
58.160        20
58.170         7
58.180        13
58.190        20
58.200        13
58.210        27
58.220        20
58.230        13
58.240        13
58.250         0
58.260        27
58.270        13
58.280        40
58.290        13
58.300        13
58.310        20
58.320         7
58.330        20
58.340        13
58.350        47
58.360         7
58.370        20
58.380         0
58.390        27
58.400        13
58.410        20
58.420        33
58.430        13
58.440         0
58.450        13
58.460         7
58.470         0
58.480         7
58.490        33
58.500        13
58.510        13
58.520        47
58.530        13
58.540        27
58.550         7
58.560        33
58.570         7
58.580         7
58.590         7
58.600        13
58.610         7
58.620        27
58.630        13
58.640         7
58.650        13
58.660        13
58.670         0
58.680        13
58.690         7
58.700        27
58.710         0
58.720        13
58.730        33
58.740         0
58.750        13
58.760         7
58.770        13
58.780        13
58.790        13
58.800         0
58.810        27
58.820        20
58.830        13
58.840         7
58.850         7
58.860         7
58.870        13
58.880        13
58.890        20
58.900        20
58.910         7
58.920        20
58.930        13
58.940         7
58.950        47
58.960         7
58.970        20
58.980        27
58.990        13
59.000        13
59.010        27
59.020         0
59.030         7
59.040        13
59.050        47
59.060        13
59.070         0
59.080         7
59.090        13
59.100         7
59.110        27
59.120        27
59.130        13
59.140         7
59.150        13
59.160        20
59.170         0
59.180         7
59.190        13
59.200        20
59.210        20
59.220        13
59.230        27
59.240        20
59.250        20
59.260        20
59.270        13
59.280         7
59.290        20
59.300        13
59.310        20
59.320        13
59.330        33
59.340        20
59.350         7
59.360         7
59.370        13
59.380        27
59.390        13
59.400         7
59.410         7
59.420        33
59.430         7
59.440         7
59.450        40
59.460        20
59.470        13
59.480        20
59.490        20
59.500        13
59.510        33
59.520        20
59.530        13
59.540        13
59.550        27
59.560         0
59.570        20
59.580         7
59.590        13
59.600        13
59.610        20
59.620        27
59.630         7
59.640        27
59.650         0
59.660        13
59.670         7
59.680         0
59.690        13
59.700        27
59.710        20
59.720        27
59.730         7
59.740        20
59.750        13
59.760        47
59.770        20
59.780        13
59.790         7
59.800        13
59.810         7
59.820        20
59.830        13
59.840        47
59.850        20
59.860         7
59.870        13
59.880         7
59.890        20
59.900         7
59.910        20
59.920         7
59.930        20
59.940         7
59.950        20
59.960        13
59.970        13
59.980        27
59.990        33
60.000        13
