20.000        27
20.010        40
20.020        60
20.030        27
20.040        47
20.050        33
20.060        53
20.070        73
20.080        33
20.090        47
20.100        40
20.110        53
20.120        33
20.130        33
20.140        40
20.150        47
20.160        53
20.170        33
20.180        13
20.190        53
20.200        20
20.210        53
20.220        33
20.230        67
20.240        60
20.250        53
20.260        53
20.270        67
20.280        27
20.290        40
20.300        47
20.310        40
20.320        53
20.330        53
20.340        53
20.350        60
20.360        27
20.370        40
20.380        47
20.390        47
20.400        47
20.410        47
20.420        33
20.430        53
20.440        33
20.450        27
20.460        20
20.470        60
20.480        47
20.490        53
20.500        33
20.510        40
20.520        27
20.530        33
20.540        60
20.550        47
20.560        40
20.570        47
20.580        40
20.590         0
20.600        73
20.610        20
20.620        33
20.630        40
20.640        47
20.650        40
20.660        27
20.670        33
20.680        20
20.690        93
20.700        40
20.710        13
20.720        53
20.730        47
20.740        33
20.750        40
20.760        60
20.770        40
20.780        67
20.790        33
20.800        53
20.810        40
20.820        40
20.830        33
20.840        60
20.850        47
20.860        47
20.870        40
20.880        20
20.890        73
20.900        27
20.910        80
20.920        47
20.930        47
20.940        87
20.950        47
20.960        80
20.970        53
20.980        40
20.990        47
21.000        40
21.010        27
21.020        40
21.030        67
21.040        33
21.050        33
21.060        60
21.070        20
21.080        13
21.090        87
21.100        73
21.110        47
21.120        47
21.130        20
21.140        67
21.150        27
21.160        40
21.170        53
21.180        60
21.190        60
21.200        47
21.210        40
21.220        27
21.230        67
21.240        53
21.250        33
21.260        60
21.270        47
21.280        33
21.290        33
21.300        27
21.310        53
21.320        33
21.330        27
21.340        27
21.350        53
21.360        33
21.370        27
21.380        60
21.390        27
21.400        33
21.410        33
21.420        33
21.430        27
21.440        47
21.450        40
21.460         7
21.470        13
21.480        53
21.490        47
21.500        40
21.510        20
21.520        53
21.530        40
21.540        33
21.550        33
21.560        73
21.570        20
21.580        53
21.590        87
21.600        27
21.610        53
21.620         7
21.630        33
21.640        20
21.650        20
21.660        53
21.670        33
21.680        67
21.690        13
21.700        60
21.710        33
21.720         0
21.730        33
21.740        53
21.750        27
21.760        27
21.770        33
21.780        27
21.790        47
21.800        27
21.810        20
21.820        47
21.830        27
21.840        67
21.850         0
21.860        53
21.870        20
21.880        47
21.890        27
21.900        53
21.910        60
21.920        93
21.930        20
21.940        47
21.950        33
21.960        33
21.970        40
21.980        47
21.990        60
22.000        40
22.010        40
22.020        27
22.030        40
22.040        27
22.050        20
22.060        40
22.070        47
22.080        67
22.090        53
22.100        33
22.110        47
22.120        67
22.130        33
22.140        53
22.150        27
22.160        47
22.170        47
22.180        87
22.190        20
22.200        33
22.210        40
22.220        47
22.230        53
22.240        27
22.250        33
22.260        20
22.270        53
22.280        33
22.290        27
22.300        40
22.310        60
22.320        27
22.330        13
22.340        33
22.350        40
22.360        40
22.370        40
22.380        47
22.390        13
22.400        20
22.410        60
22.420        27
22.430        33
22.440        33
22.450         7
22.460        53
22.470        40
22.480         7
22.490        13
22.500        33
22.510        53
22.520        40
22.530        80
22.540        20
22.550        33
22.560        60
22.570         7
22.580        13
22.590        33
22.600        40
22.610        13
22.620        13
22.630        40
22.640        27
22.650        13
22.660        33
22.670        33
22.680        27
22.690        40
22.700        47
22.710        33
22.720        40
22.730        40
22.740        40
22.750        47
22.760        53
22.770        13
22.780        47
22.790        40
22.800        73
22.810        47
22.820        47
22.830        53
22.840        20
22.850        20
22.860        47
22.870        40
22.880        40
22.890        20
22.900        20
22.910        13
22.920        47
22.930        13
22.940        47
22.950        47
22.960        20
22.970        47
22.980        47
22.990        40
23.000        13
23.010        33
23.020        27
23.030        20
23.040         0
23.050        33
23.060        53
23.070        40
23.080        40
23.090         7
23.100        33
23.110        27
23.120        20
23.130        33
23.140        27
23.150        33
23.160        27
23.170        53
23.180        33
23.190        33
23.200        40
23.210        53
23.220        33
23.230        40
23.240        40
23.250        53
23.260        20
23.270        20
23.280        60
23.290        53
23.300        13
23.310        27
23.320        33
23.330        33
23.340        73
23.350        33
23.360        47
23.370        13
23.380        20
23.390        40
23.400        40
23.410        33
23.420        47
23.430        40
23.440        33
23.450        40
23.460        47
23.470        20
23.480        20
23.490        40
23.500        20
23.510        33
23.520        33
23.530        53
23.540        40
23.550        20
23.560        33
23.570        13
23.580        33
23.590        33
23.600        53
23.610        40
23.620        47
23.630        60
23.640        27
23.650        27
23.660        13
23.670        27
23.680        20
23.690        27
23.700        20
23.710        40
23.720        27
23.730        13
23.740        47
23.750        47
23.760        27
23.770        47
23.780        27
23.790        67
23.800        53
23.810        33
23.820        33
23.830        20
23.840        27
23.850        53
23.860        13
23.870        33
23.880        27
23.890        27
23.900         7
23.910        13
23.920        40
23.930        33
23.940         7
23.950        20
23.960        27
23.970        40
23.980        27
23.990        40
24.000        40
24.010        60
24.020        33
24.030        40
24.040        13
24.050        47
24.060        40
24.070        27
24.080        33
24.090        33
24.100        27
24.110        47
24.120        40
24.130        27
24.140         7
24.150        40
24.160        13
24.170        47
24.180        33
24.190        33
24.200        33
24.210        27
24.220        40
24.230         7
24.240        73
24.250        13
24.260        27
24.270        40
24.280        47
24.290        40
24.300        40
24.310         0
24.320        27
24.330        27
24.340        20
24.350        20
24.360        53
24.370        20
24.380        33
24.390         7
24.400        27
24.410        27
24.420        47
24.430        47
24.440        33
24.450        20
24.460        13
24.470        13
24.480         7
24.490        33
24.500        40
24.510        33
24.520        20
24.530        33
24.540        33
24.550        20
24.560        27
24.570        27
24.580        20
24.590        40
24.600        27
24.610        27
24.620        53
24.630        33
24.640        47
24.650        13
24.660        60
24.670        60
24.680        20
24.690        33
24.700        27
24.710        20
24.720        40
24.730        33
24.740        40
24.750         7
24.760        33
24.770        20
24.780        13
24.790        33
24.800        27
24.810        13
24.820        20
24.830        40
24.840         7
24.850        33
24.860        27
24.870        33
24.880        40
24.890        13
24.900        20
24.910        53
24.920        27
24.930        13
24.940        13
24.950        27
24.960        40
24.970        33
24.980         7
24.990        27
25.000        20
25.010        53
25.020        27
25.030        20
25.040        33
25.050        13
25.060        20
25.070        27
25.080        20
25.090        27
25.100        20
25.110        13
25.120        47
25.130        13
25.140        13
25.150        40
25.160        27
25.170        33
25.180        20
25.190        27
25.200        33
25.210        13
25.220        47
25.230         7
25.240        20
25.250        33
25.260        40
25.270        33
25.280         7
25.290        27
25.300        13
25.310         7
25.320        47
25.330        40
25.340        27
25.350        40
25.360        33
25.370        27
25.380        33
25.390        27
25.400        40
25.410        33
25.420        33
25.430        33
25.440        27
25.450        27
25.460        40
25.470        60
25.480        20
25.490        13
25.500        33
25.510        13
25.520        40
25.530         7
25.540         7
25.550        13
25.560         7
25.570        20
25.580        40
25.590        27
25.600        53
25.610        13
25.620        47
25.630        13
25.640        13
25.650        20
25.660        33
25.670        20
25.680         7
25.690        27
25.700        33
25.710        20
25.720        40
25.730        60
25.740        27
25.750        33
25.760        27
25.770        20
25.780        33
25.790        47
25.800        27
25.810        33
25.820        80
25.830        33
25.840        40
25.850        13
25.860        47
25.870         7
25.880         7
25.890        40
25.900         0
25.910         7
25.920         7
25.930        33
25.940        27
25.950        33
25.960        20
25.970        40
25.980        13
25.990        20
26.000        40
26.010        47
26.020        47
26.030        73
26.040        40
26.050        20
26.060        20
26.070        27
26.080        27
26.090         7
26.100        47
26.110        47
26.120        27
26.130        33
26.140        40
26.150        47
26.160        13
26.170        20
26.180        20
26.190        40
26.200        13
26.210        27
26.220        33
26.230        27
26.240        20
26.250        47
26.260        13
26.270        13
26.280         7
26.290        47
26.300        47
26.310        47
26.320        33
26.330        13
26.340         7
26.350        33
26.360         0
26.370        27
26.380        40
26.390         0
26.400        27
26.410        33
26.420        33
26.430        33
26.440        40
26.450        27
26.460        47
26.470        27
26.480        40
26.490        27
26.500        40
26.510         7
26.520        13
26.530        20
26.540        20
26.550        20
26.560        33
26.570        20
26.580        47
26.590        33
26.600        20
26.610        33
26.620        33
26.630         7
26.640        20
26.650        87
26.660        27
26.670        27
26.680        20
26.690        27
26.700        47
26.710        20
26.720        33
26.730        27
26.740        40
26.750        13
26.760        27
26.770        47
26.780        20
26.790        33
26.800        27
26.810        33
26.820         7
26.830         7
26.840        13
26.850        20
26.860        13
26.870        27
26.880         7
26.890        27
26.900        27
26.910         0
26.920        40
26.930        20
26.940        40
26.950        33
26.960        13
26.970         7
26.980        20
26.990        47
27.000        20
27.010        53
27.020        40
27.030        27
27.040        20
27.050        33
27.060        33
27.070        27
27.080        27
27.090        33
27.100        13
27.110        20
27.120        13
27.130        13
27.140        47
27.150        27
27.160        27
27.170        27
27.180        60
27.190        33
27.200        13
27.210        20
27.220        13
27.230        20
27.240        33
27.250        53
27.260        20
27.270        13
27.280        27
27.290        33
27.300        40
27.310        33
27.320        40
27.330        20
27.340        27
27.350        27
27.360         7
27.370        20
27.380        20
27.390         7
27.400        13
27.410         7
27.420         7
27.430        13
27.440        47
27.450        27
27.460        27
27.470        27
27.480        40
27.490        53
27.500        33
27.510        20
27.520        20
27.530        33
27.540        33
27.550        33
27.560        33
27.570         7
27.580        27
27.590        20
27.600        33
27.610        20
27.620        33
27.630        27
27.640        33
27.650         7
27.660        33
27.670        53
27.680        13
27.690        27
27.700        20
27.710        40
27.720        27
27.730         7
27.740         7
27.750        27
27.760        33
27.770        33
27.780        13
27.790        60
27.800        40
27.810        73
27.820        33
27.830        20
27.840        20
27.850        27
27.860        33
27.870        33
27.880        40
27.890        20
27.900        60
27.910        73
27.920        40
27.930        40
27.940        40
27.950        60
27.960        33
27.970        40
27.980        20
27.990        13
28.000        40
28.010        20
28.020        27
28.030        33
28.040        33
28.050         7
28.060        13
28.070        13
28.080        20
28.090        27
28.100        27
28.110        53
28.120        40
28.130        27
28.140        13
28.150        53
28.160        33
28.170        20
28.180        33
28.190        40
28.200        13
28.210        47
28.220        47
28.230        40
28.240        13
28.250        13
28.260        13
28.270        33
28.280         7
28.290        13
28.300        27
28.310        27
28.320        27
28.330        27
28.340        13
28.350        20
28.360        20
28.370        47
28.380        27
28.390        20
28.400        40
28.410        13
28.420        13
28.430         7
28.440        27
28.450        40
28.460        33
28.470        40
28.480        20
28.490        13
28.500        60
28.510        13
28.520         7
28.530        20
28.540        13
28.550        20
28.560        13
28.570        40
28.580        40
28.590        40
28.600        13
28.610        27
28.620        33
28.630        20
28.640        27
28.650        20
28.660         7
28.670        27
28.680        40
28.690         0
28.700        20
28.710        20
28.720        20
28.730        47
28.740        27
28.750        33
28.760        40
28.770        20
28.780        27
28.790        13
28.800        20
28.810        13
28.820        53
28.830         7
28.840        20
28.850        40
28.860        13
28.870        33
28.880        33
28.890        20
28.900        13
28.910        13
28.920        20
28.930        20
28.940        13
28.950        27
28.960        27
28.970        53
28.980        20
28.990        13
29.000        33
29.010        40
29.020        33
29.030        53
29.040        27
29.050         7
29.060        33
29.070        20
29.080         0
29.090        27
29.100        33
29.110        20
29.120        33
29.130        40
29.140        20
29.150        27
29.160         7
29.170        20
29.180        40
29.190        27
29.200        13
29.210        20
29.220        40
29.230        53
29.240        33
29.250        33
29.260        27
29.270         0
29.280        20
29.290        13
29.300        27
29.310        13
29.320        40
29.330        40
29.340        33
29.350        33
29.360        47
29.370        27
29.380        33
29.390         7
29.400        13
29.410        20
29.420        33
29.430        33
29.440        27
29.450        67
29.460        27
29.470        20
29.480         7
29.490        33
29.500        33
29.510        40
29.520        20
29.530        20
29.540        13
29.550         0
29.560        40
29.570        20
29.580        13
29.590        40
29.600        47
29.610        33
29.620        20
29.630        27
29.640        27
29.650        20
29.660        60
29.670        20
29.680        33
29.690        27
29.700        20
29.710        20
29.720        53
29.730        40
29.740        47
29.750        27
29.760        13
29.770        53
29.780        47
29.790        33
29.800        13
29.810        40
29.820        67
29.830        33
29.840        33
29.850        27
29.860        27
29.870        53
29.880        60
29.890        53
29.900        13
29.910        40
29.920        27
29.930        27
29.940        33
29.950        33
29.960        53
29.970        20
29.980        60
29.990        53
30.000         7
30.010        40
30.020        20
30.030        73
30.040        33
30.050        40
30.060        93
30.070        20
30.080        53
30.090        27
30.100        47
30.110        27
30.120        27
30.130        47
30.140        60
30.150        27
30.160        33
30.170        67
30.180        20
30.190        73
30.200        33
30.210        80
30.220        33
30.230        33
30.240        33
30.250        40
30.260        27
30.270        60
30.280        40
30.290        27
30.300        40
30.310        40
30.320        73
30.330        60
30.340        27
30.350        47
30.360        20
30.370        33
30.380        20
30.390        53
30.400        73
30.410        60
30.420        53
30.430        87
30.440        73
30.450        40
30.460        47
30.470        40
30.480        40
30.490        40
30.500        60
30.510        67
30.520        53
30.530        67
30.540        40
30.550        47
30.560        40
30.570       100
30.580        60
30.590        60
30.600        53
30.610        60
30.620        93
30.630        73
30.640        80
30.650        87
30.660       100
30.670       107
30.680       147
30.690       140
30.700       147
30.710       147
30.720       167
30.730       120
30.740       200
30.750       240
30.760       287
30.770       273
30.780       387
30.790       340
30.800       393
30.810       373
30.820       466
30.830       600
30.840       646
30.850       686
30.860       733
30.870      1060
30.880       946
30.890      1266
30.900      1326
30.910      1519
30.920      1793
30.930      1799
30.940      2046
30.950      2632
30.960      2786
30.970      2906
30.980      3205
30.990      3312
31.000      3199
31.010      3205
31.020      3112
31.030      3179
31.040      2552
31.050      2319
31.060      2212
31.070      1806
31.080      1939
31.090      1679
31.100      1399
31.110      1226
31.120       940
31.130       886
31.140       626
31.150       606
31.160       387
31.170       280
31.180       293
31.190       260
31.200       220
31.210       200
31.220       167
31.230       220
31.240       140
31.250       140
31.260       147
31.270       140
31.280       133
31.290       100
31.300       133
31.310        73
31.320        67
31.330        47
31.340        80
31.350        67
31.360        47
31.370        60
31.380        33
31.390        73
31.400        47
31.410        73
31.420        20
31.430        80
31.440        33
31.450        33
31.460        40
31.470        53
31.480        53
31.490        53
31.500        53
31.510       113
31.520        47
31.530        27
31.540        80
31.550        47
31.560        47
31.570        53
31.580        27
31.590        53
31.600        47
31.610        27
31.620        20
31.630        60
31.640        53
31.650        20
31.660        67
31.670        33
31.680        73
31.690        47
31.700        20
31.710        53
31.720        53
31.730        47
31.740        33
31.750        40
31.760         7
31.770         7
31.780        47
31.790        20
31.800        33
31.810        47
31.820        27
31.830        13
31.840        47
31.850        13
31.860        40
31.870        20
31.880        60
31.890        53
31.900        27
31.910        53
31.920        33
31.930        27
31.940        67
31.950        53
31.960        13
31.970        47
31.980        80
31.990        53
32.000        60
32.010        33
32.020        20
32.030        33
32.040        27
32.050        33
32.060        33
32.070        33
32.080        27
32.090        13
32.100        20
32.110        60
32.120        20
32.130        27
32.140        47
32.150        40
32.160        53
32.170        47
32.180        40
32.190        40
32.200        13
32.210        47
32.220        33
32.230        67
32.240        20
32.250        33
32.260        20
32.270        13
32.280        40
32.290        53
32.300        67
32.310        60
32.320        27
32.330        40
32.340        20
32.350        53
32.360        40
32.370        33
32.380        53
32.390        33
32.400        20
32.410        33
32.420        27
32.430        40
32.440        13
32.450         7
32.460        27
32.470        20
32.480        27
32.490        20
32.500        27
32.510        20
32.520        47
32.530        33
32.540        40
32.550         7
32.560        40
32.570        27
32.580        13
32.590        13
32.600         7
32.610        20
32.620        20
32.630        40
32.640        27
32.650        60
32.660        33
32.670        27
32.680        27
32.690        13
32.700        27
32.710        20
32.720        53
32.730        13
32.740        27
32.750        27
32.760        47
32.770        27
32.780        47
32.790        33
32.800        13
32.810        40
32.820        13
32.830        27
32.840        33
32.850        27
32.860        60
32.870         7
32.880        33
32.890        40
32.900        47
32.910        27
32.920        53
32.930        47
32.940        47
32.950        33
32.960        13
32.970        33
32.980        27
32.990        33
33.000        27
33.010        33
33.020        53
33.030        27
33.040        13
33.050        47
33.060        20
33.070        60
33.080        27
33.090        20
33.100        40
33.110        27
33.120        13
33.130        33
33.140        33
33.150         7
33.160        40
33.170        47
33.180        47
33.190        40
33.200        27
33.210        33
33.220        47
33.230        33
33.240        33
33.250        13
33.260        47
33.270        20
33.280        20
33.290        47
33.300        27
33.310        27
33.320        20
33.330        20
33.340        20
33.350        27
33.360        33
33.370         7
33.380        20
33.390        27
33.400        13
33.410        13
33.420        27
33.430        60
33.440        27
33.450         7
33.460        20
33.470        13
33.480        40
33.490        87
33.500        20
33.510        33
33.520        33
33.530        33
33.540        47
33.550        60
33.560        33
33.570        33
33.580        53
33.590        27
33.600        20
33.610        13
33.620        33
33.630        27
33.640         7
33.650        27
33.660        40
33.670        20
33.680         7
33.690        13
33.700        27
33.710        13
33.720        20
33.730        27
33.740        27
33.750        20
33.760        40
33.770        40
33.780        60
33.790        53
33.800        27
33.810        13
33.820        33
33.830        47
33.840        33
33.850        27
33.860        33
33.870         7
33.880        13
33.890        13
33.900        27
33.910        20
33.920        40
33.930        20
33.940        27
33.950        20
33.960        27
33.970        20
33.980        20
33.990        33
34.000         7
34.010        40
34.020        27
34.030        20
34.040        33
34.050        20
34.060        47
34.070        20
34.080        13
34.090        20
34.100        27
34.110        13
34.120        47
34.130        33
34.140        20
34.150        20
34.160        33
34.170        13
34.180        33
34.190         7
34.200        20
34.210        13
34.220         7
34.230         7
34.240        20
34.250        33
34.260        40
34.270        40
34.280         7
34.290        27
34.300         7
34.310        13
34.320        27
34.330        40
34.340        33
34.350        20
34.360        13
34.370        27
34.380        13
34.390         0
34.400        20
34.410         7
34.420        13
34.430        20
34.440        33
34.450        53
34.460        73
34.470        27
34.480         0
34.490        33
34.500        47
34.510        20
34.520         7
34.530        13
34.540        33
34.550        33
34.560         7
34.570        27
34.580        33
34.590        13
34.600        20
34.610        20
34.620        20
34.630        27
34.640        33
34.650        27
34.660        67
34.670        13
34.680        40
34.690        47
34.700        33
34.710        13
34.720        33
34.730        27
34.740        47
34.750        40
34.760        40
34.770        13
34.780        20
34.790         0
34.800        27
34.810        27
34.820        27
34.830        73
34.840        40
34.850        27
34.860        20
34.870         7
34.880        13
34.890         7
34.900        33
34.910         7
34.920        27
34.930        47
34.940        27
34.950        20
34.960        27
34.970         7
34.980        13
34.990        33
35.000        40
35.010        33
35.020        33
35.030        13
35.040        33
35.050        40
35.060        20
35.070        20
35.080        20
35.090        33
35.100         7
35.110        40
35.120        20
35.130        20
35.140        67
35.150        20
35.160        33
35.170        47
35.180        47
35.190        53
35.200        47
35.210        20
35.220        33
35.230        33
35.240        53
35.250        27
35.260        33
35.270        33
35.280        33
35.290        27
35.300        13
35.310        33
35.320        27
35.330        47
35.340        33
35.350        40
35.360        20
35.370        20
35.380        20
35.390        20
35.400        20
35.410        20
35.420        20
35.430         0
35.440        20
35.450         7
35.460        20
35.470        13
35.480        60
35.490         7
35.500        27
35.510        13
35.520         7
35.530        27
35.540         7
35.550        20
35.560        33
35.570        40
35.580        27
35.590        13
35.600        13
35.610        40
35.620        20
35.630        40
35.640        27
35.650        27
35.660        20
35.670         7
35.680         7
35.690        73
35.700        33
35.710        40
35.720        33
35.730        20
35.740        20
35.750        13
35.760        47
35.770        20
35.780        47
35.790        13
35.800         7
35.810        13
35.820        13
35.830        20
35.840        20
35.850        33
35.860        27
35.870        13
35.880        20
35.890        27
35.900        33
35.910        33
35.920        67
35.930        47
35.940        47
35.950         0
35.960        27
35.970        47
35.980        27
35.990        20
36.000         7
36.010        27
36.020        40
36.030        20
36.040         7
36.050        40
36.060        40
36.070        20
36.080        40
36.090        40
36.100         0
36.110        53
36.120        33
36.130         7
36.140        20
36.150         7
36.160        33
36.170        27
36.180        27
36.190        13
36.200        20
36.210        40
36.220         0
36.230        20
36.240        27
36.250        13
36.260        13
36.270        40
36.280        20
36.290        40
36.300        27
36.310        33
36.320        13
36.330        20
36.340        20
36.350        40
36.360        20
36.370         7
36.380        27
36.390        27
36.400        27
36.410        20
36.420        13
36.430        33
36.440        13
36.450        40
36.460        33
36.470        47
36.480        13
36.490        20
36.500        40
36.510         7
36.520        13
36.530         7
36.540        13
36.550        20
36.560        13
36.570        33
36.580        13
36.590         0
36.600         0
36.610        20
36.620        40
36.630         7
36.640        20
36.650        13
36.660         7
36.670        33
36.680        20
36.690        27
36.700        27
36.710        20
36.720        13
36.730        13
36.740        20
36.750        20
36.760        33
36.770        20
36.780        53
36.790        27
36.800         7
36.810        33
36.820        13
36.830        20
36.840        20
36.850        20
36.860         7
36.870         0
36.880        27
36.890        13
36.900        20
36.910         7
36.920         7
36.930        33
36.940        20
36.950        27
36.960        40
36.970        27
36.980        53
36.990         7
37.000        27
37.010         7
37.020        13
37.030        20
37.040        20
37.050        47
37.060        27
37.070        27
37.080        27
37.090        27
37.100         7
37.110        33
37.120        13
37.130         7
37.140        13
37.150        13
37.160        27
37.170        20
37.180        53
37.190        27
37.200        33
37.210        13
37.220        20
37.230        33
37.240        27
37.250        33
37.260        20
37.270        33
37.280        20
37.290        47
37.300        33
37.310        47
37.320        27
37.330        13
37.340        20
37.350         7
37.360         7
37.370         7
37.380        20
37.390         7
37.400        20
37.410         0
37.420         7
37.430        47
37.440        40
37.450        40
37.460        33
37.470        27
37.480        33
37.490         7
37.500        27
37.510        40
37.520        47
37.530        13
37.540        33
37.550        20
37.560         7
37.570        20
37.580        20
37.590        27
37.600        13
37.610        13
37.620        20
37.630         7
37.640        33
37.650        13
37.660        27
37.670        13
37.680        13
37.690        53
37.700        20
37.710        20
37.720        27
37.730        27
37.740         7
37.750        33
37.760        27
37.770        40
37.780        13
37.790        47
37.800        33
37.810        40
37.820        33
37.830        27
37.840        47
37.850        20
37.860        47
37.870        20
37.880        27
37.890         7
37.900        47
37.910         7
37.920         7
37.930        40
37.940        27
37.950        40
37.960        33
37.970        27
37.980        27
37.990        33
38.000        13
38.010        33
38.020        13
38.030         7
38.040         7
38.050         7
38.060        53
38.070        20
38.080        20
38.090        20
38.100        47
38.110        13
38.120        33
38.130        53
38.140        33
38.150        67
38.160        53
38.170        20
38.180        53
38.190        27
38.200        60
38.210        47
38.220        53
38.230        60
38.240        53
38.250        67
38.260        53
38.270        33
38.280        33
38.290        27
38.300        27
38.310        40
38.320        40
38.330        60
38.340        40
38.350        47
38.360        33
38.370        33
38.380         7
38.390        27
38.400        20
38.410        20
38.420        13
38.430        27
38.440        33
38.450        27
38.460        20
38.470        27
38.480        20
38.490        27
38.500        27
38.510        20
38.520        20
38.530        47
38.540        20
38.550        20
38.560        20
38.570        20
38.580        33
38.590        13
38.600        20
38.610        20
38.620         0
38.630        27
38.640        20
38.650        33
38.660        13
38.670         0
38.680        20
38.690        20
38.700        27
38.710        47
38.720        20
38.730        20
38.740        33
38.750         7
38.760        13
38.770        27
38.780        27
38.790        13
38.800         7
38.810        27
38.820        33
38.830        20
38.840        20
38.850        27
38.860        33
38.870        13
38.880        60
38.890        33
38.900        40
38.910        27
38.920        20
38.930        33
38.940        13
38.950        20
38.960        13
38.970         7
38.980         0
38.990        20
39.000        33
39.010        20
39.020         0
39.030        33
39.040        33
39.050        40
39.060        27
39.070         7
39.080        20
39.090        27
39.100        20
39.110        27
39.120        20
39.130        13
39.140         7
39.150        13
39.160        20
39.170        27
39.180        20
39.190        33
39.200        33
39.210        27
39.220         7
39.230        13
39.240        20
39.250        20
39.260        33
39.270        27
39.280        33
39.290        27
39.300        27
39.310        20
39.320        27
39.330        27
39.340        20
39.350        13
39.360        27
39.370         7
39.380        33
39.390        13
39.400        27
39.410        13
39.420        13
39.430        13
39.440        20
39.450        47
39.460         0
39.470        27
39.480        20
39.490         7
39.500         0
39.510        20
39.520        13
39.530        20
39.540        20
39.550        20
39.560        27
39.570        27
39.580        13
39.590        20
39.600        27
39.610        13
39.620        20
39.630        20
39.640        27
39.650        20
39.660        13
39.670        33
39.680         7
39.690        33
39.700        20
39.710        13
39.720         7
39.730        27
39.740        33
39.750         7
39.760        33
39.770         7
39.780        13
39.790        27
39.800         0
39.810        13
39.820        27
39.830        27
39.840         7
39.850        27
39.860        33
39.870         0
39.880        20
39.890        20
39.900        27
39.910        40
39.920        13
39.930        13
39.940        13
39.950        27
39.960        20
39.970        27
39.980        13
39.990        47
40.000         7
40.010         7
40.020        40
40.030        13
40.040         7
40.050        20
40.060        20
40.070        20
40.080        27
40.090        20
40.100         7
40.110        13
40.120        20
40.130        13
40.140        40
40.150         7
40.160        40
40.170        20
40.180         7
40.190        13
40.200         7
40.210        20
40.220        20
40.230         7
40.240        40
40.250        13
40.260        20
40.270        20
40.280        13
40.290        47
40.300        20
40.310         7
40.320        20
40.330        27
40.340        33
40.350        27
40.360        33
40.370         0
40.380        20
40.390        20
40.400        20
40.410        13
40.420        13
40.430        33
40.440        13
40.450        27
40.460        20
40.470        20
40.480        33
40.490        27
40.500        40
40.510        13
40.520        27
40.530        33
40.540        20
40.550        20
40.560        40
40.570         7
40.580        20
40.590         7
40.600        13
40.610        20
40.620        20
40.630        13
40.640        33
40.650        27
40.660        40
40.670         7
40.680        20
40.690        47
40.700        40
40.710        33
40.720        13
40.730        33
40.740         7
40.750         0
40.760        13
40.770        13
40.780         0
40.790        13
40.800        27
40.810        53
40.820        27
40.830        13
40.840        27
40.850        40
40.860         7
40.870        13
40.880        13
40.890        20
40.900         7
40.910        27
40.920        27
40.930        33
40.940        27
40.950        20
40.960         7
40.970        13
40.980        33
40.990        27
41.000        40
41.010        27
41.020        20
41.030         7
41.040        13
41.050        40
41.060        33
41.070        20
41.080        27
41.090        20
41.100        33
41.110        27
41.120        27
41.130        20
41.140         7
41.150         7
41.160         7
41.170        13
41.180        20
41.190        47
41.200        13
41.210        20
41.220        20
41.230        27
41.240        13
41.250         0
41.260         7
41.270        20
41.280         7
41.290         0
41.300        20
41.310        33
41.320         7
41.330        13
41.340        27
41.350        20
41.360        27
41.370        27
41.380        20
41.390        13
41.400         7
41.410        20
41.420         7
41.430        20
41.440        27
41.450        27
41.460         7
41.470        27
41.480        27
41.490        53
41.500        40
41.510        20
41.520        33
41.530        20
41.540         0
41.550         7
41.560        20
41.570        33
41.580        27
41.590        40
41.600        33
41.610        53
41.620        20
41.630        47
41.640        27
41.650        40
41.660        53
41.670        67
41.680        87
41.690        80
41.700        60
41.710        27
41.720       153
41.730        80
41.740        60
41.750        33
41.760        27
41.770        47
41.780        27
41.790        40
41.800        27
41.810        47
41.820        33
41.830        60
41.840        47
41.850        13
41.860        40
41.870        27
41.880        27
41.890        20
41.900        13
41.910        13
41.920        27
41.930        27
41.940         7
41.950        20
41.960        13
41.970        20
41.980        13
41.990        20
42.000         7
42.010        27
42.020        20
42.030         7
42.040         0
42.050        40
42.060         7
42.070        20
42.080        27
42.090        13
42.100        20
42.110        27
42.120         7
42.130        27
42.140        20
42.150        13
42.160         7
42.170        27
42.180         7
42.190        40
42.200        20
42.210        20
42.220        27
42.230        20
42.240        13
42.250        13
42.260        13
42.270        27
42.280        27
42.290        13
42.300        27
42.310        20
42.320        20
42.330        13
42.340        27
42.350        20
42.360        13
42.370        20
42.380        27
42.390        13
42.400        27
42.410        13
42.420        27
42.430        13
42.440         0
42.450        20
42.460         0
42.470         7
42.480        33
42.490        27
42.500        13
42.510        20
42.520         0
42.530         0
42.540         7
42.550        13
42.560        33
42.570        13
42.580        27
42.590        40
42.600        33
42.610        20
42.620         7
42.630        20
42.640        13
42.650        40
42.660        13
42.670        13
42.680        33
42.690         7
42.700        33
42.710        13
42.720        40
42.730        27
42.740        27
42.750         7
42.760        27
42.770        20
42.780         0
42.790        33
42.800        20
42.810        13
42.820        47
42.830        40
42.840        13
42.850         7
42.860        27
42.870        47
42.880         7
42.890        13
42.900        27
42.910         7
42.920        20
42.930         0
42.940        13
42.950        40
42.960        20
42.970        20
42.980        13
42.990         7
43.000        33
43.010        27
43.020        33
43.030        13
43.040        20
43.050        27
43.060        53
43.070        27
43.080        40
43.090        13
43.100        20
43.110        20
43.120        27
43.130        20
43.140         7
43.150        20
43.160        33
43.170        27
43.180        40
43.190        40
43.200        27
43.210         7
43.220        33
43.230        27
43.240        40
43.250        13
43.260        27
43.270        27
43.280        33
43.290        20
43.300        27
43.310        27
43.320        13
43.330        47
43.340        33
43.350        27
43.360        20
43.370        20
43.380        13
43.390        27
43.400        40
43.410        27
43.420        40
43.430        13
43.440        60
43.450        20
43.460        20
43.470         0
43.480        27
43.490        40
43.500        13
43.510        20
43.520        40
43.530        13
43.540         7
43.550        20
43.560         7
43.570        33
43.580         0
43.590        20
43.600        20
43.610        40
43.620        13
43.630        27
43.640        27
43.650        27
43.660        27
43.670         7
43.680         7
43.690        27
43.700         7
43.710        33
43.720        13
43.730        27
43.740        13
43.750        13
43.760         7
43.770         7
43.780        27
43.790         7
43.800        13
43.810        33
43.820        20
43.830        40
43.840         7
43.850        27
43.860        27
43.870        40
43.880        20
43.890        13
43.900        20
43.910        27
43.920        13
43.930        20
43.940        13
43.950        13
43.960         0
43.970        20
43.980        20
43.990         7
44.000        40
44.010         0
44.020        40
44.030        40
44.040        27
44.050        27
44.060        20
44.070         7
44.080        13
44.090        47
44.100        33
44.110        27
44.120        40
44.130        27
44.140        40
44.150        27
44.160        33
44.170        33
44.180        13
44.190        27
44.200        20
44.210        40
44.220        13
44.230        20
44.240        27
44.250        47
44.260         7
44.270        13
44.280        27
44.290        27
44.300        20
44.310        40
44.320         0
44.330        33
44.340        27
44.350        20
44.360        20
44.370         7
44.380        47
44.390        33
44.400        13
44.410        27
44.420         7
44.430        13
44.440        40
44.450        33
44.460        13
44.470        40
44.480        20
44.490        20
44.500        20
44.510        20
44.520        53
44.530        20
44.540        53
44.550        13
44.560        20
44.570        20
44.580         7
44.590        40
44.600        13
44.610        33
44.620        20
44.630        13
44.640        20
44.650        47
44.660        20
44.670        40
44.680        60
44.690        20
44.700         7
44.710         7
44.720        40
44.730         7
44.740         7
44.750        20
44.760        33
44.770        27
44.780        33
44.790        47
44.800        47
44.810        20
44.820        27
44.830        20
44.840        13
44.850        13
44.860        27
44.870        33
44.880        13
44.890        20
44.900        40
44.910        20
44.920         7
44.930         7
44.940        13
44.950        27
44.960        33
44.970        27
44.980        47
44.990        60
45.000         7
45.010        20
45.020        20
45.030         7
45.040        20
45.050        20
45.060        33
45.070        20
45.080        13
45.090         0
45.100        13
45.110         0
45.120        13
45.130        33
45.140         7
45.150        13
45.160        13
45.170        13
45.180        27
45.190        20
45.200        27
45.210        20
45.220        20
45.230        13
45.240        33
45.250        47
45.260        47
45.270        13
45.280        13
45.290        13
45.300        20
45.310        13
45.320        20
45.330        27
45.340        20
45.350        20
45.360        20
45.370        33
45.380        27
45.390        20
45.400        27
45.410        27
45.420        33
45.430        33
45.440        20
45.450        20
45.460        13
45.470        27
45.480        13
45.490        20
45.500        27
45.510        20
45.520         7
45.530        40
45.540        13
45.550         7
45.560        13
45.570        13
45.580         7
45.590        20
45.600        13
45.610        20
45.620         7
45.630         7
45.640        33
45.650        27
45.660         0
45.670        20
45.680        20
45.690        13
45.700        33
45.710        27
45.720        13
45.730         7
45.740        33
45.750        27
45.760        27
45.770        33
45.780        20
45.790        13
45.800         7
45.810        13
45.820        33
45.830         7
45.840        40
45.850         7
45.860         7
45.870        20
45.880        13
45.890         7
45.900        27
45.910        27
45.920        27
45.930        33
45.940        20
45.950        27
45.960        13
45.970        13
45.980        20
45.990        20
46.000        20
46.010        13
46.020        20
46.030         7
46.040        20
46.050        13
46.060        13
46.070        20
46.080        27
46.090        33
46.100         7
46.110        40
46.120        20
46.130        13
46.140         0
46.150        20
46.160         0
46.170        33
46.180        20
46.190        33
46.200         7
46.210        13
46.220        20
46.230        27
46.240        13
46.250        20
46.260        27
46.270        13
46.280        13
46.290        13
46.300        53
46.310         7
46.320        13
46.330        20
46.340        20
46.350        33
46.360         7
46.370        27
46.380        13
46.390        20
46.400        13
46.410        20
46.420         7
46.430        27
46.440         7
46.450        27
46.460        33
46.470        13
46.480        13
46.490        40
46.500         7
46.510         7
46.520        33
46.530         7
46.540         7
46.550        27
46.560        13
46.570        13
46.580        40
46.590        20
46.600        27
46.610        20
46.620        13
46.630        33
46.640        27
46.650        13
46.660        33
46.670        13
46.680        27
46.690        27
46.700        20
46.710        40
46.720         0
46.730        40
46.740         7
46.750        13
46.760        33
46.770        13
46.780        20
46.790        20
46.800        40
46.810        27
46.820        27
46.830        27
46.840         0
46.850         0
46.860         7
46.870        20
46.880         0
46.890        27
46.900        13
46.910        27
46.920        33
46.930         0
46.940        13
46.950        13
46.960        13
46.970        27
46.980        13
46.990        40
47.000        40
47.010        40
47.020        13
47.030        13
47.040        27
47.050         0
47.060        20
47.070        20
47.080        20
47.090        20
47.100         7
47.110        27
47.120        27
47.130         0
47.140        27
47.150        20
47.160         7
47.170        27
47.180        27
47.190        40
47.200        20
47.210        20
47.220        20
47.230        27
47.240        27
47.250        13
47.260        33
47.270        33
47.280        40
47.290        20
47.300        27
47.310        40
47.320         7
47.330        13
47.340        53
47.350        47
47.360        13
47.370         7
47.380        20
47.390         7
47.400         0
47.410        27
47.420        33
47.430        20
47.440        47
47.450        47
47.460         7
47.470        20
47.480        13
47.490        33
47.500        40
47.510        13
47.520        27
47.530        13
47.540        13
47.550        27
47.560        47
47.570         7
47.580        13
47.590        20
47.600        13
47.610        20
47.620        33
47.630        33
47.640         7
47.650        20
47.660        27
47.670        20
47.680        13
47.690        13
47.700        33
47.710        33
47.720         0
47.730        13
47.740        20
47.750        13
47.760         7
47.770         7
47.780        20
47.790         7
47.800        33
47.810        27
47.820         7
47.830        20
47.840         0
47.850         7
47.860        20
47.870        53
47.880        20
47.890        13
47.900        20
47.910        33
47.920        13
47.930        20
47.940         7
47.950        13
47.960        20
47.970        27
47.980        20
47.990        20
48.000        13
48.010        33
48.020         7
48.030        13
48.040         0
48.050        27
48.060        20
48.070        27
48.080        33
48.090        20
48.100        13
48.110        27
48.120        20
48.130        20
48.140        27
48.150        33
48.160        40
48.170        13
48.180        13
48.190        13
48.200        27
48.210        33
48.220        47
48.230        33
48.240        33
48.250        13
48.260        20
48.270        20
48.280        47
48.290        13
48.300        13
48.310        13
48.320        20
48.330        33
48.340         7
48.350         0
48.360        13
48.370        13
48.380        33
48.390        27
48.400         7
48.410        27
48.420        27
48.430        13
48.440        20
48.450        13
48.460        20
48.470         7
48.480        40
48.490        33
48.500         7
48.510        20
48.520        27
48.530        27
48.540        20
48.550        20
48.560        33
48.570        40
48.580        20
48.590        27
48.600         0
48.610        20
48.620        13
48.630        20
48.640         7
48.650        27
48.660        13
48.670         7
48.680         7
48.690        33
48.700        27
48.710        27
48.720         7
48.730        13
48.740         7
48.750        13
48.760        33
48.770        20
48.780        20
48.790        13
48.800         0
48.810        33
48.820        20
48.830         7
48.840        27
48.850        20
48.860        20
48.870         0
48.880        20
48.890        33
48.900        20
48.910        20
48.920         7
48.930        13
48.940        33
48.950        40
48.960         7
48.970         7
48.980         7
48.990        20
49.000         0
49.010        27
49.020         7
49.030        13
49.040        20
49.050        20
49.060        20
49.070         7
49.080        20
49.090         7
49.100        20
49.110         7
49.120        20
49.130         7
49.140        20
49.150        27
49.160         7
49.170        13
49.180        33
49.190        20
49.200        27
49.210        13
49.220        13
49.230         7
49.240         7
49.250        20
49.260        13
49.270        33
49.280        47
49.290         7
49.300        20
49.310        27
49.320        33
49.330        13
49.340        33
49.350        13
49.360        40
49.370         0
49.380         7
49.390         0
49.400        20
49.410        20
49.420        27
49.430         7
49.440        13
49.450        13
49.460        20
49.470        27
49.480        20
49.490        27
49.500        20
49.510        13
49.520        20
49.530        13
49.540        33
49.550        20
49.560        33
49.570        13
49.580         7
49.590        33
49.600        27
49.610        20
49.620        27
49.630        20
49.640        33
49.650        20
49.660        13
49.670        20
49.680        13
49.690        13
49.700        13
49.710        13
49.720        27
49.730         0
49.740        20
49.750        20
49.760        13
49.770         0
49.780        20
49.790         7
49.800        20
49.810        20
49.820        27
49.830         7
49.840        13
49.850        13
49.860        33
49.870        13
49.880        53
49.890         7
49.900         7
49.910        27
49.920         7
49.930        20
49.940        40
49.950        20
49.960        20
49.970        33
49.980         0
49.990        13
50.000        20
50.010        27
50.020        40
50.030        20
50.040        20
50.050        20
50.060        20
50.070        27
50.080        13
50.090        20
50.100        13
50.110        33
50.120         7
50.130        20
50.140        13
50.150        13
50.160        20
50.170        20
50.180        20
50.190        13
50.200        27
50.210        20
50.220         7
50.230         7
50.240         7
50.250        13
50.260        13
50.270        13
50.280         7
50.290        33
50.300         7
50.310        47
50.320        13
50.330        20
50.340        20
50.350         7
50.360         7
50.370        20
50.380        40
50.390        27
50.400        13
50.410        20
50.420        27
50.430        27
50.440         7
50.450         7
50.460        13
50.470        13
50.480        13
50.490        20
50.500         7
50.510        27
50.520         0
50.530         7
50.540        40
50.550        27
50.560        13
50.570        13
50.580        13
50.590        13
50.600        33
50.610         7
50.620         7
50.630        53
50.640        13
50.650         7
50.660        20
50.670         7
50.680        13
50.690         7
50.700        13
50.710        27
50.720        20
50.730        20
50.740        13
50.750        33
50.760         0
50.770        27
50.780        13
50.790        20
50.800        27
50.810        13
50.820        27
50.830         0
50.840        13
50.850         7
50.860         7
50.870        27
50.880        13
50.890        33
50.900        13
50.910        20
50.920        20
50.930        13
50.940        13
50.950        33
50.960        13
50.970        13
50.980        13
50.990         0
51.000        13
51.010        13
51.020        27
51.030        13
51.040        13
51.050        20
51.060        20
51.070         7
51.080        20
51.090        20
51.100        20
51.110        13
51.120        33
51.130        20
51.140        13
51.150        20
51.160         0
51.170         0
51.180        20
51.190         0
51.200        27
51.210        27
51.220         7
51.230        13
51.240         7
51.250        27
51.260        20
51.270        13
51.280         7
51.290        33
51.300        20
51.310        27
51.320        13
51.330        27
51.340         0
51.350        20
51.360        27
51.370        20
51.380         7
51.390         7
51.400         7
51.410         7
51.420        33
51.430        47
51.440         0
51.450        20
51.460        13
51.470        13
51.480        40
51.490         7
51.500        20
51.510        13
51.520         7
51.530        13
51.540         7
51.550         7
51.560        13
51.570        27
51.580        20
51.590        13
51.600         0
51.610        27
51.620        13
51.630        20
51.640        13
51.650         0
51.660         7
51.670        20
51.680        27
51.690        33
51.700        20
51.710        20
51.720         0
51.730        13
51.740        27
51.750        13
51.760         7
51.770         7
51.780        20
51.790        13
51.800        27
51.810        20
51.820         7
51.830        13
51.840         7
51.850        13
51.860         0
51.870         7
51.880         7
51.890        33
51.900        33
51.910        33
51.920         0
51.930        27
51.940         7
51.950        27
51.960        27
51.970        40
51.980        33
51.990         0
52.000        13
52.010         7
52.020        13
52.030        20
52.040        40
52.050        20
52.060         7
52.070        20
52.080        33
52.090         0
52.100         7
52.110        13
52.120         0
52.130        13
52.140        13
52.150         7
52.160        20
52.170        20
52.180        20
52.190         7
52.200        13
52.210        13
52.220        13
52.230        13
52.240        40
52.250        13
52.260        20
52.270         7
52.280        33
52.290        20
52.300        13
52.310        13
52.320         7
52.330        27
52.340        13
52.350         7
52.360        20
52.370         0
52.380        13
52.390        20
52.400        33
52.410         0
52.420         7
52.430         0
52.440         7
52.450         7
52.460        20
52.470        27
52.480        20
52.490         7
52.500        20
52.510        20
52.520        47
52.530        40
52.540        13
52.550        47
52.560        40
52.570        47
52.580        47
52.590        53
52.600        40
52.610        13
52.620        40
52.630        33
52.640         0
52.650        20
52.660        20
52.670         7
52.680         7
52.690        20
52.700        33
52.710        20
52.720        20
52.730        13
52.740        20
52.750        40
52.760        20
52.770        20
52.780        27
52.790         0
52.800        20
52.810        33
52.820        13
52.830        27
52.840        20
52.850        20
52.860         0
52.870        13
52.880        20
52.890        20
52.900        27
52.910        13
52.920         7
52.930         0
52.940        13
52.950        27
52.960        20
52.970        33
52.980        20
52.990        27
53.000         7
53.010        20
53.020        13
53.030         7
53.040        13
53.050        40
53.060        27
53.070         7
53.080         7
53.090        20
53.100        40
53.110         7
53.120        13
53.130         0
53.140        27
53.150        13
53.160        13
53.170         7
53.180        20
53.190         0
53.200        13
53.210         7
53.220        20
53.230        13
53.240        13
53.250         7
53.260         0
53.270         7
53.280        20
53.290         7
53.300        13
53.310        13
53.320         7
53.330        20
53.340        20
53.350         7
53.360         7
53.370        13
53.380        33
53.390        33
53.400        27
53.410         7
53.420        33
53.430        20
53.440         7
53.450         0
53.460        20
53.470        13
53.480        27
53.490        13
53.500        20
53.510         7
53.520         7
53.530        20
53.540         7
53.550        27
53.560        13
53.570         7
53.580        27
53.590        20
53.600         0
53.610         7
53.620         7
53.630        13
53.640        20
53.650        13
53.660        13
53.670        27
53.680        20
53.690        13
53.700         7
53.710        20
53.720         7
53.730        20
53.740        13
53.750        13
53.760        13
53.770         0
53.780        27
53.790        20
53.800         7
53.810         7
53.820         7
53.830        20
53.840        27
53.850        67
53.860         7
53.870        40
53.880        20
53.890        13
53.900        27
53.910        27
53.920        13
53.930        33
53.940        13
53.950         0
53.960        13
53.970        20
53.980        20
53.990        20
54.000        27
54.010        20
54.020         0
54.030         7
54.040        13
54.050        13
54.060        27
54.070        20
54.080         7
54.090        20
54.100         7
54.110        40
54.120        27
54.130        13
54.140        27
54.150        33
54.160        20
54.170        13
54.180        13
54.190        27
54.200         7
54.210        20
54.220        33
54.230        13
54.240         7
54.250        27
54.260        13
54.270        20
54.280         0
54.290        20
54.300        20
54.310        13
54.320        27
54.330        47
54.340        13
54.350        20
54.360         0
54.370        13
54.380         7
54.390        27
54.400        20
54.410        27
54.420         7
54.430         7
54.440         7
54.450        27
54.460        20
54.470        33
54.480        27
54.490        13
54.500        33
54.510        27
54.520         7
54.530         7
54.540        27
54.550         0
54.560        47
54.570        33
54.580        20
54.590        27
54.600        13
54.610        20
54.620        33
54.630        20
54.640        20
54.650        13
54.660        27
54.670        27
54.680        33
54.690        33
54.700        13
54.710         7
54.720         7
54.730        20
54.740        20
54.750        40
54.760        40
54.770        60
54.780        27
54.790        27
54.800        20
54.810         7
54.820        13
54.830        33
54.840        60
54.850        20
54.860        33
54.870        13
54.880        27
54.890        27
54.900        33
54.910        20
54.920        67
54.930        27
54.940        53
54.950        40
54.960        27
54.970        60
54.980        33
54.990        53
55.000        53
55.010        53
55.020        73
55.030        60
55.040        53
55.050        80
55.060       120
55.070       127
55.080       127
55.090       127
55.100        73
55.110       120
55.120       127
55.130       147
55.140        53
55.150        93
55.160       173
55.170       153
55.180       133
55.190       153
55.200       100
55.210       127
55.220        73
55.230       127
55.240        80
55.250        93
55.260        67
55.270       100
55.280       120
55.290        73
55.300       100
55.310        67
55.320        67
55.330       100
55.340        47
55.350        47
55.360        53
55.370        47
55.380        40
55.390        60
55.400        73
55.410        60
55.420        27
55.430        33
55.440        40
55.450        33
55.460        13
55.470        20
55.480        27
55.490        20
55.500        20
55.510        27
55.520        13
55.530        13
55.540         7
55.550        47
55.560        27
55.570        27
55.580         7
55.590        27
55.600         7
55.610        13
55.620        20
55.630        13
55.640         7
55.650        20
55.660        27
55.670        13
55.680         7
55.690         7
55.700        20
55.710         7
55.720        20
55.730        27
55.740         0
55.750        27
55.760        20
55.770         7
55.780        20
55.790        20
55.800         0
55.810        27
55.820         7
55.830        13
55.840         7
55.850        20
55.860        27
55.870         7
55.880        33
55.890         7
55.900        20
55.910        13
55.920        20
55.930         7
55.940        33
55.950        27
55.960         0
55.970        13
55.980         7
55.990        40
56.000        27
56.010        13
56.020        47
56.030         7
56.040        20
56.050        27
56.060        33
56.070        20
56.080        33
56.090        33
56.100        33
56.110         7
56.120        20
56.130        20
56.140        13
56.150         0
56.160         7
56.170        13
56.180        40
56.190        13
56.200         7
56.210        13
56.220        27
56.230        20
56.240        20
56.250        13
56.260        13
56.270        27
56.280        13
56.290         7
56.300         7
56.310        40
56.320         7
56.330        27
56.340        27
56.350        13
56.360        27
56.370         0
56.380        20
56.390         7
56.400         0
56.410        13
56.420        20
56.430         7
56.440        20
56.450        13
56.460         7
56.470        13
56.480        20
56.490        20
56.500         0
56.510        20
56.520        13
56.530        13
56.540         7
56.550         7
56.560        13
56.570        13
56.580        20
56.590        13
56.600         7
56.610        13
56.620        13
56.630        13
56.640        13
56.650        20
56.660        20
56.670        13
56.680         7
56.690        33
56.700         7
56.710         7
56.720        20
56.730         7
56.740        27
56.750        13
56.760        13
56.770        20
56.780         7
56.790         7
56.800        13
56.810        27
56.820         0
56.830        20
56.840         7
56.850        13
56.860        20
56.870         7
56.880         7
56.890        33
56.900         7
56.910        13
56.920         0
56.930        20
56.940        20
56.950        20
56.960        20
56.970        33
56.980        20
56.990        40
57.000         0
57.010        13
57.020        20
57.030        20
57.040         0
57.050         7
57.060         7
57.070        20
57.080        20
57.090        20
57.100         7
57.110        13
57.120        27
57.130        13
57.140         7
57.150        27
57.160         7
57.170        20
57.180         7
57.190        47
57.200         7
57.210        33
57.220         7
57.230        20
57.240        27
57.250        20
57.260         7
57.270        13
57.280        33
57.290        20
57.300        27
57.310        20
57.320        47
57.330        27
57.340        27
57.350        47
57.360        33
57.370        20
57.380        33
57.390        33
57.400        27
57.410        13
57.420        20
57.430        20
57.440        13
57.450         7
57.460        13
57.470         0
57.480        47
57.490        40
57.500        27
57.510        40
57.520        20
57.530        27
57.540         0
57.550        47
57.560        20
57.570        53
57.580        20
57.590        33
57.600        27
57.610         7
57.620        27
57.630        27
57.640        13
57.650        13
57.660        27
57.670        47
57.680        13
57.690        40
57.700        20
57.710        13
57.720        33
57.730         7
57.740        27
57.750        33
57.760        47
57.770        20
57.780        20
57.790        13
57.800         7
57.810        20
57.820         0
57.830        27
57.840        13
57.850         0
57.860         7
57.870        13
57.880        20
57.890        13
57.900        27
57.910        20
57.920         0
57.930        13
57.940        13
57.950        27
57.960        20
57.970        27
57.980        27
57.990         0
58.000         0
58.010        20
58.020         7
58.030         0
58.040        33
58.050        33
58.060        13
58.070        13
58.080        13
58.090        27
58.100        13
58.110        20
58.120        27
58.130        20
58.140         7
58.150        20
58.160         7
58.170         7
58.180        20
58.190        40
58.200        20
58.210         7
58.220         0
58.230         0
58.240        33
58.250         7
58.260        13
58.270        33
58.280         7
58.290         0
58.300        20
58.310        20
58.320        13
58.330        13
58.340        13
58.350        13
58.360        20
58.370         7
58.380        13
58.390         7
58.400         7
58.410        27
58.420        27
58.430        13
58.440        33
58.450        13
58.460         0
58.470        27
58.480         7
58.490        13
58.500        20
58.510        27
58.520        20
58.530        13
58.540        13
58.550        20
58.560        13
58.570        33
58.580         7
58.590        13
58.600        13
58.610         7
58.620         0
58.630         7
58.640         7
58.650        20
58.660        20
58.670         7
58.680         0
58.690         0
58.700        13
58.710        13
58.720        13
58.730         7
58.740        13
58.750         7
58.760        13
58.770         7
58.780         7
58.790         0
58.800        20
58.810        13
58.820        40
58.830         7
58.840        20
58.850        13
58.860        13
58.870         7
58.880        20
58.890        20
58.900         0
58.910        27
58.920        13
58.930        13
58.940         0
58.950        33
58.960        20
58.970         7
58.980        27
58.990        13
59.000        20
59.010        20
59.020        13
59.030        27
59.040        13
59.050        13
59.060        13
59.070        27
59.080        13
59.090        13
59.100         7
59.110        20
59.120         0
59.130        20
59.140        13
59.150        47
59.160        20
59.170         0
59.180         7
59.190        13
59.200        13
59.210         7
59.220        20
59.230        13
59.240        27
59.250        33
59.260        27
59.270        33
59.280        20
59.290        20
59.300        13
59.310         0
59.320        13
59.330        20
59.340         7
59.350        13
59.360        13
59.370        27
59.380        13
59.390        13
59.400         7
59.410        20
59.420        27
59.430        13
59.440        13
59.450         7
59.460        13
59.470         7
59.480         7
59.490        13
59.500        13
59.510        13
59.520        27
59.530        13
59.540         0
59.550        20
59.560        27
59.570         7
59.580         7
59.590        20
59.600        13
59.610        20
59.620        13
59.630        13
59.640        27
59.650         7
59.660        40
59.670         7
59.680        13
59.690        27
59.700        27
59.710        13
59.720        27
59.730         0
59.740        27
59.750        27
59.760        13
59.770        27
59.780         7
59.790        27
59.800        27
59.810         0
59.820        13
59.830         7
59.840         0
59.850        13
59.860        27
59.870        20
59.880         7
59.890         0
59.900        13
59.910         7
59.920         0
59.930         7
59.940        33
59.950         7
59.960         0
59.970         0
59.980        13
59.990        13
60.000        13
