20.000        20
20.010        20
20.020        20
20.030         7
20.040        73
20.050        67
20.060        27
20.070        33
20.080        33
20.090        53
20.100        47
20.110        47
20.120        53
20.130        60
20.140        53
20.150        67
20.160        33
20.170        40
20.180        47
20.190        53
20.200        53
20.210        40
20.220        20
20.230        47
20.240        53
20.250        53
20.260        40
20.270        47
20.280        40
20.290        33
20.300        53
20.310        47
20.320        80
20.330        27
20.340        60
20.350        67
20.360        73
20.370        47
20.380        73
20.390        67
20.400        47
20.410        60
20.420        33
20.430        47
20.440        40
20.450        73
20.460        40
20.470        80
20.480        40
20.490        53
20.500        40
20.510        73
20.520        47
20.530        53
20.540        93
20.550        53
20.560        40
20.570        40
20.580        47
20.590        47
20.600        67
20.610        53
20.620        40
20.630        33
20.640        53
20.650        80
20.660        27
20.670        80
20.680        53
20.690        67
20.700        40
20.710        93
20.720        27
20.730        60
20.740        20
20.750        60
20.760        60
20.770        40
20.780        47
20.790        40
20.800        27
20.810        73
20.820        60
20.830        67
20.840        33
20.850        33
20.860        40
20.870        53
20.880        33
20.890        47
20.900        27
20.910        67
20.920        80
20.930        87
20.940        60
20.950        53
20.960        40
20.970        53
20.980        40
20.990        33
21.000        67
21.010        47
21.020        47
21.030        33
21.040        53
21.050        20
21.060        47
21.070        47
21.080        67
21.090        60
21.100        27
21.110        53
21.120        33
21.130        53
21.140        73
21.150        27
21.160        13
21.170        80
21.180        47
21.190        73
21.200        73
21.210        67
21.220        47
21.230        20
21.240        40
21.250        33
21.260        60
21.270        80
21.280        47
21.290        33
21.300        53
21.310        60
21.320         7
21.330        53
21.340        73
21.350        40
21.360        40
21.370        60
21.380        27
21.390        27
21.400        60
21.410        67
21.420        60
21.430        33
21.440        40
21.450        53
21.460        67
21.470        53
21.480        80
21.490        53
21.500        33
21.510        47
21.520        47
21.530        20
21.540        73
21.550        60
21.560        27
21.570        27
21.580        27
21.590        33
21.600        73
21.610        73
21.620        33
21.630        40
21.640        40
21.650        33
21.660        27
21.670        40
21.680        60
21.690        33
21.700        67
21.710        20
21.720        40
21.730        47
21.740        73
21.750        40
21.760        47
21.770        67
21.780        53
21.790        67
21.800        33
21.810        60
21.820        67
21.830        47
21.840        67
21.850        67
21.860        73
21.870        47
21.880        47
21.890        53
21.900        27
21.910        40
21.920        40
21.930        40
21.940        67
21.950        53
21.960        40
21.970        40
21.980        60
21.990        40
22.000        40
22.010        67
22.020        33
22.030        60
22.040        67
22.050        40
22.060        33
22.070        47
22.080        73
22.090       100
22.100        20
22.110        93
22.120        40
22.130        93
22.140        47
22.150        47
22.160       107
22.170        73
22.180        27
22.190        47
22.200        93
22.210        73
22.220        53
22.230        80
22.240        53
22.250        93
22.260       107
22.270        73
22.280        80
22.290        60
22.300       113
22.310        93
22.320        53
22.330        73
22.340       127
22.350        87
22.360       153
22.370        80
22.380       127
22.390        87
22.400       167
22.410       147
22.420       133
22.430       160
22.440       140
22.450       187
22.460       240
22.470       240
22.480       280
22.490       240
22.500       267
22.510       327
22.520       313
22.530       380
22.540       360
22.550       466
22.560       466
22.570       566
22.580       546
22.590       513
22.600       553
22.610       653
22.620       686
22.630       766
22.640       720
22.650       773
22.660       926
22.670       866
22.680       780
22.690       793
22.700       740
22.710       920
22.720       706
22.730       860
22.740       793
22.750       740
22.760       580
22.770       640
22.780       546
22.790       646
22.800       526
22.810       526
22.820       486
22.830       546
22.840       340
22.850       367
22.860       260
22.870       333
22.880       273
22.890       240
22.900       240
22.910       227
22.920       160
22.930       193
22.940       140
22.950       180
22.960       147
22.970       193
22.980       193
22.990       140
23.000       167
23.010        87
23.020       153
23.030       120
23.040       127
23.050       113
23.060       167
23.070       153
23.080       107
23.090       100
23.100       167
23.110       100
23.120       140
23.130       120
23.140        87
23.150       120
23.160        47
23.170        53
23.180       107
23.190       107
23.200        80
23.210       100
23.220       107
23.230        47
23.240        80
23.250       127
23.260        53
23.270        80
23.280        73
23.290       107
23.300        67
23.310        67
23.320        60
23.330       120
23.340       107
23.350        73
23.360        73
23.370        40
23.380        67
23.390        67
23.400        47
23.410        60
23.420        60
23.430        47
23.440        53
23.450        27
23.460        27
23.470        60
23.480        73
23.490        47
23.500        60
23.510        73
23.520        47
23.530        93
23.540        60
23.550        53
23.560        60
23.570        60
23.580        40
23.590        53
23.600        47
23.610        47
23.620        40
23.630        67
23.640        60
23.650        60
23.660        67
23.670        60
23.680        53
23.690        53
23.700        40
23.710        40
23.720        53
23.730        33
23.740        73
23.750        47
23.760        60
23.770        73
23.780        53
23.790        80
23.800        47
23.810        40
23.820        73
23.830        40
23.840        73
23.850        53
23.860        73
23.870        47
23.880        47
23.890        80
23.900        60
23.910        67
23.920        33
23.930        40
23.940        60
23.950        73
23.960        87
23.970        47
23.980        60
23.990        60
24.000        60
24.010        27
24.020        67
24.030        67
24.040        80
24.050        93
24.060       147
24.070        80
24.080        67
24.090        73
24.100        73
24.110        33
24.120        67
24.130        53
24.140        40
24.150        20
24.160        67
24.170       113
24.180        60
24.190        80
24.200        67
24.210        47
24.220        80
24.230        67
24.240        27
24.250        40
24.260        27
24.270        60
24.280        33
24.290        67
24.300        47
24.310        53
24.320        40
24.330        27
24.340        73
24.350        53
24.360        47
24.370        40
24.380        67
24.390        60
24.400        47
24.410        33
24.420        40
24.430        87
24.440        33
24.450        53
24.460        40
24.470        67
24.480        60
24.490        47
24.500        73
24.510        60
24.520        93
24.530        67
24.540        53
24.550        67
24.560        33
24.570        53
24.580        53
24.590        60
24.600        60
24.610        73
24.620        20
24.630        87
24.640        53
24.650        40
24.660        53
24.670        67
24.680        53
24.690        33
24.700        47
24.710        33
24.720        53
24.730        67
24.740        67
24.750        80
24.760        40
24.770        40
24.780        33
24.790        73
24.800        67
24.810       120
24.820        47
24.830        80
24.840        33
24.850        47
24.860        33
24.870        47
24.880        53
24.890        53
24.900        60
24.910        67
24.920        53
24.930        53
24.940        60
24.950        33
24.960        40
24.970        93
24.980        40
24.990        20
25.000        33
25.010        53
25.020        47
25.030        47
25.040        47
25.050        40
25.060        60
25.070        27
25.080       107
25.090        67
25.100        40
25.110        60
25.120        53
25.130        40
25.140        20
25.150        40
25.160        60
25.170        33
25.180        60
25.190        60
25.200        53
25.210        33
25.220        60
25.230        87
25.240        20
25.250        53
25.260        73
25.270        47
25.280        93
25.290        47
25.300        60
25.310        73
25.320        93
25.330        67
25.340        53
25.350        60
25.360       107
25.370        80
25.380        60
25.390        47
25.400        47
25.410        33
25.420        73
25.430        80
25.440        53
25.450       113
25.460        73
25.470        27
25.480        80
25.490        93
25.500        87
25.510       127
25.520        80
25.530       127
25.540       120
25.550       167
25.560       133
25.570       147
25.580       147
25.590       173
25.600       160
25.610       120
25.620       153
25.630       180
25.640       193
25.650        80
25.660       153
25.670        80
25.680       120
25.690       100
25.700       100
25.710        87
25.720        93
25.730        80
25.740        47
25.750        27
25.760        13
25.770        53
25.780        33
25.790        80
25.800        47
25.810        67
25.820        53
25.830        47
25.840        20
25.850        53
25.860        60
25.870        47
25.880        40
25.890        47
25.900        47
25.910        40
25.920        13
25.930        33
25.940        40
25.950        47
25.960        47
25.970        53
25.980        73
25.990        60
26.000        33
26.010        47
26.020        27
26.030        60
26.040        47
26.050        47
26.060        53
26.070        47
26.080        27
26.090        67
26.100        27
26.110        47
26.120        67
26.130        53
26.140        40
26.150        27
26.160        33
26.170        53
26.180        53
26.190        53
26.200        60
26.210        67
26.220        40
26.230        60
26.240        33
26.250        40
26.260        33
26.270        73
26.280        47
26.290        73
26.300        40
26.310        47
26.320        53
26.330        40
26.340        67
26.350        60
26.360        87
26.370        27
26.380        47
26.390        87
26.400        67
26.410        47
26.420        80
26.430        67
26.440        47
26.450        33
26.460        33
26.470        67
26.480        80
26.490        33
26.500       127
26.510        60
26.520        40
26.530        80
26.540        53
26.550        67
26.560        20
26.570        67
26.580        80
26.590        53
26.600        40
26.610        60
26.620        40
26.630        33
26.640        40
26.650        60
26.660        67
26.670        53
26.680        60
26.690        20
26.700        40
26.710        53
26.720        60
26.730        47
26.740        40
26.750        40
26.760        40
26.770        40
26.780        60
26.790        60
26.800        20
26.810        60
26.820        67
26.830        53
26.840        33
26.850        53
26.860        67
26.870        40
26.880        33
26.890        47
26.900        20
26.910        53
26.920        40
26.930        47
26.940        67
26.950        40
26.960        60
26.970        60
26.980        13
26.990        33
27.000        53
27.010        67
27.020        33
27.030        60
27.040        40
27.050        47
27.060        40
27.070        33
27.080        53
27.090        47
27.100        47
27.110        27
27.120        60
27.130        53
27.140        53
27.150        53
27.160        27
27.170        67
27.180        33
27.190        47
27.200        33
27.210        33
27.220        33
27.230        73
27.240        67
27.250        40
27.260        47
27.270        60
27.280        20
27.290        60
27.300        53
27.310        60
27.320        40
27.330        40
27.340        73
27.350        20
27.360        73
27.370        67
27.380        40
27.390        73
27.400        33
27.410        53
27.420        47
27.430        47
27.440        20
27.450        33
27.460        47
27.470        53
27.480        33
27.490        53
27.500        27
27.510        60
27.520        27
27.530        40
27.540        40
27.550        67
27.560        60
27.570        47
27.580        40
27.590        47
27.600        47
27.610        67
27.620        40
27.630        80
27.640        20
27.650        47
27.660        60
27.670        40
27.680        27
27.690        47
27.700        53
27.710        33
27.720        27
27.730        33
27.740        60
27.750        27
27.760        27
27.770        33
27.780         7
27.790        60
27.800        73
27.810        73
27.820        40
27.830        40
27.840        27
27.850        33
27.860        47
27.870        47
27.880        27
27.890        67
27.900        47
27.910        27
27.920        47
27.930        40
27.940        47
27.950        33
27.960        93
27.970        60
27.980        40
27.990        47
28.000        80
28.010        67
28.020        33
28.030        73
28.040        67
28.050        53
28.060        47
28.070        60
28.080        40
28.090        53
28.100        60
28.110        33
28.120        47
28.130        93
28.140        53
28.150        47
28.160        27
28.170        47
28.180        87
28.190        27
28.200        53
28.210        47
28.220        33
28.230        40
28.240        53
28.250        27
28.260        33
28.270        47
28.280        60
28.290        33
28.300        47
28.310        73
28.320        40
28.330        53
28.340        60
28.350        53
28.360        40
28.370        47
28.380        53
28.390        27
28.400        40
28.410        40
28.420        40
28.430        33
28.440        60
28.450        73
28.460        27
28.470        27
28.480        33
28.490        13
28.500        47
28.510        40
28.520        27
28.530        40
28.540        40
28.550        33
28.560        27
28.570        27
28.580        80
28.590        33
28.600        27
28.610        53
28.620        40
28.630        33
28.640        47
28.650        53
28.660        67
28.670        33
28.680         7
28.690        60
28.700        60
28.710        60
28.720        27
28.730        27
28.740        47
28.750        27
28.760        47
28.770        53
28.780        33
28.790        40
28.800        13
28.810        73
28.820        33
28.830        33
28.840        80
28.850        53
28.860        33
28.870        67
28.880        67
28.890        67
28.900        47
28.910        33
28.920        80
28.930        53
28.940        53
28.950        53
28.960        73
28.970        40
28.980        67
28.990        53
29.000        13
29.010        40
29.020        60
29.030        47
29.040        33
29.050        60
29.060        40
29.070        60
29.080        53
29.090        60
29.100        73
29.110        40
29.120        67
29.130        40
29.140        80
29.150        53
29.160        80
29.170        47
29.180        40
29.190        47
29.200        87
29.210        73
29.220        80
29.230        53
29.240        27
29.250        47
29.260        93
29.270        47
29.280        40
29.290        40
29.300        53
29.310        67
29.320        33
29.330        33
29.340        40
29.350        53
29.360        40
29.370        33
29.380        47
29.390        53
29.400        47
29.410        40
29.420        27
29.430        33
29.440        73
29.450        13
29.460        33
29.470        60
29.480        47
29.490        47
29.500        53
29.510        33
29.520        20
29.530        40
29.540        13
29.550        87
29.560        40
29.570        87
29.580        53
29.590        53
29.600        40
29.610        33
29.620        40
29.630        47
29.640        53
29.650        40
29.660        67
29.670        20
29.680        33
29.690        80
29.700        53
29.710        40
29.720        27
29.730        20
29.740        20
29.750        40
29.760        13
29.770        53
29.780        67
29.790        20
29.800        40
29.810        27
29.820        53
29.830        47
29.840        40
29.850        60
29.860        47
29.870        27
29.880        13
29.890        47
29.900        40
29.910        53
29.920        53
29.930        47
29.940        47
29.950        67
29.960        33
29.970        40
29.980        13
29.990        27
30.000        40
30.010        27
30.020        27
30.030        67
30.040        27
30.050        47
30.060        27
30.070        33
30.080        33
30.090        47
30.100        33
30.110        20
30.120        20
30.130        27
30.140        40
30.150        53
30.160        60
30.170        27
30.180        33
30.190        40
30.200        47
30.210        33
30.220        33
30.230        47
30.240        40
30.250        27
30.260        33
30.270        33
30.280        27
30.290        27
30.300        53
30.310        27
30.320        67
30.330        13
30.340        27
30.350        40
30.360        60
30.370        33
30.380        60
30.390        27
30.400        20
30.410        47
30.420        27
30.430        53
30.440        33
30.450        40
30.460        13
30.470        33
30.480        73
30.490        40
30.500        33
30.510        60
30.520        40
30.530        20
30.540        20
30.550        47
30.560        47
30.570        27
30.580        40
30.590        60
30.600        27
30.610        40
30.620        47
30.630         7
30.640        40
30.650        33
30.660        53
30.670        27
30.680        27
30.690        47
30.700        33
30.710        47
30.720        47
30.730        40
30.740        33
30.750        33
30.760        47
30.770        73
30.780        27
30.790        13
30.800        13
30.810        53
30.820        53
30.830        47
30.840        20
30.850        40
30.860        27
30.870        20
30.880        27
30.890        33
30.900        60
30.910        40
30.920        53
30.930        40
30.940        60
30.950        47
30.960        47
30.970        20
30.980        20
30.990        73
31.000        67
31.010        40
31.020        40
31.030        27
31.040        40
31.050         7
31.060        27
31.070        47
31.080        33
31.090        27
31.100        47
31.110        40
31.120        40
31.130        67
31.140         7
31.150        47
31.160        53
31.170        53
31.180        40
31.190        27
31.200        27
31.210        80
31.220        27
31.230        47
31.240        73
31.250        33
31.260        87
31.270        33
31.280        40
31.290        73
31.300        67
31.310        47
31.320        33
31.330        33
31.340        27
31.350        27
31.360        33
31.370        33
31.380        67
31.390        60
31.400        53
31.410        60
31.420        47
31.430        33
31.440        40
31.450        27
31.460        60
31.470        67
31.480        47
31.490        40
31.500        47
31.510        60
31.520        33
31.530        27
31.540        60
31.550        47
31.560        47
31.570        53
31.580        53
31.590        27
31.600        33
31.610        53
31.620        20
31.630       113
31.640        33
31.650        33
31.660        40
31.670        33
31.680       120
31.690        53
31.700        73
31.710        33
31.720        60
31.730        73
31.740        53
31.750        67
31.760        67
31.770        40
31.780        33
31.790        53
31.800        60
31.810        93
31.820        73
31.830        33
31.840        53
31.850        87
31.860        53
31.870        67
31.880       113
31.890       107
31.900       100
31.910        73
31.920        47
31.930        80
31.940        87
31.950        93
31.960        67
31.970        40
31.980       133
31.990        80
32.000       113
32.010        87
32.020        80
32.030        93
32.040       127
32.050       113
32.060       173
32.070       187
32.080       167
32.090       200
32.100       153
32.110       213
32.120       260
32.130       267
32.140       247
32.150       247
32.160       320
32.170       413
32.180       393
32.190       540
32.200       506
32.210       513
32.220       493
32.230       546
32.240       820
32.250       673
32.260       726
32.270       926
32.280      1033
32.290      1166
32.300      1306
32.310      1333
32.320      1546
32.330      1606
32.340      1846
32.350      2166
32.360      2206
32.370      2452
32.380      2439
32.390      2712
32.400      2666
32.410      2892
32.420      2846
32.430      2666
32.440      2846
32.450      2399
32.460      2472
32.470      2279
32.480      2073
32.490      2146
32.500      2006
32.510      1846
32.520      1599
32.530      1386
32.540      1466
32.550      1153
32.560      1073
32.570       820
32.580       700
32.590       640
32.600       753
32.610       526
32.620       446
32.630       380
32.640       353
32.650       353
32.660       333
32.670       287
32.680       233
32.690       200
32.700       180
32.710       313
32.720       140
32.730       227
32.740       100
32.750       160
32.760       140
32.770       120
32.780       127
32.790       160
32.800       173
32.810       140
32.820        93
32.830       100
32.840        87
32.850       107
32.860        87
32.870        60
32.880        53
32.890        47
32.900        93
32.910       100
32.920        53
32.930       127
32.940        60
32.950        60
32.960        53
32.970       113
32.980        33
32.990        87
33.000        87
33.010        80
33.020        33
33.030        73
33.040        53
33.050        60
33.060        80
33.070       100
33.080        53
33.090        40
33.100        47
33.110        53
33.120        53
33.130        53
33.140        33
33.150        67
33.160        47
33.170        53
33.180        60
33.190        60
33.200        33
33.210        53
33.220        20
33.230        80
33.240         7
33.250        73
33.260        47
33.270        67
33.280        27
33.290        33
33.300        40
33.310        47
33.320        47
33.330        67
33.340        40
33.350        40
33.360        47
33.370        33
33.380        53
33.390        47
33.400        27
33.410        53
33.420        47
33.430        80
33.440        40
33.450        47
33.460        40
33.470        20
33.480        33
33.490        40
33.500        53
33.510        47
33.520        47
33.530        40
33.540        20
33.550        27
33.560        67
33.570        53
33.580        33
33.590        80
33.600        60
33.610        60
33.620        47
33.630        33
33.640        20
33.650        47
33.660        33
33.670        73
33.680        27
33.690        40
33.700        60
33.710        60
33.720        40
33.730        33
33.740       133
33.750        73
33.760        53
33.770        47
33.780        40
33.790        33
33.800        33
33.810        53
33.820        13
33.830        60
33.840         7
33.850        27
33.860        13
33.870        33
33.880        27
33.890        47
33.900        27
33.910        40
33.920        20
33.930        53
33.940        47
33.950        13
33.960         7
33.970        13
33.980        27
33.990        33
34.000        40
34.010        53
34.020        40
34.030        20
34.040        27
34.050        53
34.060        33
34.070         7
34.080        27
34.090        47
34.100        73
34.110        33
34.120        40
34.130        53
34.140        60
34.150        27
34.160        53
34.170        33
34.180        27
34.190        20
34.200        20
34.210        53
34.220        53
34.230        40
34.240        47
34.250        47
34.260        13
34.270        27
34.280        13
34.290        20
34.300         7
34.310        47
34.320        33
34.330        27
34.340        33
34.350        13
34.360        40
34.370        33
34.380        40
34.390        20
34.400        33
34.410        20
34.420        60
34.430        13
34.440       100
34.450        40
34.460        47
34.470        40
34.480        33
34.490        40
34.500        13
34.510        53
34.520        53
34.530        53
34.540        20
34.550        40
34.560        40
34.570        13
34.580        67
34.590        40
34.600        20
34.610        13
34.620        27
34.630        13
34.640        40
34.650        33
34.660        40
34.670        27
34.680        47
34.690        27
34.700        20
34.710        33
34.720        27
34.730        40
34.740        33
34.750        40
34.760        27
34.770        27
34.780        60
34.790        33
34.800        40
34.810        47
34.820        47
34.830        13
34.840        13
34.850        60
34.860         0
34.870        20
34.880        33
34.890        33
34.900        27
34.910        47
34.920        27
34.930        20
34.940        20
34.950         7
34.960        40
34.970        40
34.980        40
34.990        20
35.000        33
35.010        33
35.020        40
35.030        27
35.040        47
35.050        13
35.060        33
35.070        27
35.080        13
35.090        60
35.100        33
35.110        47
35.120        33
35.130        47
35.140        20
35.150        27
35.160        13
35.170        40
35.180        53
35.190        33
35.200        53
35.210        13
35.220        40
35.230        33
35.240        47
35.250        27
35.260        40
35.270        20
35.280        27
35.290        47
35.300        13
35.310        40
35.320        20
35.330        20
35.340        60
35.350        60
35.360        13
35.370        47
35.380        27
35.390        33
35.400        20
35.410        40
35.420        27
35.430        20
35.440         0
35.450        40
35.460        33
35.470        40
35.480        33
35.490        47
35.500        27
35.510        33
35.520        33
35.530        27
35.540        20
35.550        33
35.560        27
35.570        33
35.580        20
35.590        27
35.600        40
35.610        40
35.620        27
35.630        20
35.640        13
35.650        20
35.660         7
35.670        40
35.680        53
35.690        13
35.700        20
35.710        27
35.720        27
35.730        47
35.740        40
35.750        33
35.760        33
35.770        53
35.780         7
35.790        27
35.800        13
35.810        20
35.820        27
35.830        27
35.840        20
35.850         7
35.860        33
35.870        20
35.880        27
35.890        40
35.900        40
35.910        27
35.920        33
35.930        40
35.940        40
35.950        13
35.960        13
35.970        47
35.980        47
35.990        40
36.000        20
36.010        47
36.020        13
36.030        27
36.040        13
36.050        60
36.060        27
36.070        13
36.080        27
36.090        47
36.100        53
36.110         7
36.120        13
36.130        40
36.140        47
36.150        60
36.160         0
36.170        33
36.180        20
36.190         0
36.200        53
36.210        40
36.220        33
36.230        40
36.240        40
36.250        40
36.260        33
36.270        20
36.280        33
36.290        33
36.300        33
36.310        47
36.320         7
36.330         7
36.340        27
36.350        20
36.360        33
36.370        27
36.380        20
36.390        20
36.400        33
36.410        27
36.420        27
36.430        33
36.440        27
36.450        47
36.460        13
36.470        40
36.480        33
36.490        27
36.500        33
36.510         7
36.520        27
36.530        20
36.540        40
36.550        20
36.560        27
36.570        33
36.580        13
36.590        53
36.600        27
36.610        27
36.620        20
36.630        13
36.640        20
36.650        13
36.660        13
36.670        33
36.680        27
36.690        40
36.700        40
36.710        33
36.720        33
36.730        47
36.740        20
36.750        27
36.760        33
36.770        13
36.780        27
36.790        47
36.800        27
36.810         7
36.820        13
36.830        27
36.840        20
36.850        33
36.860        33
36.870        33
36.880        33
36.890        33
36.900        13
36.910        20
36.920        33
36.930         7
36.940         0
36.950        20
36.960         7
36.970        53
36.980        20
36.990        27
37.000        47
37.010        47
37.020        47
37.030        20
37.040        33
37.050        27
37.060        40
37.070         0
37.080        33
37.090        20
37.100        47
37.110        13
37.120        20
37.130         7
37.140        13
37.150         7
37.160        60
37.170        53
37.180        33
37.190        40
37.200        13
37.210        33
37.220        40
37.230        33
37.240        47
37.250        20
37.260        33
37.270        13
37.280        53
37.290        13
37.300        27
37.310         0
37.320        33
37.330        53
37.340        13
37.350        20
37.360        27
37.370        27
37.380        20
37.390        20
37.400        27
37.410        13
37.420        13
37.430        13
37.440        27
37.450        13
37.460        73
37.470        27
37.480        20
37.490        13
37.500        27
37.510        27
37.520        27
37.530        13
37.540        27
37.550        20
37.560        33
37.570         7
37.580         7
37.590        33
37.600        33
37.610        27
37.620        33
37.630        20
37.640        13
37.650        33
37.660        20
37.670        20
37.680        20
37.690        33
37.700        33
37.710        40
37.720        27
37.730        20
37.740        20
37.750        47
37.760        40
37.770        13
37.780        20
37.790        13
37.800        40
37.810        27
37.820        13
37.830         0
37.840        13
37.850        33
37.860        20
37.870        20
37.880        53
37.890        40
37.900        40
37.910         7
37.920        20
37.930        20
37.940        20
37.950        20
37.960        33
37.970        27
37.980        33
37.990        27
38.000        20
38.010         7
38.020        27
38.030        20
38.040        27
38.050        40
38.060        40
38.070        13
38.080        67
38.090        13
38.100        20
38.110        13
38.120        40
38.130        13
38.140        47
38.150        40
38.160        20
38.170        27
38.180        27
38.190        20
38.200        13
38.210        13
38.220        53
38.230        27
38.240         7
38.250        20
38.260        20
38.270        20
38.280         7
38.290        20
38.300        27
38.310        20
38.320        40
38.330        13
38.340        40
38.350        27
38.360        20
38.370        13
38.380        13
38.390         0
38.400        20
38.410         7
38.420        60
38.430        20
38.440        27
38.450        13
38.460         7
38.470        13
38.480        20
38.490        13
38.500         7
38.510        33
38.520        27
38.530        20
38.540        33
38.550        27
38.560        13
38.570        33
38.580        13
38.590         7
38.600        13
38.610         7
38.620        20
38.630        13
38.640        33
38.650        27
38.660        27
38.670        40
38.680        20
38.690        20
38.700        33
38.710        40
38.720        33
38.730        27
38.740        13
38.750        27
38.760        67
38.770        27
38.780         7
38.790        27
38.800        33
38.810         7
38.820        40
38.830        20
38.840         7
38.850        13
38.860        40
38.870        27
38.880        27
38.890        20
38.900        33
38.910        40
38.920        13
38.930        40
38.940        20
38.950        27
38.960        20
38.970        33
38.980        27
38.990        40
39.000        27
39.010        27
39.020        20
39.030        33
39.040        13
39.050        20
39.060        20
39.070        20
39.080        33
39.090        40
39.100        40
39.110        27
39.120        33
39.130        13
39.140        13
39.150        27
39.160        40
39.170        27
39.180        20
39.190        33
39.200        20
39.210         7
39.220        27
39.230        27
39.240        27
39.250        33
39.260         7
39.270        20
39.280        20
39.290        33
39.300        60
39.310        27
39.320        53
39.330        13
39.340        20
39.350        27
39.360        53
39.370         0
39.380        47
39.390        20
39.400        20
39.410         7
39.420        40
39.430        20
39.440        27
39.450         0
39.460        33
39.470        33
39.480        33
39.490        27
39.500        40
39.510         7
39.520        40
39.530        27
39.540        13
39.550        13
39.560        33
39.570        13
39.580        20
39.590        27
39.600        40
39.610        33
39.620        27
39.630        40
39.640        13
39.650        67
39.660        27
39.670        60
39.680        27
39.690        13
39.700        33
39.710        27
39.720        27
39.730        27
39.740        60
39.750        13
39.760        13
39.770        27
39.780        13
39.790        27
39.800        67
39.810        40
39.820        53
39.830        80
39.840        67
39.850        60
39.860        87
39.870       107
39.880        73
39.890        73
39.900       113
39.910       100
39.920       120
39.930       160
39.940       193
39.950       200
39.960       113
39.970       227
39.980       227
39.990       233
40.000       240
40.010       227
40.020       187
40.030       187
40.040       220
40.050       200
40.060       147
40.070       147
40.080       207
40.090       120
40.100       140
40.110       213
40.120       100
40.130       120
40.140       187
40.150        93
40.160       133
40.170       120
40.180        93
40.190       100
40.200        87
40.210        60
40.220       107
40.230        47
40.240        60
40.250       100
40.260        47
40.270        73
40.280        60
40.290        20
40.300        33
40.310        40
40.320        20
40.330        60
40.340        20
40.350        33
40.360         7
40.370        33
40.380        33
40.390        47
40.400        20
40.410         7
40.420        53
40.430         7
40.440        40
40.450        27
40.460        27
40.470         7
40.480        27
40.490        47
40.500        40
40.510        13
40.520        27
40.530        20
40.540        27
40.550        20
40.560        13
40.570        27
40.580        33
40.590        13
40.600        40
40.610        33
40.620        40
40.630        33
40.640        47
40.650        47
40.660        40
40.670         7
40.680        47
40.690        20
40.700        27
40.710        33
40.720        20
40.730        20
40.740        13
40.750        40
40.760        20
40.770        33
40.780        27
40.790        20
40.800        33
40.810        13
40.820        33
40.830        20
40.840        40
40.850         7
40.860        33
40.870        40
40.880        20
40.890        27
40.900        13
40.910        13
40.920        40
40.930        33
40.940        33
40.950        33
40.960        33
40.970        20
40.980        20
40.990        20
41.000        13
41.010        53
41.020        47
41.030        13
41.040        20
41.050        20
41.060        33
41.070        40
41.080        13
41.090        20
41.100        20
41.110        40
41.120        40
41.130        33
41.140        40
41.150        73
41.160        40
41.170        33
41.180        47
41.190        20
41.200         0
41.210        27
41.220         0
41.230        40
41.240        53
41.250        13
41.260        33
41.270        33
41.280        60
41.290        40
41.300        20
41.310        47
41.320        33
41.330        33
41.340        27
41.350        60
41.360        33
41.370        27
41.380        53
41.390        20
41.400        67
41.410        33
41.420        53
41.430        47
41.440        60
41.450        40
41.460        20
41.470        87
41.480        60
41.490        47
41.500        87
41.510        87
41.520       113
41.530        53
41.540        93
41.550        73
41.560        20
41.570        53
41.580        60
41.590        80
41.600        67
41.610        47
41.620        67
41.630        40
41.640        93
41.650        60
41.660        80
41.670        73
41.680        87
41.690        60
41.700        80
41.710        60
41.720        47
41.730        47
41.740       100
41.750        13
41.760        27
41.770        27
41.780        73
41.790        40
41.800        87
41.810        53
41.820        60
41.830        60
41.840        60
41.850        93
41.860        67
41.870        47
41.880        47
41.890        27
41.900        53
41.910        33
41.920        67
41.930        40
41.940        33
41.950        47
41.960        40
41.970        47
41.980        47
41.990        33
42.000        40
42.010        53
42.020        40
42.030        33
42.040        80
42.050        53
42.060         7
42.070        53
42.080        13
42.090        53
42.100        33
42.110        33
42.120         0
42.130        33
42.140        27
42.150        47
42.160        20
42.170        20
42.180        20
42.190        47
42.200        73
42.210        20
42.220        20
42.230        53
42.240        27
42.250        27
42.260        40
42.270        20
42.280         7
42.290        13
42.300        13
42.310         7
42.320        20
42.330         7
42.340        47
42.350        27
42.360        20
42.370        33
42.380        27
42.390         7
42.400        87
42.410        20
42.420        20
42.430        27
42.440        33
42.450        33
42.460        13
42.470        20
42.480        20
42.490        40
42.500        20
42.510        33
42.520        27
42.530        13
42.540        20
42.550        20
42.560        33
42.570        20
42.580        20
42.590        13
42.600        20
42.610        20
42.620        27
42.630        40
42.640        27
42.650         7
42.660        47
42.670        27
42.680        33
42.690        47
42.700        47
42.710        20
42.720        20
42.730        13
42.740        33
42.750         7
42.760        33
42.770        33
42.780        33
42.790         0
42.800        20
42.810        20
42.820        13
42.830        20
42.840        20
42.850        33
42.860        40
42.870        40
42.880        33
42.890        13
42.900         7
42.910        13
42.920         7
42.930         7
42.940        40
42.950        13
42.960        47
42.970        40
42.980        20
42.990        13
43.000        20
43.010        27
43.020        27
43.030         7
43.040        40
43.050        13
43.060         7
43.070        27
43.080        47
43.090        33
43.100        13
43.110        47
43.120         7
43.130        40
43.140        27
43.150        27
43.160        27
43.170        40
43.180        20
43.190        20
43.200        27
43.210        40
43.220        47
43.230        13
43.240         7
43.250        47
43.260        27
43.270        33
43.280        67
43.290        27
43.300        33
43.310        40
43.320        27
43.330        33
43.340        33
43.350        33
43.360        27
43.370        33
43.380        20
43.390        13
43.400        33
43.410        33
43.420        33
43.430        27
43.440        27
43.450        60
43.460        33
43.470        20
43.480        40
43.490        20
43.500        40
43.510        13
43.520        27
43.530        13
43.540        47
43.550        33
43.560        33
43.570        20
43.580        47
43.590        40
43.600        40
43.610        47
43.620        33
43.630        33
43.640        40
43.650        20
43.660        40
43.670        20
43.680        40
43.690        33
43.700        20
43.710        40
43.720        20
43.730        40
43.740        27
43.750        33
43.760        47
43.770        47
43.780        13
43.790        40
43.800        20
43.810        33
43.820        60
43.830        20
43.840        13
43.850        20
43.860        33
43.870        53
43.880        53
43.890        53
43.900        33
43.910        27
43.920        60
43.930        53
43.940        40
43.950        20
43.960        40
43.970        33
43.980        40
43.990        40
44.000        40
44.010        47
44.020         7
44.030        33
44.040        20
44.050        33
44.060        20
44.070        40
44.080         7
44.090        40
44.100        27
44.110        40
44.120        27
44.130        33
44.140        20
44.150        60
44.160        13
44.170        53
44.180        20
44.190        27
44.200        47
44.210        27
44.220        33
44.230        13
44.240        47
44.250        40
44.260        33
44.270        40
44.280        27
44.290        20
44.300        47
44.310        40
44.320        60
44.330        33
44.340        73
44.350        33
44.360        33
44.370        33
44.380        27
44.390        47
44.400        33
44.410        67
44.420        60
44.430        47
44.440        40
44.450        67
44.460        33
44.470        53
44.480        20
44.490        67
44.500        53
44.510        47
44.520        33
44.530        80
44.540        33
44.550        60
44.560        60
44.570        53
44.580        47
44.590        73
44.600        80
44.610        80
44.620        73
44.630        60
44.640       100
44.650        47
44.660        60
44.670        60
44.680        60
44.690        93
44.700        80
44.710        67
44.720        73
44.730        80
44.740        47
44.750        93
44.760        67
44.770        93
44.780        60
44.790        93
44.800        87
44.810       127
44.820       113
44.830       107
44.840       107
44.850       100
44.860        87
44.870       107
44.880        87
44.890       180
44.900       107
44.910       113
44.920       133
44.930       107
44.940        73
44.950       113
44.960       127
44.970       160
44.980       133
44.990       160
45.000       113
45.010       133
45.020       133
45.030       113
45.040       140
45.050       113
45.060       187
45.070        67
45.080       127
45.090       100
45.100       140
45.110       147
45.120       147
45.130       133
45.140       167
45.150       173
45.160       207
45.170       180
45.180       107
45.190       193
45.200       147
45.210       140
45.220       153
45.230       180
45.240       120
45.250        93
45.260       173
45.270       227
45.280       140
45.290       153
45.300       167
45.310       220
45.320       187
45.330       153
45.340       153
45.350       240
45.360       180
45.370       227
45.380       293
45.390       240
45.400       160
45.410       207
45.420       287
45.430       200
45.440       287
45.450       233
45.460       240
45.470       273
45.480       233
45.490       260
45.500       340
45.510       267
45.520       333
45.530       347
45.540       273
45.550       260
45.560       287
45.570       360
45.580       387
45.590       473
45.600       353
45.610       380
45.620       473
45.630       493
45.640       486
45.650       420
45.660       566
45.670       407
45.680       480
45.690       546
45.700       613
45.710       593
45.720       600
45.730       440
45.740       560
45.750       653
45.760       686
45.770       846
45.780       880
45.790       866
45.800       940
45.810       926
45.820      1026
45.830       866
45.840      1013
45.850      1153
45.860      1220
45.870      1453
45.880      1266
45.890      1286
45.900      1599
45.910      1726
45.920      1726
45.930      1866
45.940      1899
45.950      1906
45.960      2112
45.970      2179
45.980      2199
45.990      2446
46.000      2406
46.010      2559
46.020      2626
46.030      2979
46.040      2952
46.050      3185
46.060      3605
46.070      3492
46.080      3732
46.090      4178
46.100      4165
46.110      4312
46.120      4405
46.130      4878
46.140      4705
46.150      5325
46.160      5311
46.170      5631
46.180      5571
46.190      5684
46.200      6577
46.210      6284
46.220      6571
46.230      6771
46.240      6817
46.250      6637
46.260      7177
46.270      6991
46.280      7390
46.290      7404
46.300      7137
46.310      7857
46.320      7790
46.330      7937
46.340      8003
46.350      7590
46.360      7544
46.370      7470
46.380      7024
46.390      7830
46.400      7250
46.410      7257
46.420      7430
46.430      7057
46.440      6944
46.450      6437
46.460      6371
46.470      6437
46.480      6158
46.490      6024
46.500      5731
46.510      5464
46.520      5398
46.530      5245
46.540      5311
46.550      4891
46.560      4552
46.570      4572
46.580      4338
46.590      4165
46.600      3905
46.610      3792
46.620      3699
46.630      3838
46.640      3365
46.650      3379
46.660      2879
46.670      2799
46.680      3005
46.690      2559
46.700      2799
46.710      2552
46.720      2339
46.730      2252
46.740      2092
46.750      2199
46.760      1866
46.770      1699
46.780      1626
46.790      1506
46.800      1713
46.810      1533
46.820      1326
46.830      1306
46.840      1353
46.850      1253
46.860      1100
46.870      1086
46.880      1146
46.890      1026
46.900       966
46.910       853
46.920       900
46.930       973
46.940       880
46.950       893
46.960       713
46.970       620
46.980       580
46.990       693
47.000       640
47.010       620
47.020       740
47.030       540
47.040       666
47.050       580
47.060       613
47.070       546
47.080       466
47.090       446
47.100       360
47.110       347
47.120       393
47.130       333
47.140       400
47.150       347
47.160       340
47.170       373
47.180       380
47.190       400
47.200       400
47.210       287
47.220       333
47.230       380
47.240       247
47.250       293
47.260       273
47.270       280
47.280       287
47.290       253
47.300       267
47.310       307
47.320       187
47.330       193
47.340       253
47.350       293
47.360       287
47.370       227
47.380       213
47.390       200
47.400       320
47.410       153
47.420       240
47.430       273
47.440       260
47.450       187
47.460       207
47.470       127
47.480       213
47.490       200
47.500       260
47.510       173
47.520       160
47.530       107
47.540       140
47.550       160
47.560       167
47.570       160
47.580       200
47.590       133
47.600       120
47.610       147
47.620       153
47.630       113
47.640       160
47.650        93
47.660       147
47.670       107
47.680        73
47.690       113
47.700       127
47.710       133
47.720       107
47.730       147
47.740        93
47.750       107
47.760       147
47.770       127
47.780       120
47.790       127
47.800       127
47.810       107
47.820       173
47.830       187
47.840        53
47.850        73
47.860       127
47.870       120
47.880       100
47.890       120
47.900        80
47.910       140
47.920       113
47.930       153
47.940       140
47.950       147
47.960       140
47.970        47
47.980       147
47.990        67
48.000       100
48.010       147
48.020       153
48.030       120
48.040       140
48.050        87
48.060       120
48.070        93
48.080       127
48.090       100
48.100        93
48.110       113
48.120        87
48.130        93
48.140        53
48.150       120
48.160       100
48.170        80
48.180        93
48.190       100
48.200        87
48.210       100
48.220        60
48.230       100
48.240       107
48.250        73
48.260        93
48.270        80
48.280        60
48.290        73
48.300        40
48.310       113
48.320        67
48.330       127
48.340        87
48.350        73
48.360        40
48.370        60
48.380        53
48.390        60
48.400       113
48.410        47
48.420        73
48.430        67
48.440        73
48.450        73
48.460        87
48.470        47
48.480       113
48.490        40
48.500        47
48.510        67
48.520        73
48.530        80
48.540        33
48.550        87
48.560        80
48.570        40
48.580        67
48.590        60
48.600       107
48.610        73
48.620        53
48.630        80
48.640        73
48.650       113
48.660        67
48.670        67
48.680       127
48.690        93
48.700        73
48.710        67
48.720        53
48.730        80
48.740        47
48.750       113
48.760        80
48.770        47
48.780        60
48.790        67
48.800       113
48.810        80
48.820        40
48.830        53
48.840       107
48.850         7
48.860        60
48.870        27
48.880        47
48.890        40
48.900        40
48.910        40
48.920       100
48.930        87
48.940        87
48.950        67
48.960       113
48.970        53
48.980        73
48.990        60
49.000        33
49.010        60
49.020        73
49.030        60
49.040        80
49.050        67
49.060        67
49.070        53
49.080        80
49.090        53
49.100        53
49.110        67
49.120        60
49.130        40
49.140        53
49.150        60
49.160        60
49.170        60
49.180        47
49.190        73
49.200        53
49.210        80
49.220       100
49.230        40
49.240        87
49.250        47
49.260        40
49.270        53
49.280       100
49.290        33
49.300        67
49.310        60
49.320        67
49.330        60
49.340        53
49.350        87
49.360        73
49.370        67
49.380        67
49.390        53
49.400        87
49.410        73
49.420        40
49.430        53
49.440        73
49.450        47
49.460        73
49.470        40
49.480        40
49.490        67
49.500        80
49.510        60
49.520        80
49.530        67
49.540        53
49.550        40
49.560        33
49.570        67
49.580        33
49.590        40
49.600        60
49.610        53
49.620        27
49.630        47
49.640        40
49.650        53
49.660        47
49.670        33
49.680        60
49.690        40
49.700        53
49.710        60
49.720        93
49.730        20
49.740        53
49.750        27
49.760        47
49.770        33
49.780        73
49.790        20
49.800        60
49.810        80
49.820        60
49.830        53
49.840        60
49.850        80
49.860        27
49.870        67
49.880        67
49.890        67
49.900        53
49.910        47
49.920        40
49.930        67
49.940        20
49.950        27
49.960        40
49.970        60
49.980        40
49.990        40
50.000        40
50.010        40
50.020        53
50.030        27
50.040        40
50.050        67
50.060        33
50.070        60
50.080        47
50.090        53
50.100        80
50.110        47
50.120        33
50.130        40
50.140        67
50.150        47
50.160        20
50.170        53
50.180        47
50.190        33
50.200        67
50.210        33
50.220        47
50.230        47
50.240        47
50.250        53
50.260        67
50.270        33
50.280        67
50.290        47
50.300        33
50.310        47
50.320        33
50.330        60
50.340        80
50.350        33
50.360        67
50.370        27
50.380        60
50.390        67
50.400        60
50.410        67
50.420       113
50.430        47
50.440        80
50.450        47
50.460        53
50.470        67
50.480        47
50.490        53
50.500        40
50.510        73
50.520        53
50.530        53
50.540        53
50.550        80
50.560        20
50.570        87
50.580        33
50.590        53
50.600        60
50.610        33
50.620        53
50.630        73
50.640        60
50.650        47
50.660        53
50.670       100
50.680        53
50.690        67
50.700        93
50.710        67
50.720        60
50.730        67
50.740        67
50.750        33
50.760        40
50.770        47
50.780        53
50.790        33
50.800        67
50.810        33
50.820        80
50.830        53
50.840       100
50.850        40
50.860        67
50.870        60
50.880        40
50.890        80
50.900        20
50.910        47
50.920        60
50.930        20
50.940        40
50.950        47
50.960        27
50.970        60
50.980        53
50.990        47
51.000        53
51.010        60
51.020        40
51.030        53
51.040        33
51.050        33
51.060        73
51.070        60
51.080        47
51.090        40
51.100        60
51.110        13
51.120        47
51.130        60
51.140        33
51.150        53
51.160        40
51.170        67
51.180        27
51.190        93
51.200        40
51.210        60
51.220        47
51.230        40
51.240        80
51.250        33
51.260        53
51.270        73
51.280        67
51.290        27
51.300        60
51.310        27
51.320        67
51.330        73
51.340        33
51.350        40
51.360        53
51.370        60
51.380        60
51.390        53
51.400        33
51.410        47
51.420        73
51.430        67
51.440        60
51.450        80
51.460        33
51.470        73
51.480        60
51.490        47
51.500        47
51.510        60
51.520        47
51.530        60
51.540        53
51.550        27
51.560        67
51.570        40
51.580        33
51.590        53
51.600        20
51.610        47
51.620        67
51.630        33
51.640        60
51.650        47
51.660        87
51.670        47
51.680        53
51.690       113
51.700        73
51.710        80
51.720        40
51.730        47
51.740        67
51.750        73
51.760        60
51.770        33
51.780        80
51.790        67
51.800        20
51.810        87
51.820        47
51.830        60
51.840        33
51.850        67
51.860        40
51.870        60
51.880        33
51.890        47
51.900        40
51.910        73
51.920        73
51.930        87
51.940        67
51.950        93
51.960        60
51.970       100
51.980        87
51.990        67
52.000        80
52.010        53
52.020        73
52.030        87
52.040       133
52.050       113
52.060       113
52.070        60
52.080        87
52.090        67
52.100       113
52.110       153
52.120       107
52.130        87
52.140       100
52.150        80
52.160       173
52.170       160
52.180       140
52.190       240
52.200       333
52.210       440
52.220       387
52.230       600
52.240       686
52.250       900
52.260       880
52.270      1333
52.280      1419
52.290      1579
52.300      1786
52.310      1899
52.320      2192
52.330      2412
52.340      2399
52.350      2406
52.360      2479
52.370      2312
52.380      2046
52.390      2046
52.400      1786
52.410      1553
52.420      1306
52.430      1226
52.440       986
52.450       920
52.460      1273
52.470      1293
52.480      1220
52.490      1253
52.500      1213
52.510      1093
52.520       980
52.530       966
52.540       733
52.550       613
52.560       513
52.570       373
52.580       233
52.590       247
52.600       193
52.610       133
52.620       167
52.630       167
52.640       120
52.650       147
52.660       127
52.670       100
52.680        93
52.690       127
52.700        87
52.710       133
52.720       120
52.730       100
52.740        87
52.750       153
52.760       107
52.770        53
52.780        80
52.790        60
52.800        53
52.810        67
52.820        53
52.830        93
52.840        80
52.850        73
52.860        73
52.870        67
52.880        67
52.890        87
52.900        67
52.910        60
52.920        47
52.930        67
52.940        33
52.950        80
52.960        53
52.970        67
52.980        67
52.990        67
53.000        60
53.010        47
53.020        27
53.030        60
53.040        53
53.050        40
53.060        60
53.070        73
53.080        73
53.090        80
53.100        53
53.110        53
53.120        47
53.130        27
53.140        47
53.150        67
53.160        53
53.170        73
53.180        60
53.190        73
53.200        53
53.210        27
53.220        80
53.230        47
53.240        67
53.250        60
53.260        60
53.270        67
53.280       107
53.290        47
53.300        87
53.310        60
53.320        67
53.330        33
53.340        73
53.350        40
53.360        27
53.370        40
53.380        20
53.390        40
53.400        53
53.410        33
53.420        40
53.430        40
53.440        80
53.450        40
53.460        60
53.470        80
53.480        47
53.490        53
53.500        53
53.510        87
53.520        27
53.530        67
53.540        47
53.550        47
53.560        27
53.570        53
53.580        53
53.590        20
53.600        27
53.610        67
53.620        53
53.630        53
53.640        53
53.650        33
53.660        33
53.670        60
53.680        40
53.690        33
53.700        13
53.710        53
53.720        13
53.730        20
53.740        73
53.750        53
53.760        13
53.770        60
53.780        60
53.790        33
53.800       100
53.810        27
53.820        13
53.830        27
53.840        47
53.850        53
53.860        53
53.870        33
53.880        33
53.890        40
53.900        93
53.910        27
53.920        47
53.930        67
53.940        47
53.950        60
53.960        47
53.970        40
53.980        40
53.990        40
54.000        20
54.010        40
54.020        60
54.030        53
54.040        53
54.050        40
54.060        60
54.070        40
54.080        47
54.090        80
54.100        33
54.110        53
54.120        53
54.130        33
54.140        47
54.150        33
54.160        20
54.170        53
54.180        40
54.190        60
54.200        47
54.210        60
54.220        27
54.230        60
54.240        47
54.250        33
54.260        33
54.270        40
54.280        27
54.290        33
54.300        53
54.310        27
54.320        67
54.330        27
54.340        20
54.350        53
54.360        33
54.370        40
54.380         7
54.390        13
54.400        33
54.410        53
54.420        47
54.430        47
54.440        60
54.450        60
54.460        60
54.470        40
54.480        20
54.490        27
54.500        80
54.510        80
54.520        47
54.530        33
54.540        47
54.550        13
54.560        60
54.570        33
54.580        47
54.590        27
54.600        47
54.610        47
54.620        73
54.630        53
54.640         7
54.650        53
54.660        40
54.670        27
54.680        47
54.690        53
54.700        20
54.710        27
54.720        20
54.730        40
54.740        13
54.750        20
54.760        20
54.770        27
54.780        13
54.790        60
54.800        20
54.810        27
54.820        33
54.830        20
54.840        20
54.850        53
54.860        47
54.870        60
54.880        33
54.890        33
54.900        40
54.910        20
54.920        33
54.930        33
54.940        73
54.950        40
54.960        13
54.970        40
54.980        27
54.990        47
55.000        20
55.010        20
55.020        20
55.030        40
55.040        40
55.050        40
55.060        53
55.070        53
55.080        67
55.090        60
55.100        27
55.110        33
55.120        47
55.130        20
55.140        20
55.150        27
55.160        53
55.170        73
55.180        40
55.190        40
55.200        33
55.210        40
55.220         7
55.230        20
55.240        33
55.250        13
55.260        47
55.270        47
55.280        40
55.290        40
55.300        27
55.310        13
55.320        47
55.330        53
55.340        27
55.350        60
55.360        40
55.370        20
55.380        27
55.390        20
55.400         7
55.410        27
55.420        53
55.430        60
55.440        40
55.450        33
55.460         7
55.470        27
55.480        13
55.490        47
55.500        53
55.510        27
55.520        27
55.530        13
55.540        13
55.550        13
55.560        40
55.570        20
55.580        27
55.590        40
55.600        60
55.610        20
55.620        27
55.630        20
55.640        20
55.650        27
55.660        33
55.670        27
55.680        33
55.690        40
55.700        60
55.710        67
55.720        13
55.730        40
55.740        33
55.750        47
55.760        20
55.770        13
55.780        33
55.790        47
55.800        33
55.810        20
55.820        60
55.830        20
55.840        20
55.850        13
55.860         7
55.870        20
55.880        33
55.890        60
55.900        47
55.910        20
55.920        33
55.930        13
55.940        67
55.950        47
55.960        33
55.970        13
55.980        33
55.990        27
56.000        20
56.010        53
56.020        27
56.030        40
56.040        47
56.050        20
56.060        20
56.070        40
56.080        13
56.090        20
56.100        27
56.110        27
56.120         7
56.130        40
56.140         7
56.150        33
56.160        40
56.170        47
56.180        20
56.190        27
56.200        33
56.210        33
56.220        47
56.230         7
56.240        13
56.250        13
56.260        27
56.270        13
56.280        40
56.290        47
56.300        33
56.310        40
56.320        20
56.330        33
56.340        27
56.350        67
56.360        20
56.370        33
56.380        27
56.390        33
56.400        27
56.410        13
56.420        47
56.430        40
56.440        33
56.450        33
56.460        33
56.470        40
56.480        47
56.490        27
56.500        33
56.510        13
56.520        40
56.530        73
56.540        33
56.550        27
56.560        27
56.570        53
56.580        33
56.590         0
56.600        13
56.610        40
56.620        47
56.630        20
56.640        27
56.650        33
56.660        13
56.670        33
56.680         7
56.690        33
56.700        20
56.710        53
56.720        13
56.730        33
56.740        33
56.750        60
56.760        33
56.770        47
56.780         0
56.790        27
56.800        33
56.810        20
56.820         7
56.830        20
56.840        33
56.850        27
56.860        20
56.870        47
56.880        40
56.890        67
56.900        40
56.910        20
56.920         0
56.930        13
56.940        20
56.950        20
56.960        13
56.970        27
56.980        33
56.990        20
57.000        20
57.010        33
57.020        33
57.030        33
57.040        27
57.050         7
57.060        27
57.070        33
57.080        33
57.090        33
57.100        33
57.110        53
57.120        13
57.130        13
57.140        13
57.150        33
57.160        20
57.170        47
57.180        80
57.190         7
57.200        40
57.210        27
57.220        27
57.230        33
57.240        20
57.250        33
57.260        33
57.270        20
57.280        40
57.290        40
57.300        13
57.310        47
57.320        13
57.330        20
57.340        20
57.350        27
57.360        20
57.370        47
57.380        40
57.390         7
57.400        33
57.410        27
57.420        27
57.430        27
57.440        13
57.450        40
57.460         7
57.470        20
57.480        20
57.490        60
57.500        27
57.510        27
57.520        47
57.530        27
57.540        13
57.550        13
57.560        47
57.570        67
57.580        47
57.590        13
57.600        27
57.610        47
57.620        47
57.630        47
57.640        20
57.650        33
57.660        20
57.670        60
57.680        27
57.690        40
57.700        67
57.710        80
57.720        60
57.730        73
57.740        60
57.750        40
57.760        47
57.770        53
57.780        53
57.790        80
57.800        40
57.810        60
57.820        40
57.830        73
57.840        47
57.850        60
57.860        53
57.870        93
57.880       127
57.890        27
57.900        47
57.910        60
57.920        67
57.930        80
57.940        60
57.950        47
57.960        80
57.970        67
57.980        53
57.990        87
58.000        60
58.010        73
58.020        67
58.030        47
58.040        27
58.050        40
58.060        33
58.070        33
58.080        27
58.090        60
58.100        87
58.110        33
58.120        67
58.130        27
58.140        47
58.150        47
58.160        13
58.170        27
58.180        20
58.190        40
58.200        53
58.210        33
58.220         0
58.230        27
58.240        27
58.250        40
58.260        27
58.270        13
58.280        20
58.290        47
58.300        33
58.310        27
58.320        33
58.330        27
58.340        33
58.350        13
58.360         7
58.370        20
58.380        13
58.390        33
58.400        20
58.410         7
58.420        27
58.430        27
58.440        27
58.450        20
58.460         7
58.470        33
58.480        13
58.490        40
58.500        20
58.510        53
58.520        33
58.530        20
58.540        27
58.550        20
58.560        27
58.570        27
58.580        20
58.590        33
58.600        20
58.610        13
58.620        27
58.630        13
58.640        27
58.650        27
58.660        33
58.670         7
58.680        20
58.690        27
58.700        13
58.710        33
58.720         7
58.730        20
58.740        47
58.750        13
58.760        47
58.770        47
58.780        27
58.790        33
58.800         7
58.810         7
58.820        27
58.830        27
58.840        20
58.850        33
58.860        27
58.870        20
58.880        27
58.890        27
58.900         7
58.910        27
58.920        13
58.930        33
58.940        40
58.950         7
58.960        13
58.970        27
58.980        40
58.990        13
59.000        27
59.010         7
59.020        20
59.030         7
59.040        13
59.050        20
59.060        47
59.070        33
59.080        33
59.090        20
59.100        13
59.110        40
59.120        33
59.130        27
59.140        27
59.150        40
59.160        20
59.170        33
59.180        27
59.190        33
59.200        20
59.210        33
59.220        20
59.230        47
59.240        40
59.250        53
59.260        33
59.270        20
59.280         7
59.290        27
59.300        47
59.310        13
59.320        40
59.330        13
59.340        40
59.350        20
59.360        13
59.370        20
59.380        33
59.390        20
59.400        33
59.410         7
59.420        40
59.430         7
59.440        20
59.450        20
59.460        13
59.470         7
59.480        27
59.490        27
59.500        13
59.510        40
59.520        27
59.530        13
59.540        33
59.550        27
59.560        27
59.570        27
59.580        27
59.590        13
59.600        20
59.610         7
59.620        47
59.630        47
59.640        33
59.650        20
59.660        53
59.670        27
59.680         7
59.690        27
59.700        13
59.710        13
59.720        13
59.730         7
59.740        33
59.750        33
59.760         7
59.770        27
59.780        20
59.790        33
59.800        33
59.810        13
59.820         7
59.830        33
59.840         7
59.850        13
59.860        13
59.870        13
59.880        20
59.890        13
59.900        20
59.910        20
59.920        13
59.930        27
59.940        33
59.950        33
59.960        33
59.970        40
59.980        33
59.990        13
60.000        13
