20.000        33
20.010        33
20.020        80
20.030        20
20.040        33
20.050        67
20.060        47
20.070        33
20.080        40
20.090        33
20.100        33
20.110        47
20.120        13
20.130        47
20.140        47
20.150        47
20.160        33
20.170        80
20.180        27
20.190        47
20.200        40
20.210        33
20.220        60
20.230        40
20.240        20
20.250        33
20.260        27
20.270        47
20.280        53
20.290        53
20.300        60
20.310        40
20.320        47
20.330        27
20.340        40
20.350        20
20.360        40
20.370        20
20.380        60
20.390        73
20.400        40
20.410        40
20.420        27
20.430        33
20.440        67
20.450        33
20.460        40
20.470        33
20.480        47
20.490        40
20.500        33
20.510        53
20.520        60
20.530        33
20.540        20
20.550        27
20.560        27
20.570        67
20.580         7
20.590        20
20.600        27
20.610        33
20.620        13
20.630        33
20.640        47
20.650        40
20.660        53
20.670        60
20.680        13
20.690        60
20.700        73
20.710        47
20.720        40
20.730        27
20.740        27
20.750        40
20.760        33
20.770        47
20.780        47
20.790        40
20.800        27
20.810        73
20.820        53
20.830        73
20.840        60
20.850        40
20.860        27
20.870        40
20.880        33
20.890        20
20.900        33
20.910        67
20.920        47
20.930        33
20.940        33
20.950        60
20.960        40
20.970        40
20.980        27
20.990        53
21.000        27
21.010         7
21.020        40
21.030        27
21.040        33
21.050        20
21.060        13
21.070        53
21.080        27
21.090        27
21.100        27
21.110        47
21.120        53
21.130        40
21.140        40
21.150        33
21.160        67
21.170        40
21.180        20
21.190        40
21.200        40
21.210        33
21.220        53
21.230        73
21.240        67
21.250        53
21.260        53
21.270        53
21.280        53
21.290        27
21.300        53
21.310        60
21.320        13
21.330       100
21.340        53
21.350        20
21.360        53
21.370        47
21.380        53
21.390        40
21.400        20
21.410        27
21.420        47
21.430        53
21.440        67
21.450        40
21.460        33
21.470         7
21.480        60
21.490        67
21.500        60
21.510        27
21.520        20
21.530        20
21.540        27
21.550        33
21.560        40
21.570        47
21.580        53
21.590        67
21.600        67
21.610        33
21.620        40
21.630        33
21.640        53
21.650        27
21.660        53
21.670        40
21.680        67
21.690        40
21.700        93
21.710        40
21.720        53
21.730        20
21.740        47
21.750        40
21.760        53
21.770        47
21.780        27
21.790        60
21.800        60
21.810        20
21.820        27
21.830        13
21.840        60
21.850        33
21.860        33
21.870        40
21.880        60
21.890        40
21.900        20
21.910        47
21.920        20
21.930        53
21.940        33
21.950        33
21.960        40
21.970        47
21.980        27
21.990        53
22.000        40
22.010        47
22.020        40
22.030        47
22.040        40
22.050        60
22.060        47
22.070        67
22.080        73
22.090        33
22.100        67
22.110        27
22.120        93
22.130        53
22.140        53
22.150        80
22.160        53
22.170        40
22.180        53
22.190        53
22.200        40
22.210        60
22.220        40
22.230        87
22.240        47
22.250        27
22.260        27
22.270        53
22.280        27
22.290        53
22.300        47
22.310        47
22.320        80
22.330        20
22.340        40
22.350        53
22.360        40
22.370        20
22.380        27
22.390        47
22.400        13
22.410        53
22.420        40
22.430        27
22.440        20
22.450        40
22.460        27
22.470        73
22.480        40
22.490        47
22.500        40
22.510        27
22.520        27
22.530        47
22.540        20
22.550        33
22.560        33
22.570        47
22.580        53
22.590        33
22.600        60
22.610        33
22.620        20
22.630        13
22.640        33
22.650        40
22.660        53
22.670        40
22.680        73
22.690        20
22.700        20
22.710        20
22.720        40
22.730        33
22.740        67
22.750        53
22.760        53
22.770        27
22.780        47
22.790        47
22.800        33
22.810        27
22.820         7
22.830        67
22.840        47
22.850        67
22.860        40
22.870        33
22.880        47
22.890        27
22.900        40
22.910        47
22.920        27
22.930        40
22.940        27
22.950        40
22.960        20
22.970        40
22.980        80
22.990        40
23.000        33
23.010        53
23.020        53
23.030        33
23.040         7
23.050        40
23.060        33
23.070        53
23.080        20
23.090        13
23.100        20
23.110        33
23.120        33
23.130        40
23.140        40
23.150        33
23.160        20
23.170        40
23.180        33
23.190        33
23.200        33
23.210        27
23.220        40
23.230        33
23.240        20
23.250        40
23.260        53
23.270        27
23.280        47
23.290        53
23.300        33
23.310        20
23.320        73
23.330        13
23.340        40
23.350        20
23.360        33
23.370        53
23.380        33
23.390        20
23.400        40
23.410        27
23.420        20
23.430        27
23.440        20
23.450        13
23.460        20
23.470        20
23.480        40
23.490        20
23.500        27
23.510        73
23.520        60
23.530        20
23.540        27
23.550        47
23.560        47
23.570        53
23.580        40
23.590        33
23.600        60
23.610        33
23.620        40
23.630        60
23.640        53
23.650        40
23.660        40
23.670        53
23.680        27
23.690        47
23.700        33
23.710        47
23.720        20
23.730        60
23.740        20
23.750        27
23.760        47
23.770        53
23.780        53
23.790        53
23.800        20
23.810        27
23.820        40
23.830         7
23.840        40
23.850        20
23.860        20
23.870         0
23.880        33
23.890        40
23.900        93
23.910        13
23.920        53
23.930        27
23.940        60
23.950        53
23.960        13
23.970        27
23.980        67
23.990        33
24.000        33
24.010        53
24.020         7
24.030        53
24.040        60
24.050        53
24.060        27
24.070        67
24.080        33
24.090        53
24.100        93
24.110        47
24.120        20
24.130        40
24.140        53
24.150        67
24.160        47
24.170        40
24.180        80
24.190        73
24.200        80
24.210        40
24.220        27
24.230        67
24.240        40
24.250        67
24.260        27
24.270        20
24.280        40
24.290        27
24.300         7
24.310        27
24.320        53
24.330        47
24.340        27
24.350        40
24.360        27
24.370        27
24.380        40
24.390        40
24.400        40
24.410        27
24.420        33
24.430        40
24.440        40
24.450        53
24.460        33
24.470        40
24.480        20
24.490        47
24.500        27
24.510        13
24.520        27
24.530        33
24.540        27
24.550        60
24.560        27
24.570        40
24.580        47
24.590        27
24.600        27
24.610        27
24.620        27
24.630        20
24.640        40
24.650        13
24.660        13
24.670        27
24.680        33
24.690        27
24.700        27
24.710        20
24.720        13
24.730        67
24.740        20
24.750        67
24.760        20
24.770        73
24.780        27
24.790        33
24.800        60
24.810        47
24.820        33
24.830        27
24.840        47
24.850        33
24.860        20
24.870        73
24.880        67
24.890        47
24.900        73
24.910        53
24.920        40
24.930        67
24.940        80
24.950        67
24.960        87
24.970        93
24.980        80
24.990        73
25.000        60
25.010        80
25.020        93
25.030       147
25.040       107
25.050       140
25.060       107
25.070       147
25.080       200
25.090       200
25.100       187
25.110       173
25.120       293
25.130       247
25.140       213
25.150       287
25.160       313
25.170       300
25.180       220
25.190       240
25.200       273
25.210       267
25.220       273
25.230       267
25.240       213
25.250       193
25.260       167
25.270       187
25.280       127
25.290       140
25.300       147
25.310        87
25.320        47
25.330        60
25.340        93
25.350        87
25.360        53
25.370        60
25.380        40
25.390        20
25.400        47
25.410        40
25.420        40
25.430        40
25.440        47
25.450        53
25.460        33
25.470        27
25.480        27
25.490        13
25.500         7
25.510        40
25.520        27
25.530        47
25.540        67
25.550        13
25.560        20
25.570        33
25.580        40
25.590        53
25.600        27
25.610        27
25.620        13
25.630        33
25.640        33
25.650        33
25.660        27
25.670        27
25.680        27
25.690        47
25.700        20
25.710        33
25.720        27
25.730        40
25.740        27
25.750        40
25.760        40
25.770        33
25.780        47
25.790        67
25.800        47
25.810        27
25.820        40
25.830        47
25.840        20
25.850        33
25.860        60
25.870        40
25.880        47
25.890        20
25.900        47
25.910        20
25.920        40
25.930        33
25.940        27
25.950        60
25.960        60
25.970        20
25.980        60
25.990        47
26.000        73
26.010        40
26.020        20
26.030        20
26.040        67
26.050        27
26.060        60
26.070        47
26.080        47
26.090        47
26.100        60
26.110        80
26.120        40
26.130        40
26.140        40
26.150        33
26.160        47
26.170        33
26.180        53
26.190        27
26.200        40
26.210        13
26.220        20
26.230        60
26.240        27
26.250        33
26.260        33
26.270        27
26.280        40
26.290        33
26.300        20
26.310        53
26.320        53
26.330        27
26.340        47
26.350        40
26.360        27
26.370        27
26.380        47
26.390        40
26.400        40
26.410        20
26.420        20
26.430        40
26.440        27
26.450        40
26.460        13
26.470        53
26.480        13
26.490        27
26.500        27
26.510        53
26.520        40
26.530        13
26.540        33
26.550        27
26.560        33
26.570        27
26.580         7
26.590        33
26.600        27
26.610        20
26.620        33
26.630        20
26.640        33
26.650        20
26.660        53
26.670        20
26.680        40
26.690        13
26.700        27
26.710        33
26.720        60
26.730        47
26.740         7
26.750        53
26.760        40
26.770        47
26.780        53
26.790        33
26.800        40
26.810        40
26.820        33
26.830        20
26.840        20
26.850        20
26.860        40
26.870        40
26.880        20
26.890        53
26.900        60
26.910        47
26.920        33
26.930        33
26.940        53
26.950        20
26.960        13
26.970        47
26.980        40
26.990        40
27.000        20
27.010        33
27.020        13
27.030        33
27.040        53
27.050        20
27.060        27
27.070        20
27.080        47
27.090        27
27.100        27
27.110        60
27.120        40
27.130        20
27.140        47
27.150        40
27.160        13
27.170        20
27.180        33
27.190        60
27.200        27
27.210        27
27.220        27
27.230        27
27.240         7
27.250        33
27.260        33
27.270        27
27.280        20
27.290        27
27.300        33
27.310        40
27.320        20
27.330        40
27.340         0
27.350        33
27.360        40
27.370        60
27.380        27
27.390        13
27.400        40
27.410        47
27.420        53
27.430        60
27.440        27
27.450        40
27.460        40
27.470        13
27.480        40
27.490        13
27.500        20
27.510         7
27.520        33
27.530        33
27.540        27
27.550        53
27.560        40
27.570        47
27.580        27
27.590        27
27.600         0
27.610        27
27.620        53
27.630        33
27.640        20
27.650        27
27.660        13
27.670        53
27.680        13
27.690        27
27.700        40
27.710        33
27.720        67
27.730        33
27.740        67
27.750        40
27.760         7
27.770        53
27.780        40
27.790        33
27.800        40
27.810        60
27.820        33
27.830        20
27.840        47
27.850        67
27.860        47
27.870        53
27.880        20
27.890        67
27.900        73
27.910        53
27.920        53
27.930        60
27.940        73
27.950        67
27.960        93
27.970       113
27.980        87
27.990        93
28.000        87
28.010        87
28.020       133
28.030       107
28.040        67
28.050        87
28.060       140
28.070       113
28.080        53
28.090        80
28.100        73
28.110        93
28.120        40
28.130        73
28.140        67
28.150       107
28.160       113
28.170        80
28.180       113
28.190        80
28.200       100
28.210        80
28.220        93
28.230        93
28.240        53
28.250       100
28.260       127
28.270       167
28.280        60
28.290        60
28.300        87
28.310        60
28.320        73
28.330        93
28.340        60
28.350        47
28.360        67
28.370        47
28.380        33
28.390        20
28.400        60
28.410        67
28.420        47
28.430        13
28.440        93
28.450        20
28.460        33
28.470        40
28.480        20
28.490        53
28.500        20
28.510        47
28.520        67
28.530        33
28.540        33
28.550        27
28.560        53
28.570        60
28.580        27
28.590        73
28.600        40
28.610        20
28.620        33
28.630        33
28.640        40
28.650        20
28.660        33
28.670        20
28.680        27
28.690        27
28.700        47
28.710        47
28.720        47
28.730        20
28.740        20
28.750        27
28.760        27
28.770        40
28.780        27
28.790        13
28.800        40
28.810        47
28.820        20
28.830        27
28.840        60
28.850        40
28.860        20
28.870        60
28.880        33
28.890        27
28.900        27
28.910        33
28.920        20
28.930        33
28.940        33
28.950        33
28.960        40
28.970        53
28.980        20
28.990        20
29.000        27
29.010        33
29.020        13
29.030        40
29.040        40
29.050         7
29.060         7
29.070        27
29.080        40
29.090        13
29.100        40
29.110        27
29.120        27
29.130        80
29.140        20
29.150        47
29.160        27
29.170        20
29.180        33
29.190        33
29.200        13
29.210        20
29.220        20
29.230         7
29.240        20
29.250        20
29.260        33
29.270        40
29.280        13
29.290        20
29.300        20
29.310        27
29.320        47
29.330        27
29.340        20
29.350        27
29.360        13
29.370        13
29.380        33
29.390        33
29.400        13
29.410        33
29.420        33
29.430         7
29.440        27
29.450        20
29.460        53
29.470        40
29.480        27
29.490        13
29.500        40
29.510        27
29.520        40
29.530        33
29.540        27
29.550        20
29.560        13
29.570        40
29.580         7
29.590        20
29.600         7
29.610        27
29.620        27
29.630        13
29.640        27
29.650        20
29.660        40
29.670        67
29.680         7
29.690        40
29.700        47
29.710        27
29.720        27
29.730        33
29.740        47
29.750        47
29.760        27
29.770        27
29.780        53
29.790         7
29.800        20
29.810        20
29.820        27
29.830        13
29.840         0
29.850        20
29.860        33
29.870        40
29.880        33
29.890        13
29.900        47
29.910        40
29.920        40
29.930        27
29.940        27
29.950        27
29.960        27
29.970         7
29.980        47
29.990        20
30.000        13
30.010        27
30.020         7
30.030        40
30.040        20
30.050        13
30.060        47
30.070        33
30.080        27
30.090         7
30.100        13
30.110         7
30.120         7
30.130        40
30.140        53
30.150        40
30.160        27
30.170        27
30.180        20
30.190        53
30.200        27
30.210        27
30.220        47
30.230        33
30.240        13
30.250        20
30.260        33
30.270        13
30.280        27
30.290        13
30.300        20
30.310         7
30.320         7
30.330        40
30.340        33
30.350        53
30.360        20
30.370        53
30.380        40
30.390        27
30.400        27
30.410        40
30.420        47
30.430        40
30.440        47
30.450        20
30.460        27
30.470        27
30.480        20
30.490        53
30.500        13
30.510        13
30.520        60
30.530        27
30.540        47
30.550        60
30.560        33
30.570        40
30.580        40
30.590        33
30.600        67
30.610        73
30.620        47
30.630        67
30.640        40
30.650        53
30.660        67
30.670        80
30.680        33
30.690        67
30.700        33
30.710        40
30.720        33
30.730        47
30.740        47
30.750        53
30.760        47
30.770        20
30.780        47
30.790        40
30.800        40
30.810         7
30.820        60
30.830        33
30.840        13
30.850        27
30.860        13
30.870        53
30.880        13
30.890        27
30.900        33
30.910        33
30.920        13
30.930        33
30.940        20
30.950        20
30.960        20
30.970        27
30.980         7
30.990        20
31.000        27
31.010        27
31.020        33
31.030        40
31.040        40
31.050        13
31.060        20
31.070        40
31.080        20
31.090        13
31.100        20
31.110        60
31.120        27
31.130        33
31.140        20
31.150        27
31.160        27
31.170        47
31.180        13
31.190        53
31.200        47
31.210        27
31.220        53
31.230         7
31.240        60
31.250        53
31.260         7
31.270        27
31.280        67
31.290        20
31.300        47
31.310        60
31.320        47
31.330        13
31.340        20
31.350        53
31.360        40
31.370        33
31.380        33
31.390        53
31.400        33
31.410        47
31.420        20
31.430        27
31.440        27
31.450        33
31.460        53
31.470        47
31.480        33
31.490        73
31.500        27
31.510        27
31.520        80
31.530        33
31.540        53
31.550        33
31.560        60
31.570        60
31.580        73
31.590        87
31.600        40
31.610        60
31.620        73
31.630        53
31.640        67
31.650        53
31.660       100
31.670       107
31.680        93
31.690        73
31.700       107
31.710        67
31.720       127
31.730        67
31.740       113
31.750        80
31.760        73
31.770       160
31.780       107
31.790        93
31.800        93
31.810       133
31.820        80
31.830       100
31.840        67
31.850        80
31.860       100
31.870        60
31.880        53
31.890        93
31.900        87
31.910        87
31.920        73
31.930        60
31.940        73
31.950        73
31.960        40
31.970        53
31.980        67
31.990        47
32.000        27
32.010        33
32.020        27
32.030        60
32.040        33
32.050        47
32.060        47
32.070        27
32.080        27
32.090        13
32.100        47
32.110        27
32.120         7
32.130        20
32.140        20
32.150        20
32.160        13
32.170        13
32.180        20
32.190        47
32.200        40
32.210        20
32.220        33
32.230        47
32.240        13
32.250        20
32.260        33
32.270        33
32.280        27
32.290        27
32.300        40
32.310        40
32.320        27
32.330        20
32.340        33
32.350         0
32.360        40
32.370        27
32.380        40
32.390        33
32.400         7
32.410        27
32.420        20
32.430        53
32.440        20
32.450        13
32.460        20
32.470        47
32.480        13
32.490        20
32.500        33
32.510         0
32.520        13
32.530        27
32.540        27
32.550         7
32.560        13
32.570        40
32.580        33
32.590        40
32.600        40
32.610        13
32.620        13
32.630        27
32.640         7
32.650        47
32.660        47
32.670        13
32.680        27
32.690        20
32.700        33
32.710        27
32.720        27
32.730         0
32.740        47
32.750         7
32.760        13
32.770        20
32.780        33
32.790        53
32.800        33
32.810        13
32.820         0
32.830        33
32.840        13
32.850        20
32.860        40
32.870        20
32.880         7
32.890        53
32.900        20
32.910        33
32.920        27
32.930        13
32.940        53
32.950        27
32.960        13
32.970        13
32.980        33
32.990        73
33.000        33
33.010        40
33.020        13
33.030        20
33.040        13
33.050        27
33.060        20
33.070        60
33.080        27
33.090        13
33.100        20
33.110         7
33.120        20
33.130        27
33.140        33
33.150        13
33.160        13
33.170        33
33.180        33
33.190        27
33.200        20
33.210        20
33.220        33
33.230        33
33.240        53
33.250        60
33.260        40
33.270        20
33.280        27
33.290        33
33.300        33
33.310        27
33.320        33
33.330        27
33.340        20
33.350        13
33.360        13
33.370        27
33.380        47
33.390        27
33.400        20
33.410        13
33.420        27
33.430        47
33.440        40
33.450        27
33.460        67
33.470         7
33.480        33
33.490        20
33.500        27
33.510        27
33.520        13
33.530         0
33.540        47
33.550        13
33.560        20
33.570        20
33.580        67
33.590        27
33.600        13
33.610        20
33.620        27
33.630        47
33.640        20
33.650        47
33.660        33
33.670        27
33.680        47
33.690        13
33.700        40
33.710        40
33.720        40
33.730        20
33.740        33
33.750        40
33.760        20
33.770         7
33.780        20
33.790        53
33.800        67
33.810        33
33.820        27
33.830         7
33.840        47
33.850         7
33.860        33
33.870        27
33.880        20
33.890        27
33.900        27
33.910        33
33.920        40
33.930         0
33.940         7
33.950        27
33.960        13
33.970        40
33.980        20
33.990        13
34.000        33
34.010        33
34.020        13
34.030        27
34.040        27
34.050         7
34.060        20
34.070        20
34.080        27
34.090        20
34.100        40
34.110        40
34.120        53
34.130         7
34.140        33
34.150        27
34.160         7
34.170        33
34.180        20
34.190        20
34.200        13
34.210        33
34.220        27
34.230        40
34.240        20
34.250         7
34.260        13
34.270        53
34.280        53
34.290        20
34.300        27
34.310        33
34.320        20
34.330        27
34.340        20
34.350        27
34.360        20
34.370        60
34.380        33
34.390        33
34.400        27
34.410        13
34.420        20
34.430        13
34.440        20
34.450        20
34.460        27
34.470        27
34.480        20
34.490         0
34.500        33
34.510        13
34.520        27
34.530        33
34.540        20
34.550        13
34.560        20
34.570        33
34.580        40
34.590        27
34.600        20
34.610        27
34.620        20
34.630        27
34.640        20
34.650        20
34.660        27
34.670        33
34.680        27
34.690        33
34.700        40
34.710        27
34.720        13
34.730        20
34.740        13
34.750        33
34.760        20
34.770        40
34.780        53
34.790        40
34.800        20
34.810        27
34.820        20
34.830        13
34.840        20
34.850        13
34.860        33
34.870        13
34.880        13
34.890        27
34.900        47
34.910        20
34.920         7
34.930        40
34.940         7
34.950         7
34.960        27
34.970        40
34.980        20
34.990         7
35.000        53
35.010        40
35.020         7
35.030        13
35.040         7
35.050        20
35.060        40
35.070        27
35.080        40
35.090        13
35.100        13
35.110        60
35.120        27
35.130        20
35.140        40
35.150        27
35.160        33
35.170        53
35.180        60
35.190       100
35.200        53
35.210        33
35.220        27
35.230        13
35.240        53
35.250        27
35.260        27
35.270        47
35.280        20
35.290        60
35.300        60
35.310        20
35.320        20
35.330        40
35.340        13
35.350        60
35.360        13
35.370        33
35.380        53
35.390        27
35.400        47
35.410        33
35.420        73
35.430         7
35.440        33
35.450        40
35.460        40
35.470        53
35.480        20
35.490        60
35.500        40
35.510        27
35.520        27
35.530        33
35.540        27
35.550        47
35.560        47
35.570         0
35.580        27
35.590        27
35.600        33
35.610        13
35.620        20
35.630        27
35.640        73
35.650        53
35.660        33
35.670        20
35.680        20
35.690        47
35.700        27
35.710        40
35.720        33
35.730        27
35.740        33
35.750        13
35.760        20
35.770        13
35.780        40
35.790        13
35.800        53
35.810        47
35.820        27
35.830        27
35.840        13
35.850        40
35.860        33
35.870        27
35.880        40
35.890        20
35.900        20
35.910        40
35.920         0
35.930        33
35.940        40
35.950        13
35.960        27
35.970        13
35.980        27
35.990        33
36.000         7
36.010        53
36.020        27
36.030        27
36.040         7
36.050        13
36.060        13
36.070        40
36.080        47
36.090        20
36.100        27
36.110        20
36.120        40
36.130        40
36.140        40
36.150        47
36.160        60
36.170        13
36.180        33
36.190        40
36.200        47
36.210        27
36.220        20
36.230        20
36.240        40
36.250        20
36.260        33
36.270        33
36.280        27
36.290        40
36.300        33
36.310        33
36.320        27
36.330        47
36.340        13
36.350        47
36.360        47
36.370        33
36.380        53
36.390        40
36.400        40
36.410        40
36.420        47
36.430        33
36.440        40
36.450        53
36.460        60
36.470        73
36.480        60
36.490        33
36.500        73
36.510        27
36.520        47
36.530        47
36.540        60
36.550        20
36.560        33
36.570        33
36.580        40
36.590        27
36.600        27
36.610        27
36.620        40
36.630        53
36.640        27
36.650        60
36.660        27
36.670        13
36.680        40
36.690        60
36.700         0
36.710        67
36.720        33
36.730        33
36.740        13
36.750        33
36.760        13
36.770        20
36.780        33
36.790        27
36.800         0
36.810        20
36.820        27
36.830         0
36.840        53
36.850        20
36.860        13
36.870        13
36.880        27
36.890        47
36.900        13
36.910        27
36.920        13
36.930        20
36.940        20
36.950         7
36.960        33
36.970         7
36.980        13
36.990        27
37.000        20
37.010        27
37.020        27
37.030        20
37.040         7
37.050        20
37.060        13
37.070        60
37.080        20
37.090        27
37.100        13
37.110        33
37.120         7
37.130        33
37.140        40
37.150        33
37.160        27
37.170        27
37.180        33
37.190        13
37.200        20
37.210        47
37.220        20
37.230         7
37.240        13
37.250        33
37.260        27
37.270         7
37.280        27
37.290        40
37.300        33
37.310        20
37.320        40
37.330        20
37.340        33
37.350        40
37.360        20
37.370        27
37.380        40
37.390        40
37.400        33
37.410        33
37.420        13
37.430        40
37.440        33
37.450        20
37.460        27
37.470        33
37.480        53
37.490        27
37.500        47
37.510        20
37.520        27
37.530         7
37.540        27
37.550        27
37.560        40
37.570        33
37.580        27
37.590        27
37.600        27
37.610        20
37.620        40
37.630        60
37.640        80
37.650        27
37.660        33
37.670        27
37.680        20
37.690        20
37.700        27
37.710        27
37.720        33
37.730        33
37.740        27
37.750        53
37.760        20
37.770        40
37.780        27
37.790        33
37.800        27
37.810        20
37.820        13
37.830        13
37.840        33
37.850        20
37.860        27
37.870        27
37.880        67
37.890        33
37.900        27
37.910        27
37.920        33
37.930        27
37.940        13
37.950        20
37.960        33
37.970        40
37.980        20
37.990        20
38.000        27
38.010        27
38.020        33
38.030        33
38.040        13
38.050        13
38.060        53
38.070        13
38.080        13
38.090        53
38.100        67
38.110        20
38.120        20
38.130        40
38.140         7
38.150        27
38.160        27
38.170        13
38.180        20
38.190        20
38.200         0
38.210         7
38.220        33
38.230        33
38.240        13
38.250        20
38.260        20
38.270         7
38.280        13
38.290        27
38.300        33
38.310        40
38.320        13
38.330        27
38.340        27
38.350        20
38.360        20
38.370        13
38.380         0
38.390        13
38.400        13
38.410         7
38.420        40
38.430        20
38.440        20
38.450        27
38.460        33
38.470        40
38.480        27
38.490        33
38.500        13
38.510        27
38.520        40
38.530        13
38.540        20
38.550        13
38.560        20
38.570        27
38.580        27
38.590         7
38.600        53
38.610        33
38.620        13
38.630        40
38.640        13
38.650        13
38.660         7
38.670        20
38.680        53
38.690        33
38.700        27
38.710         7
38.720        20
38.730        20
38.740        40
38.750        33
38.760        20
38.770        13
38.780        27
38.790        27
38.800        47
38.810        33
38.820        27
38.830        33
38.840        33
38.850        33
38.860        27
38.870        27
38.880        33
38.890        20
38.900         7
38.910        13
38.920        20
38.930        33
38.940         7
38.950        33
38.960        33
38.970        33
38.980        33
38.990         7
39.000        13
39.010        33
39.020        27
39.030        13
39.040        27
39.050        13
39.060        27
39.070        53
39.080         7
39.090        27
39.100        53
39.110        33
39.120        47
39.130        13
39.140         7
39.150        40
39.160        47
39.170        27
39.180        33
39.190        20
39.200        27
39.210        27
39.220        20
39.230         0
39.240        27
39.250        47
39.260        33
39.270        33
39.280        13
39.290        13
39.300        33
39.310        33
39.320        27
39.330         0
39.340        27
39.350        27
39.360        40
39.370        27
39.380        27
39.390        33
39.400        13
39.410        60
39.420        20
39.430        27
39.440        33
39.450        33
39.460        13
39.470        53
39.480        40
39.490        53
39.500        27
39.510        53
39.520        20
39.530        47
39.540        73
39.550        33
39.560        40
39.570        40
39.580        80
39.590        33
39.600        53
39.610        33
39.620        80
39.630        33
39.640        20
39.650        60
39.660        33
39.670        53
39.680        33
39.690        53
39.700        80
39.710        27
39.720        27
39.730        53
39.740        60
39.750        20
39.760        40
39.770        33
39.780        47
39.790        33
39.800        53
39.810        20
39.820        13
39.830        27
39.840        20
39.850        33
39.860        40
39.870        60
39.880        20
39.890        40
39.900        20
39.910        27
39.920        40
39.930        47
39.940         0
39.950         7
39.960        20
39.970        13
39.980        20
39.990        33
40.000        20
40.010        40
40.020        47
40.030        27
40.040        27
40.050        33
40.060        27
40.070        33
40.080        47
40.090        27
40.100        33
40.110        40
40.120        40
40.130        33
40.140        33
40.150        47
40.160        27
40.170        40
40.180        33
40.190         0
40.200        53
40.210         7
40.220        40
40.230        47
40.240        73
40.250        60
40.260        33
40.270        27
40.280        60
40.290        67
40.300        80
40.310        47
40.320        27
40.330        20
40.340        40
40.350        53
40.360        47
40.370        87
40.380         7
40.390        40
40.400        33
40.410        20
40.420        33
40.430        27
40.440        53
40.450        93
40.460        13
40.470        60
40.480        67
40.490        27
40.500        27
40.510        60
40.520        53
40.530        13
40.540        20
40.550        47
40.560        67
40.570        20
40.580        40
40.590        20
40.600        13
40.610        20
40.620        33
40.630        47
40.640        53
40.650        33
40.660        27
40.670        60
40.680        60
40.690        33
40.700        40
40.710        47
40.720        20
40.730        60
40.740        47
40.750        47
40.760        40
40.770        67
40.780        47
40.790        33
40.800        40
40.810        27
40.820        53
40.830        53
40.840        27
40.850        33
40.860        60
40.870        33
40.880        40
40.890        53
40.900        27
40.910        47
40.920        40
40.930        47
40.940         7
40.950        47
40.960        40
40.970        33
40.980        40
40.990         7
41.000        20
41.010        27
41.020        27
41.030        33
41.040        33
41.050        27
41.060        33
41.070        20
41.080        20
41.090        13
41.100        33
41.110        40
41.120        33
41.130        33
41.140        53
41.150        20
41.160        40
41.170        27
41.180        13
41.190        33
41.200        40
41.210        33
41.220        47
41.230        20
41.240        53
41.250        80
41.260        60
41.270        33
41.280        33
41.290        13
41.300        33
41.310        67
41.320        40
41.330        33
41.340        40
41.350        27
41.360        27
41.370        53
41.380        33
41.390        20
41.400        53
41.410        20
41.420        20
41.430        60
41.440        20
41.450        47
41.460        47
41.470        67
41.480        40
41.490        13
41.500        27
41.510        53
41.520        80
41.530        60
41.540        40
41.550        13
41.560        33
41.570        33
41.580        40
41.590        73
41.600        53
41.610        40
41.620        93
41.630        53
41.640        33
41.650       113
41.660        73
41.670        67
41.680        60
41.690       107
41.700       100
41.710        80
41.720        80
41.730       100
41.740        53
41.750        40
41.760        47
41.770        60
41.780        60
41.790       107
41.800       100
41.810        87
41.820       107
41.830        40
41.840        80
41.850        33
41.860        47
41.870        60
41.880        20
41.890        33
41.900        27
41.910        40
41.920        47
41.930        20
41.940        27
41.950        40
41.960        33
41.970        33
41.980        20
41.990        53
42.000        13
42.010        47
42.020        40
42.030        27
42.040        27
42.050        47
42.060        20
42.070        33
42.080        67
42.090        33
42.100        40
42.110        40
42.120        13
42.130        13
42.140        13
42.150        33
42.160        27
42.170        40
42.180        40
42.190        40
42.200        40
42.210        33
42.220        33
42.230        60
42.240        27
42.250        33
42.260        33
42.270        13
42.280        20
42.290        47
42.300        40
42.310        13
42.320        27
42.330        73
42.340        13
42.350        13
42.360        20
42.370        13
42.380        27
42.390         7
42.400        27
42.410        20
42.420        27
42.430        33
42.440        20
42.450        40
42.460        27
42.470        47
42.480        27
42.490        33
42.500        33
42.510        13
42.520        40
42.530        27
42.540        20
42.550        33
42.560        27
42.570         7
42.580        33
42.590        13
42.600        33
42.610        27
42.620        20
42.630        13
42.640        13
42.650        33
42.660        20
42.670        27
42.680        27
42.690        53
42.700        20
42.710         7
42.720        20
42.730         7
42.740         7
42.750        27
42.760        27
42.770        53
42.780        20
42.790        33
42.800        20
42.810        13
42.820        33
42.830        13
42.840        33
42.850        13
42.860        27
42.870        53
42.880        20
42.890        27
42.900        27
42.910        53
42.920        33
42.930        13
42.940        13
42.950        27
42.960         7
42.970        27
42.980         7
42.990        20
43.000         0
43.010        33
43.020        40
43.030        13
43.040        40
43.050        47
43.060        20
43.070        33
43.080        27
43.090         7
43.100        40
43.110        27
43.120        40
43.130        13
43.140        33
43.150        20
43.160        40
43.170        13
43.180        13
43.190        27
43.200        27
43.210        53
43.220        13
43.230         0
43.240        20
43.250        13
43.260        47
43.270         7
43.280        40
43.290        53
43.300        20
43.310        27
43.320        33
43.330         0
43.340        20
43.350         0
43.360        27
43.370        20
43.380         7
43.390        13
43.400        40
43.410        33
43.420        60
43.430        20
43.440        27
43.450        80
43.460        47
43.470        27
43.480        47
43.490        20
43.500        40
43.510        13
43.520        27
43.530        27
43.540        20
43.550        67
43.560        27
43.570        47
43.580        13
43.590         0
43.600        13
43.610        33
43.620        20
43.630        20
43.640        20
43.650        13
43.660        33
43.670        33
43.680        13
43.690        27
43.700        13
43.710         7
43.720        20
43.730        20
43.740        47
43.750        33
43.760        13
43.770        20
43.780        13
43.790        13
43.800        20
43.810        13
43.820        20
43.830        20
43.840        20
43.850        13
43.860        27
43.870        47
43.880         7
43.890        73
43.900        27
43.910        20
43.920        27
43.930        27
43.940        27
43.950        27
43.960        40
43.970        27
43.980        20
43.990        27
44.000        40
44.010         0
44.020         7
44.030        20
44.040        20
44.050        13
44.060        47
44.070        20
44.080        13
44.090        20
44.100        53
44.110        33
44.120        33
44.130        60
44.140        20
44.150        33
44.160        33
44.170         7
44.180        13
44.190        20
44.200        27
44.210        40
44.220        13
44.230        27
44.240        27
44.250        47
44.260        53
44.270        27
44.280        33
44.290        27
44.300        33
44.310        27
44.320        40
44.330        40
44.340        33
44.350        33
44.360        47
44.370        27
44.380        33
44.390        27
44.400        27
44.410        20
44.420        20
44.430        13
44.440         0
44.450        27
44.460         0
44.470         7
44.480        27
44.490        20
44.500        33
44.510        40
44.520         7
44.530        13
44.540        20
44.550        20
44.560        47
44.570        13
44.580        20
44.590        40
44.600        20
44.610        47
44.620        27
44.630        20
44.640        27
44.650        20
44.660        40
44.670        47
44.680        40
44.690        20
44.700        27
44.710        33
44.720        27
44.730        33
44.740        13
44.750        33
44.760        60
44.770        40
44.780        20
44.790        27
44.800        27
44.810        20
44.820        47
44.830        20
44.840        33
44.850        40
44.860         7
44.870         7
44.880        27
44.890        20
44.900        27
44.910         0
44.920        27
44.930        27
44.940        33
44.950        33
44.960        27
44.970        27
44.980        47
44.990        13
45.000        27
45.010        33
45.020        20
45.030        13
45.040        27
45.050        40
45.060        13
45.070        27
45.080        27
45.090        27
45.100        13
45.110        33
45.120        33
45.130        20
45.140        13
45.150        27
45.160        47
45.170         0
45.180        20
45.190        13
45.200        20
45.210        13
45.220        20
45.230        33
45.240        13
45.250        27
45.260        47
45.270        20
45.280        13
45.290        40
45.300         7
45.310        33
45.320        20
45.330        20
45.340        13
45.350        20
45.360        33
45.370        40
45.380         0
45.390        20
45.400        20
45.410        40
45.420        20
45.430        13
45.440        27
45.450        27
45.460        33
45.470         7
45.480        27
45.490        27
45.500        53
45.510        60
45.520        13
45.530        47
45.540        20
45.550        13
45.560        27
45.570        20
45.580        27
45.590        33
45.600        33
45.610        40
45.620        60
45.630        47
45.640        53
45.650        27
45.660        33
45.670        20
45.680        53
45.690        13
45.700        40
45.710        13
45.720        47
45.730        40
45.740        20
45.750        33
45.760        33
45.770        13
45.780        40
45.790         7
45.800        27
45.810         7
45.820        20
45.830        40
45.840        13
45.850        40
45.860        20
45.870        20
45.880        47
45.890        27
45.900        27
45.910        13
45.920        27
45.930         7
45.940        27
45.950         7
45.960        33
45.970        13
45.980         0
45.990        27
46.000        47
46.010        13
46.020        27
46.030        20
46.040        20
46.050        13
46.060        20
46.070        20
46.080        33
46.090        20
46.100        27
46.110         0
46.120        27
46.130        20
46.140        27
46.150        20
46.160        47
46.170        27
46.180        20
46.190        33
46.200        40
46.210        13
46.220        20
46.230        33
46.240        20
46.250         7
46.260        33
46.270         0
46.280        27
46.290         7
46.300        40
46.310        20
46.320        40
46.330        20
46.340        13
46.350         0
46.360        13
46.370        27
46.380        20
46.390        20
46.400        20
46.410        20
46.420        40
46.430        33
46.440        13
46.450        20
46.460        27
46.470        33
46.480        20
46.490        27
46.500        13
46.510        40
46.520        20
46.530        47
46.540        13
46.550        20
46.560        27
46.570        20
46.580        47
46.590        40
46.600         7
46.610        33
46.620         7
46.630        13
46.640        33
46.650        33
46.660        20
46.670        27
46.680         7
46.690        33
46.700        13
46.710        20
46.720        27
46.730        27
46.740        27
46.750        40
46.760         7
46.770         0
46.780         7
46.790        20
46.800        27
46.810        27
46.820        13
46.830        27
46.840        20
46.850        20
46.860        33
46.870        20
46.880        20
46.890        20
46.900        27
46.910         7
46.920        33
46.930        33
46.940        13
46.950        47
46.960        33
46.970        13
46.980        13
46.990         7
47.000        20
47.010        13
47.020         7
47.030        20
47.040        13
47.050        33
47.060        40
47.070         7
47.080        27
47.090         7
47.100        27
47.110        20
47.120        33
47.130        27
47.140        13
47.150        27
47.160         7
47.170        27
47.180        40
47.190        27
47.200         7
47.210        27
47.220        47
47.230        20
47.240         0
47.250        33
47.260        20
47.270        20
47.280        33
47.290        27
47.300        13
47.310        33
47.320        27
47.330         7
47.340        40
47.350        27
47.360        33
47.370        13
47.380        27
47.390        20
47.400        20
47.410         7
47.420        47
47.430        13
47.440         0
47.450         7
47.460         7
47.470        20
47.480        53
47.490        20
47.500        47
47.510        13
47.520         7
47.530        40
47.540         7
47.550         0
47.560        33
47.570        20
47.580         7
47.590        27
47.600        40
47.610         7
47.620         7
47.630        20
47.640        33
47.650        33
47.660        13
47.670         0
47.680        33
47.690        13
47.700        40
47.710        27
47.720        20
47.730        27
47.740         7
47.750        33
47.760        47
47.770        20
47.780        20
47.790        40
47.800        27
47.810        13
47.820        33
47.830        33
47.840        33
47.850        33
47.860        13
47.870        27
47.880        20
47.890        13
47.900        20
47.910        13
47.920        20
47.930         7
47.940         7
47.950        47
47.960        27
47.970        33
47.980        27
47.990        13
48.000        40
48.010         0
48.020        27
48.030         7
48.040        40
48.050         7
48.060        47
48.070        27
48.080        47
48.090        20
48.100         7
48.110        33
48.120        13
48.130        27
48.140        53
48.150        27
48.160         7
48.170        47
48.180        13
48.190        20
48.200        20
48.210        27
48.220        33
48.230        33
48.240        27
48.250        20
48.260         7
48.270        27
48.280        33
48.290        33
48.300        40
48.310        47
48.320        20
48.330        33
48.340         0
48.350        27
48.360        20
48.370        13
48.380        27
48.390        13
48.400        20
48.410        13
48.420        40
48.430        47
48.440        20
48.450        20
48.460        20
48.470        13
48.480        33
48.490        27
48.500        20
48.510         7
48.520        40
48.530        27
48.540        33
48.550        33
48.560        33
48.570        13
48.580        20
48.590        33
48.600        13
48.610        47
48.620        27
48.630        27
48.640        27
48.650        27
48.660        40
48.670         7
48.680        20
48.690        40
48.700        33
48.710        33
48.720        13
48.730        27
48.740        20
48.750        20
48.760        13
48.770        13
48.780        33
48.790        20
48.800         7
48.810        40
48.820        33
48.830        27
48.840        20
48.850         7
48.860         0
48.870        27
48.880        27
48.890        33
48.900        20
48.910        53
48.920        27
48.930        20
48.940        13
48.950         7
48.960        20
48.970        40
48.980        40
48.990        27
49.000        13
49.010        13
49.020        20
49.030        47
49.040        13
49.050        33
49.060        13
49.070        20
49.080         0
49.090        47
49.100        20
49.110        13
49.120         7
49.130        20
49.140         7
49.150        40
49.160        13
49.170        53
49.180        20
49.190        20
49.200        33
49.210        27
49.220        27
49.230        40
49.240        13
49.250        13
49.260        47
49.270        13
49.280        47
49.290        27
49.300         7
49.310        13
49.320        20
49.330        33
49.340        20
49.350         7
49.360        20
49.370        13
49.380        27
49.390        27
49.400        13
49.410        40
49.420        13
49.430        20
49.440        13
49.450        20
49.460        33
49.470        20
49.480        27
49.490        13
49.500         0
49.510        27
49.520        40
49.530        27
49.540        33
49.550        33
49.560        13
49.570         0
49.580        20
49.590        20
49.600        20
49.610         7
49.620        27
49.630        47
49.640        20
49.650        27
49.660        20
49.670         0
49.680         7
49.690        27
49.700        13
49.710        20
49.720         0
49.730         7
49.740        33
49.750        20
49.760        33
49.770        40
49.780        27
49.790        27
49.800        20
49.810        13
49.820         7
49.830        27
49.840        27
49.850        33
49.860         0
49.870        20
49.880        27
49.890         7
49.900        47
49.910        60
49.920        40
49.930        20
49.940        20
49.950        13
49.960        20
49.970        20
49.980        27
49.990        27
50.000        40
50.010        20
50.020        13
50.030        33
50.040        13
50.050        13
50.060        20
50.070        40
50.080        20
50.090        27
50.100         7
50.110        53
50.120        27
50.130         7
50.140        13
50.150        27
50.160        27
50.170        47
50.180        47
50.190        20
50.200        27
50.210         7
50.220         7
50.230        47
50.240        13
50.250        20
50.260        40
50.270        20
50.280        20
50.290         0
50.300        40
50.310        47
50.320        13
50.330         7
50.340        20
50.350        13
50.360        13
50.370        20
50.380        20
50.390        20
50.400        20
50.410        33
50.420         7
50.430        20
50.440        20
50.450        33
50.460         0
50.470         7
50.480        27
50.490        27
50.500        40
50.510        33
50.520        20
50.530        13
50.540        27
50.550        47
50.560         7
50.570        27
50.580         7
50.590        13
50.600        27
50.610        27
50.620        13
50.630        53
50.640        27
50.650        20
50.660        33
50.670         7
50.680        53
50.690        20
50.700        13
50.710         7
50.720        33
50.730        27
50.740        20
50.750        13
50.760        20
50.770         7
50.780        53
50.790        40
50.800        13
50.810         0
50.820        20
50.830        27
50.840        20
50.850        27
50.860        13
50.870        47
50.880        27
50.890        27
50.900        33
50.910        13
50.920        13
50.930         7
50.940         7
50.950        33
50.960        20
50.970        13
50.980        20
50.990        13
51.000        20
51.010        33
51.020        20
51.030        20
51.040        33
51.050        40
51.060        33
51.070        33
51.080        20
51.090        33
51.100        53
51.110        20
51.120        27
51.130        20
51.140        47
51.150        13
51.160        47
51.170        27
51.180        13
51.190        13
51.200        33
51.210        33
51.220         7
51.230        40
51.240        20
51.250        33
51.260        40
51.270        33
51.280        20
51.290        40
51.300         7
51.310        13
51.320        27
51.330        33
51.340         7
51.350        40
51.360        13
51.370        33
51.380        33
51.390        13
51.400        27
51.410        20
51.420        20
51.430        53
51.440         7
51.450         0
51.460        40
51.470        13
51.480        27
51.490        20
51.500        40
51.510        13
51.520        27
51.530        40
51.540        27
51.550        27
51.560        27
51.570        20
51.580        20
51.590        40
51.600        33
51.610        27
51.620        20
51.630         7
51.640         7
51.650        40
51.660        33
51.670        27
51.680         7
51.690        40
51.700        33
51.710        33
51.720        27
51.730        33
51.740        20
51.750        20
51.760         7
51.770         7
51.780        33
51.790        20
51.800        40
51.810         7
51.820        40
51.830        13
51.840        20
51.850        13
51.860        40
51.870        33
51.880        20
51.890        33
51.900        40
51.910         7
51.920        27
51.930        27
51.940        20
51.950        27
51.960        60
51.970        27
51.980        33
51.990        33
52.000        33
52.010        27
52.020        13
52.030         7
52.040        20
52.050        27
52.060        20
52.070        40
52.080        13
52.090        20
52.100        40
52.110        13
52.120        20
52.130        60
52.140        53
52.150        33
52.160        40
52.170        27
52.180        20
52.190        13
52.200        27
52.210        13
52.220        20
52.230         7
52.240         7
52.250        47
52.260        13
52.270        27
52.280        47
52.290        20
52.300        20
52.310        27
52.320        20
52.330         7
52.340        13
52.350        20
52.360        13
52.370         7
52.380         7
52.390        13
52.400        20
52.410        27
52.420        20
52.430        40
52.440        40
52.450        20
52.460        20
52.470        27
52.480        20
52.490        20
52.500        33
52.510        20
52.520        13
52.530        40
52.540        33
52.550        20
52.560        20
52.570         7
52.580        33
52.590        40
52.600        53
52.610        40
52.620        27
52.630        27
52.640        27
52.650        47
52.660        40
52.670        27
52.680        20
52.690         0
52.700        20
52.710        20
52.720        40
52.730        27
52.740        27
52.750        27
52.760        40
52.770        40
52.780        40
52.790        40
52.800        40
52.810        33
52.820        27
52.830        20
52.840        13
52.850        13
52.860        47
52.870        20
52.880        47
52.890        20
52.900        27
52.910        20
52.920        47
52.930        33
52.940        47
52.950        20
52.960        33
52.970        27
52.980        13
52.990        20
53.000        33
53.010        33
53.020        60
53.030        60
53.040        27
53.050        33
53.060        27
53.070        13
53.080        47
53.090        20
53.100        53
53.110        40
53.120        20
53.130        47
53.140        27
53.150        53
53.160        60
53.170        67
53.180        20
53.190        40
53.200        67
53.210        73
53.220        40
53.230        60
53.240        27
53.250        80
53.260        67
53.270        27
53.280        40
53.290        80
53.300        27
53.310        53
53.320        53
53.330        60
53.340        40
53.350        67
53.360        27
53.370        73
53.380        20
53.390        40
53.400        33
53.410        47
53.420        27
53.430        27
53.440        67
53.450        27
53.460        33
53.470        20
53.480        20
53.490        27
53.500        33
53.510        47
53.520        20
53.530        33
53.540        27
53.550        20
53.560        53
53.570        27
53.580         7
53.590        20
53.600        20
53.610        33
53.620        33
53.630        27
53.640        47
53.650        13
53.660        20
53.670        13
53.680        33
53.690        47
53.700        33
53.710         7
53.720        67
53.730        27
53.740        27
53.750        13
53.760        20
53.770         0
53.780         7
53.790        13
53.800        27
53.810        27
53.820        53
53.830        27
53.840        27
53.850        20
53.860        13
53.870        20
53.880        33
53.890        27
53.900        27
53.910        33
53.920        27
53.930        33
53.940        47
53.950        33
53.960        13
53.970        40
53.980        20
53.990         7
54.000        27
54.010        33
54.020        20
54.030        13
54.040        27
54.050        20
54.060         7
54.070        27
54.080        27
54.090        40
54.100        33
54.110        33
54.120         7
54.130        20
54.140        27
54.150        20
54.160        27
54.170        13
54.180        40
54.190        27
54.200        67
54.210        27
54.220        47
54.230        40
54.240        20
54.250        27
54.260        20
54.270        27
54.280        13
54.290        20
54.300        53
54.310        47
54.320        20
54.330        47
54.340        33
54.350        33
54.360        20
54.370        47
54.380        40
54.390        33
54.400        67
54.410        33
54.420        20
54.430        53
54.440        47
54.450        33
54.460        20
54.470        20
54.480        33
54.490        80
54.500         7
54.510        60
54.520        20
54.530        40
54.540        27
54.550        27
54.560        20
54.570        40
54.580        20
54.590        27
54.600        53
54.610        33
54.620        20
54.630        27
54.640        13
54.650        13
54.660        20
54.670        20
54.680        20
54.690        27
54.700        27
54.710        27
54.720        20
54.730        33
54.740        33
54.750        20
54.760        33
54.770        27
54.780        27
54.790        40
54.800        20
54.810        27
54.820         0
54.830        13
54.840        20
54.850        20
54.860        13
54.870        13
54.880        20
54.890        20
54.900        27
54.910         7
54.920        13
54.930        13
54.940        40
54.950        20
54.960        40
54.970        27
54.980        27
54.990        20
55.000        33
55.010        33
55.020        47
55.030        33
55.040        13
55.050        13
55.060        20
55.070        33
55.080        27
55.090        33
55.100        20
55.110        27
55.120        47
55.130        20
55.140        40
55.150        33
55.160        33
55.170        33
55.180        40
55.190        13
55.200         7
55.210        53
55.220        33
55.230        20
55.240        47
55.250        40
55.260        27
55.270        13
55.280        53
55.290        40
55.300        33
55.310        40
55.320        20
55.330        13
55.340        20
55.350        60
55.360        20
55.370        33
55.380        20
55.390        27
55.400        27
55.410        20
55.420         0
55.430        20
55.440        47
55.450        47
55.460        40
55.470        27
55.480        33
55.490        47
55.500         0
55.510        40
55.520         7
55.530        27
55.540        13
55.550        13
55.560        40
55.570        27
55.580        13
55.590         7
55.600        27
55.610        33
55.620        20
55.630        20
55.640        20
55.650        47
55.660        13
55.670        20
55.680        40
55.690        33
55.700         0
55.710        40
55.720         7
55.730        33
55.740        27
55.750        13
55.760        27
55.770        33
55.780        33
55.790         7
55.800        27
55.810        20
55.820        13
55.830        33
55.840        40
55.850        47
55.860        13
55.870        13
55.880        40
55.890        20
55.900        20
55.910        20
55.920        40
55.930        40
55.940        33
55.950        27
55.960        20
55.970        13
55.980        40
55.990        13
56.000        40
56.010        13
56.020        33
56.030        20
56.040        27
56.050        20
56.060        13
56.070        27
56.080        27
56.090        13
56.100        40
56.110        53
56.120        27
56.130        40
56.140         7
56.150        27
56.160        40
56.170        33
56.180        20
56.190        13
56.200        40
56.210        20
56.220        33
56.230        13
56.240         0
56.250        33
56.260        60
56.270        33
56.280        20
56.290        33
56.300        40
56.310        27
56.320        47
56.330        33
56.340        13
56.350        27
56.360        27
56.370        33
56.380        27
56.390        47
56.400        33
56.410        47
56.420         7
56.430        27
56.440         7
56.450        33
56.460        20
56.470        47
56.480         7
56.490        27
56.500        20
56.510        27
56.520        13
56.530         7
56.540        27
56.550        27
56.560        20
56.570         0
56.580        13
56.590         0
56.600        13
56.610        13
56.620        27
56.630        20
56.640        20
56.650        27
56.660        40
56.670        33
56.680        53
56.690        20
56.700        13
56.710        20
56.720        20
56.730        13
56.740        20
56.750         7
56.760         7
56.770        13
56.780        13
56.790        27
56.800         7
56.810        27
56.820        33
56.830        20
56.840        27
56.850        27
56.860        33
56.870        13
56.880        27
56.890        47
56.900        27
56.910        47
56.920        47
56.930        27
56.940        27
56.950        27
56.960        13
56.970        27
56.980        40
56.990        13
57.000        20
57.010        33
57.020         7
57.030        20
57.040        27
57.050        27
57.060        13
57.070        13
57.080        13
57.090        20
57.100        33
57.110        27
57.120        20
57.130        20
57.140        33
57.150        33
57.160        27
57.170        40
57.180        27
57.190        20
57.200        13
57.210        20
57.220        20
57.230        13
57.240        20
57.250        20
57.260         7
57.270        20
57.280         7
57.290        13
57.300         0
57.310        33
57.320        13
57.330        20
57.340        20
57.350        20
57.360         7
57.370        13
57.380         7
57.390        13
57.400        27
57.410        27
57.420        27
57.430        27
57.440        33
57.450        33
57.460        20
57.470        20
57.480        53
57.490        93
57.500        53
57.510       113
57.520       140
57.530        60
57.540       100
57.550       127
57.560       127
57.570        80
57.580       100
57.590        40
57.600        47
57.610        47
57.620        47
57.630        13
57.640        53
57.650        53
57.660        80
57.670        60
57.680        20
57.690        33
57.700        67
57.710        67
57.720        40
57.730        60
57.740        60
57.750        33
57.760        40
57.770        60
57.780        33
57.790         7
57.800        20
57.810        20
57.820        20
57.830         7
57.840         7
57.850        20
57.860        20
57.870        40
57.880         7
57.890        13
57.900        27
57.910        13
57.920        13
57.930         7
57.940        40
57.950        33
57.960         0
57.970        40
57.980        13
57.990        13
58.000        13
58.010        27
58.020        13
58.030        33
58.040        20
58.050        33
58.060        20
58.070        27
58.080        27
58.090        13
58.100        20
58.110        27
58.120         7
58.130        27
58.140        13
58.150        20
58.160         7
58.170        13
58.180        13
58.190        13
58.200        20
58.210         7
58.220         7
58.230        20
58.240        27
58.250        20
58.260        13
58.270        27
58.280        20
58.290        27
58.300        47
58.310        27
58.320        47
58.330        13
58.340        27
58.350        33
58.360        27
58.370        53
58.380        33
58.390        13
58.400        60
58.410        20
58.420        13
58.430        53
58.440        33
58.450        53
58.460         7
58.470        33
58.480        53
58.490         7
58.500        27
58.510        40
58.520        33
58.530        20
58.540        27
58.550        27
58.560        47
58.570        40
58.580        27
58.590        60
58.600        33
58.610        53
58.620        53
58.630        47
58.640        53
58.650        33
58.660        47
58.670        40
58.680        27
58.690        47
58.700        67
58.710        33
58.720        13
58.730        20
58.740        53
58.750        40
58.760        20
58.770        13
58.780        20
58.790        13
58.800        27
58.810        33
58.820        20
58.830        20
58.840        27
58.850        47
58.860        27
58.870        47
58.880        13
58.890        60
58.900        33
58.910        13
58.920         7
58.930        20
58.940        27
58.950        27
58.960        47
58.970        27
58.980        27
58.990        27
59.000        13
59.010        33
59.020        27
59.030        33
59.040        40
59.050        40
59.060        20
59.070        27
59.080        20
59.090        13
59.100        27
59.110         0
59.120        40
59.130         7
59.140        13
59.150        33
59.160         0
59.170        33
59.180        27
59.190        40
59.200        27
59.210        13
59.220        13
59.230        13
59.240        27
59.250        20
59.260        13
59.270        27
59.280        20
59.290        53
59.300        27
59.310        27
59.320        13
59.330        27
59.340        13
59.350        20
59.360        47
59.370        13
59.380        13
59.390        13
59.400        20
59.410        27
59.420        33
59.430        27
59.440        13
59.450        13
59.460        27
59.470         7
59.480        27
59.490         7
59.500        53
59.510        20
59.520         7
59.530        47
59.540        20
59.550        33
59.560        27
59.570         0
59.580        13
59.590        20
59.600         7
59.610        20
59.620        27
59.630        13
59.640        20
59.650        33
59.660        40
59.670        13
59.680         7
59.690         7
59.700        67
59.710         7
59.720        40
59.730         7
59.740         7
59.750        20
59.760        27
59.770        33
59.780         7
59.790         7
59.800        27
59.810        20
59.820        20
59.830        27
59.840        20
59.850        13
59.860        20
59.870         7
59.880        20
59.890        20
59.900        27
59.910        27
59.920        33
59.930        20
59.940        40
59.950        13
59.960        33
59.970        13
59.980        13
59.990        40
60.000        33
