20.000        13
20.010        13
20.020        20
20.030        53
20.040        40
20.050        93
20.060        27
20.070        27
20.080        47
20.090        53
20.100        40
20.110        20
20.120        27
20.130        67
20.140        53
20.150        33
20.160        20
20.170        27
20.180        27
20.190        53
20.200        53
20.210        53
20.220        27
20.230        80
20.240        27
20.250        27
20.260        47
20.270        60
20.280        40
20.290        47
20.300        60
20.310        87
20.320        27
20.330        33
20.340        27
20.350        67
20.360        27
20.370        47
20.380        67
20.390        47
20.400        40
20.410        47
20.420        40
20.430        33
20.440        40
20.450        47
20.460        53
20.470        33
20.480        60
20.490        53
20.500        47
20.510        33
20.520         7
20.530        13
20.540        53
20.550        60
20.560        73
20.570        27
20.580        40
20.590        33
20.600        47
20.610        53
20.620        67
20.630        47
20.640        40
20.650        40
20.660        27
20.670        27
20.680        27
20.690        60
20.700        40
20.710        93
20.720        53
20.730        40
20.740        27
20.750        73
20.760        27
20.770        40
20.780        40
20.790        47
20.800        53
20.810        67
20.820        27
20.830         7
20.840        40
20.850        87
20.860        53
20.870        20
20.880        33
20.890        67
20.900        60
20.910        20
20.920        87
20.930        47
20.940        27
20.950        40
20.960       100
20.970        60
20.980        40
20.990         7
21.000        33
21.010        80
21.020        27
21.030        33
21.040        53
21.050        53
21.060        60
21.070        40
21.080        27
21.090        27
21.100        27
21.110        60
21.120        47
21.130        40
21.140        33
21.150        40
21.160        80
21.170        53
21.180        20
21.190        27
21.200        40
21.210        27
21.220        40
21.230        13
21.240        53
21.250        53
21.260        60
21.270        27
21.280        67
21.290        53
21.300        60
21.310        27
21.320        13
21.330        47
21.340        47
21.350         7
21.360        33
21.370        47
21.380        27
21.390        40
21.400         7
21.410        40
21.420        67
21.430        27
21.440        27
21.450        20
21.460        27
21.470        40
21.480        60
21.490        20
21.500        40
21.510        40
21.520        53
21.530        40
21.540        13
21.550        47
21.560        27
21.570        27
21.580        20
21.590        40
21.600        13
21.610         7
21.620        60
21.630        47
21.640        60
21.650        53
21.660        33
21.670        40
21.680        33
21.690        47
21.700        53
21.710        47
21.720        33
21.730        40
21.740        33
21.750        47
21.760        20
21.770        27
21.780        40
21.790        60
21.800        40
21.810        20
21.820        33
21.830        33
21.840        67
21.850        33
21.860        33
21.870        53
21.880        40
21.890        40
21.900        27
21.910        40
21.920        33
21.930        47
21.940        47
21.950        33
21.960        40
21.970        27
21.980        33
21.990        40
22.000        53
22.010        60
22.020        47
22.030        40
22.040        53
22.050        53
22.060        40
22.070        20
22.080        13
22.090        53
22.100        47
22.110        20
22.120        67
22.130        33
22.140        47
22.150        20
22.160        53
22.170        33
22.180        27
22.190        13
22.200        60
22.210        20
22.220        40
22.230        27
22.240        60
22.250        53
22.260        47
22.270        40
22.280        73
22.290        40
22.300        20
22.310        67
22.320        67
22.330        67
22.340        47
22.350        60
22.360        73
22.370        47
22.380        80
22.390        40
22.400        60
22.410        73
22.420        40
22.430        67
22.440        67
22.450        60
22.460        67
22.470        60
22.480        60
22.490        53
22.500        93
22.510        87
22.520        67
22.530        53
22.540        53
22.550        60
22.560        73
22.570        60
22.580        80
22.590        67
22.600        40
22.610        87
22.620        60
22.630        73
22.640        47
22.650        47
22.660        67
22.670        67
22.680        40
22.690        80
22.700        87
22.710        60
22.720        60
22.730        60
22.740        33
22.750        33
22.760        40
22.770       100
22.780        60
22.790        60
22.800        60
22.810        33
22.820        40
22.830        40
22.840        47
22.850        47
22.860        47
22.870        73
22.880        47
22.890        67
22.900        47
22.910        47
22.920        40
22.930        40
22.940        60
22.950        73
22.960        53
22.970        40
22.980        27
22.990        33
23.000        33
23.010        53
23.020        47
23.030        53
23.040        33
23.050        27
23.060        47
23.070         0
23.080        47
23.090        33
23.100        20
23.110        40
23.120        60
23.130        27
23.140        33
23.150        47
23.160        13
23.170        33
23.180        53
23.190        33
23.200        33
23.210        53
23.220        47
23.230        13
23.240        40
23.250        20
23.260        60
23.270        40
23.280        33
23.290        40
23.300        33
23.310         7
23.320        53
23.330        27
23.340        33
23.350        40
23.360        47
23.370        40
23.380        40
23.390        13
23.400        53
23.410        27
23.420        47
23.430        60
23.440        40
23.450        20
23.460        40
23.470        20
23.480        40
23.490        27
23.500        47
23.510        27
23.520        20
23.530        27
23.540        33
23.550        13
23.560        40
23.570        33
23.580        47
23.590        13
23.600        40
23.610        20
23.620        27
23.630        53
23.640        60
23.650        27
23.660        53
23.670        60
23.680        27
23.690         7
23.700         0
23.710        27
23.720        27
23.730        53
23.740        60
23.750         0
23.760         7
23.770        40
23.780        27
23.790        40
23.800        27
23.810        47
23.820        13
23.830        27
23.840        13
23.850        33
23.860        33
23.870        40
23.880        13
23.890         7
23.900        33
23.910        27
23.920        13
23.930        27
23.940        27
23.950        33
23.960        47
23.970        40
23.980         7
23.990        40
24.000        20
24.010        13
24.020        33
24.030        20
24.040        27
24.050        33
24.060        40
24.070         7
24.080        33
24.090        47
24.100        33
24.110        13
24.120        27
24.130        20
24.140        20
24.150        27
24.160        20
24.170        13
24.180        33
24.190        27
24.200         0
24.210        20
24.220        47
24.230        33
24.240        20
24.250        40
24.260        13
24.270         7
24.280        20
24.290        47
24.300        40
24.310        60
24.320        40
24.330        53
24.340        53
24.350        13
24.360        27
24.370        47
24.380         0
24.390         7
24.400        33
24.410        27
24.420        40
24.430        53
24.440        40
24.450        20
24.460        27
24.470        20
24.480        27
24.490        20
24.500        13
24.510        47
24.520        27
24.530        27
24.540        40
24.550        33
24.560        27
24.570        33
24.580         7
24.590        13
24.600        27
24.610         7
24.620        27
24.630        13
24.640        13
24.650        33
24.660        20
24.670         7
24.680        20
24.690        33
24.700        20
24.710        20
24.720         7
24.730        40
24.740        40
24.750        20
24.760        27
24.770        87
24.780        20
24.790        13
24.800        27
24.810        67
24.820        27
24.830        47
24.840        40
24.850        27
24.860        67
24.870        40
24.880        40
24.890        53
24.900        33
24.910        40
24.920        27
24.930        33
24.940        13
24.950        27
24.960        20
24.970         7
24.980        27
24.990        60
25.000        20
25.010        33
25.020        20
25.030        20
25.040        40
25.050        27
25.060        47
25.070        33
25.080        60
25.090        20
25.100        20
25.110        33
25.120        33
25.130        33
25.140        40
25.150        33
25.160        13
25.170        20
25.180        33
25.190        33
25.200        40
25.210        13
25.220        20
25.230        20
25.240        33
25.250        47
25.260        27
25.270        40
25.280        40
25.290        33
25.300        13
25.310        13
25.320        33
25.330        40
25.340        27
25.350        40
25.360        33
25.370        40
25.380        20
25.390        40
25.400        40
25.410        20
25.420        20
25.430        20
25.440        33
25.450        40
25.460        40
25.470        27
25.480        40
25.490        80
25.500        47
25.510        27
25.520        53
25.530        33
25.540        40
25.550        53
25.560        40
25.570        67
25.580        53
25.590        73
25.600       113
25.610        53
25.620        60
25.630        60
25.640        47
25.650        60
25.660        53
25.670        60
25.680        60
25.690        20
25.700        20
25.710        20
25.720        53
25.730        60
25.740        60
25.750        27
25.760        47
25.770        40
25.780        33
25.790        13
25.800        40
25.810        13
25.820        47
25.830        53
25.840        13
25.850        47
25.860        20
25.870        33
25.880        40
25.890        47
25.900        33
25.910        27
25.920        33
25.930        33
25.940        27
25.950         7
25.960        47
25.970        20
25.980         0
25.990        27
26.000        33
26.010         7
26.020        27
26.030        27
26.040        27
26.050        27
26.060        20
26.070        13
26.080        27
26.090         7
26.100        33
26.110        40
26.120        13
26.130        20
26.140        47
26.150        27
26.160         7
26.170        53
26.180        20
26.190         7
26.200        40
26.210        20
26.220        53
26.230        13
26.240        33
26.250        47
26.260        27
26.270        20
26.280         7
26.290        60
26.300        20
26.310        27
26.320        33
26.330        40
26.340        27
26.350        33
26.360        33
26.370        27
26.380        13
26.390        47
26.400        33
26.410        20
26.420        13
26.430        20
26.440        27
26.450        13
26.460        33
26.470        40
26.480        27
26.490         7
26.500         7
26.510        27
26.520        53
26.530        53
26.540        20
26.550        13
26.560        27
26.570        40
26.580        33
26.590        40
26.600        33
26.610        27
26.620        80
26.630        53
26.640        27
26.650        20
26.660        27
26.670        13
26.680        20
26.690        27
26.700        33
26.710        27
26.720         0
26.730        33
26.740        27
26.750        60
26.760        47
26.770        40
26.780        27
26.790        20
26.800         7
26.810        33
26.820        33
26.830        13
26.840        33
26.850        27
26.860        20
26.870        20
26.880        13
26.890        27
26.900        47
26.910        60
26.920        33
26.930        47
26.940        40
26.950        33
26.960        60
26.970        47
26.980        40
26.990        27
27.000        40
27.010        13
27.020        20
27.030        27
27.040        20
27.050        27
27.060        27
27.070        20
27.080        20
27.090        27
27.100        40
27.110        13
27.120        33
27.130        60
27.140        27
27.150        13
27.160        47
27.170         7
27.180        40
27.190        40
27.200        27
27.210        27
27.220        33
27.230        40
27.240        27
27.250        20
27.260         7
27.270         7
27.280        33
27.290        20
27.300        40
27.310        40
27.320        40
27.330        20
27.340        13
27.350        27
27.360        33
27.370        13
27.380        20
27.390        20
27.400        27
27.410        20
27.420         7
27.430        40
27.440        27
27.450         7
27.460        47
27.470        20
27.480        40
27.490        40
27.500        40
27.510        40
27.520        40
27.530        40
27.540        33
27.550        33
27.560        33
27.570        27
27.580        40
27.590        27
27.600        33
27.610        33
27.620        20
27.630        27
27.640        27
27.650        27
27.660        73
27.670        20
27.680        47
27.690        33
27.700        20
27.710         7
27.720         7
27.730        27
27.740        13
27.750        40
27.760        33
27.770        40
27.780        20
27.790         0
27.800        53
27.810        13
27.820        20
27.830         0
27.840        53
27.850        20
27.860        33
27.870        13
27.880        20
27.890         0
27.900        27
27.910        20
27.920        33
27.930         7
27.940        20
27.950        40
27.960        27
27.970        13
27.980        20
27.990        20
28.000         7
28.010        40
28.020        20
28.030         7
28.040        20
28.050        13
28.060        33
28.070        27
28.080        13
28.090        53
28.100        47
28.110         7
28.120        13
28.130        20
28.140        20
28.150        40
28.160        20
28.170        40
28.180        27
28.190        13
28.200         7
28.210        13
28.220        20
28.230        20
28.240        47
28.250        27
28.260        27
28.270        20
28.280        20
28.290         7
28.300        40
28.310        33
28.320        33
28.330        33
28.340        13
28.350         7
28.360        20
28.370        27
28.380        20
28.390        47
28.400        13
28.410        27
28.420         7
28.430        20
28.440        20
28.450        40
28.460        20
28.470        53
28.480        27
28.490        33
28.500        40
28.510        20
28.520        27
28.530        13
28.540        20
28.550        33
28.560        33
28.570        47
28.580        33
28.590        33
28.600        20
28.610        13
28.620         7
28.630        27
28.640        13
28.650        13
28.660        20
28.670        33
28.680        33
28.690        20
28.700        33
28.710        20
28.720        20
28.730        33
28.740        40
28.750        27
28.760        27
28.770        20
28.780        40
28.790        40
28.800        40
28.810        60
28.820        33
28.830        47
28.840        27
28.850        40
28.860        27
28.870        53
28.880        33
28.890        13
28.900        47
28.910        20
28.920        20
28.930        20
28.940        40
28.950        20
28.960        33
28.970        33
28.980        33
28.990        20
29.000        60
29.010        40
29.020        20
29.030        60
29.040        40
29.050        53
29.060        33
29.070        27
29.080        27
29.090        47
29.100        27
29.110        27
29.120        27
29.130        40
29.140        40
29.150        27
29.160        27
29.170        20
29.180         7
29.190        20
29.200        27
29.210        40
29.220        53
29.230        20
29.240        53
29.250        47
29.260        27
29.270        20
29.280        27
29.290        27
29.300        40
29.310        33
29.320        27
29.330        27
29.340         7
29.350        27
29.360        27
29.370        27
29.380        60
29.390         7
29.400        20
29.410        33
29.420        20
29.430        20
29.440        47
29.450        13
29.460        27
29.470        20
29.480        13
29.490         7
29.500        20
29.510        20
29.520        27
29.530        47
29.540        27
29.550        20
29.560        27
29.570        20
29.580        27
29.590        33
29.600        40
29.610        20
29.620         0
29.630        33
29.640         7
29.650        20
29.660         0
29.670        40
29.680         7
29.690         0
29.700        27
29.710        20
29.720        13
29.730        13
29.740        27
29.750        20
29.760        33
29.770        13
29.780        20
29.790        33
29.800        27
29.810        20
29.820        20
29.830        20
29.840        20
29.850        33
29.860        33
29.870        13
29.880        13
29.890        20
29.900        20
29.910        27
29.920         7
29.930         7
29.940        27
29.950        20
29.960        20
29.970        27
29.980        13
29.990        27
30.000        27
30.010        27
30.020        20
30.030        40
30.040         0
30.050        13
30.060        33
30.070        27
30.080         7
30.090        20
30.100        13
30.110        40
30.120        27
30.130        20
30.140        27
30.150        20
30.160        20
30.170         7
30.180        27
30.190        47
30.200        13
30.210        20
30.220         7
30.230        20
30.240        13
30.250        33
30.260        13
30.270        13
30.280        27
30.290        20
30.300        40
30.310         7
30.320        27
30.330        20
30.340        20
30.350        40
30.360        20
30.370        33
30.380        27
30.390        20
30.400         7
30.410        47
30.420        40
30.430        27
30.440         7
30.450        33
30.460         7
30.470        40
30.480        13
30.490        33
30.500         7
30.510        40
30.520        13
30.530        13
30.540        33
30.550         0
30.560        33
30.570        33
30.580        33
30.590        20
30.600         7
30.610        20
30.620        27
30.630        27
30.640        40
30.650        33
30.660         7
30.670         7
30.680        27
30.690        27
30.700        33
30.710        13
30.720        33
30.730        33
30.740        20
30.750        27
30.760        20
30.770        27
30.780        20
30.790        27
30.800        40
30.810        13
30.820        33
30.830        27
30.840         7
30.850        13
30.860        40
30.870        20
30.880        40
30.890        13
30.900        33
30.910        47
30.920         7
30.930        53
30.940        13
30.950        20
30.960        47
30.970        33
30.980        40
30.990        33
31.000        13
31.010        27
31.020        40
31.030        27
31.040        27
31.050        40
31.060         7
31.070        13
31.080        33
31.090        40
31.100        40
31.110        40
31.120        33
31.130        27
31.140        13
31.150        53
31.160        20
31.170        33
31.180        33
31.190        67
31.200         7
31.210        73
31.220        33
31.230        20
31.240        67
31.250        40
31.260        47
31.270        47
31.280        40
31.290        33
31.300         0
31.310        20
31.320        20
31.330        47
31.340        60
31.350        47
31.360        40
31.370        40
31.380        20
31.390        60
31.400        27
31.410        53
31.420        27
31.430        47
31.440        53
31.450        87
31.460        67
31.470        27
31.480        40
31.490        53
31.500        60
31.510        47
31.520        33
31.530        73
31.540        60
31.550        93
31.560        80
31.570        67
31.580        47
31.590       113
31.600        67
31.610        80
31.620        53
31.630        80
31.640       100
31.650        87
31.660        60
31.670        60
31.680       120
31.690       113
31.700       113
31.710       120
31.720       107
31.730        73
31.740        73
31.750       173
31.760        93
31.770        80
31.780        93
31.790       107
31.800       107
31.810       147
31.820       140
31.830       147
31.840       167
31.850       133
31.860       167
31.870       167
31.880       153
31.890       220
31.900       200
31.910       173
31.920       200
31.930       260
31.940       280
31.950       200
31.960       327
31.970       280
31.980       253
31.990       367
32.000       313
32.010       367
32.020       380
32.030       320
32.040       413
32.050       407
32.060       393
32.070       413
32.080       407
32.090       520
32.100       513
32.110       353
32.120       400
32.130       453
32.140       446
32.150       453
32.160       453
32.170       526
32.180       400
32.190       506
32.200       513
32.210       486
32.220       493
32.230       420
32.240       433
32.250       433
32.260       367
32.270       520
32.280       573
32.290       387
32.300       500
32.310       500
32.320       373
32.330       407
32.340       367
32.350       407
32.360       433
32.370       367
32.380       420
32.390       380
32.400       340
32.410       273
32.420       373
32.430       300
32.440       233
32.450       373
32.460       273
32.470       260
32.480       247
32.490       293
32.500       220
32.510       267
32.520       227
32.530       247
32.540       147
32.550       227
32.560       147
32.570       147
32.580       207
32.590       147
32.600       187
32.610       173
32.620       153
32.630       147
32.640       193
32.650       140
32.660        87
32.670       127
32.680       147
32.690       100
32.700       107
32.710       100
32.720       100
32.730       120
32.740       107
32.750       107
32.760        80
32.770        67
32.780        67
32.790       107
32.800        87
32.810        47
32.820       100
32.830       113
32.840        67
32.850        80
32.860        40
32.870        67
32.880        73
32.890        40
32.900        40
32.910        33
32.920        53
32.930        67
32.940        87
32.950        40
32.960       120
32.970        53
32.980        40
32.990        33
33.000        80
33.010        47
33.020        60
33.030        47
33.040        60
33.050        73
33.060        40
33.070        27
33.080        47
33.090        40
33.100        20
33.110        27
33.120        33
33.130        53
33.140        27
33.150        40
33.160        47
33.170        13
33.180        13
33.190        67
33.200        13
33.210        53
33.220        27
33.230        40
33.240        33
33.250        47
33.260        47
33.270        27
33.280        27
33.290        40
33.300        47
33.310        13
33.320        33
33.330        33
33.340        53
33.350        27
33.360        40
33.370        47
33.380        33
33.390        27
33.400         7
33.410        33
33.420        47
33.430        27
33.440        47
33.450        20
33.460        40
33.470        40
33.480        47
33.490        27
33.500        27
33.510        47
33.520        13
33.530        47
33.540        47
33.550        33
33.560        27
33.570        33
33.580        20
33.590        27
33.600        13
33.610        20
33.620        33
33.630        40
33.640        20
33.650        27
33.660        20
33.670        27
33.680        13
33.690        33
33.700        40
33.710        33
33.720        33
33.730        27
33.740        20
33.750        27
33.760        20
33.770        33
33.780        20
33.790        13
33.800        13
33.810        47
33.820        33
33.830        20
33.840        27
33.850        27
33.860        27
33.870        33
33.880        20
33.890        13
33.900        20
33.910        20
33.920        33
33.930        20
33.940        27
33.950        27
33.960        33
33.970        40
33.980        73
33.990        27
34.000        40
34.010        20
34.020         7
34.030        33
34.040        47
34.050        20
34.060        13
34.070        33
34.080        40
34.090        20
34.100        13
34.110        27
34.120        27
34.130        20
34.140         0
34.150        40
34.160        20
34.170        13
34.180         0
34.190        13
34.200        27
34.210        40
34.220        27
34.230        20
34.240         0
34.250        13
34.260        27
34.270        40
34.280        27
34.290        13
34.300        13
34.310        47
34.320        13
34.330        27
34.340        27
34.350        40
34.360        20
34.370        13
34.380        27
34.390        33
34.400        27
34.410        33
34.420         7
34.430        13
34.440        40
34.450        33
34.460        20
34.470        13
34.480        20
34.490        27
34.500        40
34.510        27
34.520        20
34.530        13
34.540        27
34.550        53
34.560         7
34.570        13
34.580        20
34.590        20
34.600        13
34.610         7
34.620        40
34.630        20
34.640        20
34.650        27
34.660        20
34.670         0
34.680        20
34.690        53
34.700        20
34.710        13
34.720        47
34.730         7
34.740        13
34.750        47
34.760        33
34.770        20
34.780        33
34.790        20
34.800        20
34.810        20
34.820        40
34.830        27
34.840        33
34.850        40
34.860        33
34.870        33
34.880        60
34.890         7
34.900        33
34.910        33
34.920        20
34.930         7
34.940        20
34.950        40
34.960        33
34.970        33
34.980        27
34.990        20
35.000        27
35.010        13
35.020        47
35.030        13
35.040        33
35.050        27
35.060         7
35.070         7
35.080        67
35.090        13
35.100        33
35.110        27
35.120        27
35.130        13
35.140        33
35.150        27
35.160         7
35.170        20
35.180        47
35.190        13
35.200         7
35.210         7
35.220        40
35.230        13
35.240        40
35.250         7
35.260         7
35.270        20
35.280        20
35.290        13
35.300        13
35.310        27
35.320        33
35.330        13
35.340        20
35.350        13
35.360         7
35.370        27
35.380        33
35.390        27
35.400        13
35.410        33
35.420         7
35.430        33
35.440         7
35.450         7
35.460        27
35.470        13
35.480        33
35.490        33
35.500        27
35.510        13
35.520         7
35.530        20
35.540        60
35.550        33
35.560        27
35.570        27
35.580        47
35.590        27
35.600        40
35.610        33
35.620        47
35.630        27
35.640        33
35.650        13
35.660        33
35.670        47
35.680        33
35.690        20
35.700        20
35.710        20
35.720        27
35.730        13
35.740         7
35.750         7
35.760        47
35.770        13
35.780        20
35.790        13
35.800        13
35.810        33
35.820        13
35.830        20
35.840        47
35.850        13
35.860        33
35.870        20
35.880         0
35.890        27
35.900        20
35.910        33
35.920        20
35.930        27
35.940        20
35.950        20
35.960         7
35.970        33
35.980        20
35.990        47
36.000        13
36.010        53
36.020        20
36.030        20
36.040        13
36.050        13
36.060        27
36.070        33
36.080        13
36.090         7
36.100         7
36.110        13
36.120        27
36.130         0
36.140         7
36.150        20
36.160         7
36.170        13
36.180        20
36.190        13
36.200        27
36.210        33
36.220        27
36.230        20
36.240        40
36.250        53
36.260        20
36.270        20
36.280        13
36.290        27
36.300        33
36.310         7
36.320        27
36.330         0
36.340        13
36.350        13
36.360        13
36.370         7
36.380        27
36.390         0
36.400        27
36.410        33
36.420        27
36.430         0
36.440        27
36.450        27
36.460        20
36.470        27
36.480        20
36.490        33
36.500        53
36.510        20
36.520         7
36.530        40
36.540        27
36.550        20
36.560        13
36.570        27
36.580        27
36.590        27
36.600         7
36.610         0
36.620         7
36.630        13
36.640        13
36.650        33
36.660        13
36.670         7
36.680        27
36.690        27
36.700        20
36.710         7
36.720        13
36.730        27
36.740        27
36.750         7
36.760        27
36.770        13
36.780        27
36.790        13
36.800         7
36.810        33
36.820        20
36.830        20
36.840        27
36.850        13
36.860        13
36.870        47
36.880         7
36.890        20
36.900        20
36.910        33
36.920         7
36.930        33
36.940        13
36.950         7
36.960        27
36.970        27
36.980         7
36.990        20
37.000        27
37.010        27
37.020        13
37.030         0
37.040         7
37.050         7
37.060         7
37.070        20
37.080        20
37.090         7
37.100        13
37.110        20
37.120        27
37.130        13
37.140        20
37.150        20
37.160        27
37.170         7
37.180         7
37.190        27
37.200        27
37.210        33
37.220        27
37.230        13
37.240         7
37.250        27
37.260        13
37.270        27
37.280        13
37.290        27
37.300        13
37.310        27
37.320        13
37.330        13
37.340        13
37.350        13
37.360        27
37.370        27
37.380         7
37.390        40
37.400        20
37.410        33
37.420        33
37.430        27
37.440         7
37.450         0
37.460         0
37.470        13
37.480        13
37.490        20
37.500        33
37.510        13
37.520        27
37.530         7
37.540        20
37.550         7
37.560        13
37.570        13
37.580        27
37.590        13
37.600        20
37.610        33
37.620        27
37.630        13
37.640        13
37.650        20
37.660        20
37.670        27
37.680         7
37.690        20
37.700        13
37.710        33
37.720        13
37.730        13
37.740         7
37.750        27
37.760         0
37.770        13
37.780        27
37.790        27
37.800        40
37.810         7
37.820         7
37.830         0
37.840         7
37.850        27
37.860        27
37.870         7
37.880        33
37.890        13
37.900        20
37.910        33
37.920        20
37.930        27
37.940        27
37.950        20
37.960        13
37.970        20
37.980        27
37.990        20
38.000         7
38.010        20
38.020        20
38.030        20
38.040        20
38.050        33
38.060        20
38.070        47
38.080        27
38.090        33
38.100         7
38.110        40
38.120        20
38.130        47
38.140        13
38.150        13
38.160         7
38.170         7
38.180         0
38.190        13
38.200        33
38.210        40
38.220         7
38.230        13
38.240         7
38.250        27
38.260        27
38.270         0
38.280         7
38.290        60
38.300        20
38.310        20
38.320        20
38.330         7
38.340        27
38.350         7
38.360        20
38.370        20
38.380        20
38.390        20
38.400        20
38.410        40
38.420        33
38.430        20
38.440        27
38.450         0
38.460         7
38.470        20
38.480        27
38.490        20
38.500        33
38.510        27
38.520        20
38.530        13
38.540        13
38.550        20
38.560        13
38.570        27
38.580        13
38.590        27
38.600         0
38.610        20
38.620        33
38.630         0
38.640        67
38.650        20
38.660        13
38.670        13
38.680        20
38.690        20
38.700         7
38.710        47
38.720         7
38.730         0
38.740        47
38.750        20
38.760         7
38.770        13
38.780        40
38.790        20
38.800        33
38.810         7
38.820        20
38.830        40
38.840        13
38.850        13
38.860        27
38.870        13
38.880        27
38.890        13
38.900        27
38.910        47
38.920        27
38.930        13
38.940         7
38.950        13
38.960        13
38.970        13
38.980        13
38.990         0
39.000        13
39.010        13
39.020         7
39.030        27
39.040        20
39.050         0
39.060        13
39.070         7
39.080         7
39.090        13
39.100        13
39.110        20
39.120        27
39.130        20
39.140        13
39.150        13
39.160        20
39.170        13
39.180        40
39.190         7
39.200         7
39.210        40
39.220        20
39.230        20
39.240        20
39.250        13
39.260        27
39.270        33
39.280        13
39.290        20
39.300        20
39.310        20
39.320        27
39.330        20
39.340        13
39.350         0
39.360        20
39.370        53
39.380        13
39.390         0
39.400        13
39.410        27
39.420        33
39.430        20
39.440        33
39.450         7
39.460         7
39.470        20
39.480        40
39.490        20
39.500        33
39.510        33
39.520        33
39.530         7
39.540         0
39.550        27
39.560        13
39.570        27
39.580         7
39.590        40
39.600        13
39.610        33
39.620        27
39.630        13
39.640        27
39.650        13
39.660        13
39.670         0
39.680        27
39.690        13
39.700         7
39.710        27
39.720        20
39.730        27
39.740        33
39.750        13
39.760        13
39.770         7
39.780         0
39.790        13
39.800        13
39.810        40
39.820        13
39.830        13
39.840        27
39.850         7
39.860        20
39.870        27
39.880        20
39.890        13
39.900        33
39.910        20
39.920        13
39.930        20
39.940        53
39.950        27
39.960         7
39.970        40
39.980        27
39.990        20
40.000        20
40.010        20
40.020        20
40.030        27
40.040        27
40.050        13
40.060        13
40.070        27
40.080        27
40.090        20
40.100         0
40.110        27
40.120        13
40.130        20
40.140        13
40.150         7
40.160        33
40.170        27
40.180        20
40.190         0
40.200        33
40.210        13
40.220         7
40.230        13
40.240        20
40.250         7
40.260        27
40.270        20
40.280        13
40.290        27
40.300        40
40.310         7
40.320        53
40.330        13
40.340        20
40.350        13
40.360         7
40.370        27
40.380        27
40.390         7
40.400        27
40.410         7
40.420        13
40.430        13
40.440        13
40.450         7
40.460        40
40.470         0
40.480        20
40.490        60
40.500        20
40.510        20
40.520         0
40.530         7
40.540        13
40.550        13
40.560         0
40.570        20
40.580        13
40.590        33
40.600        20
40.610         7
40.620        20
40.630        20
40.640        13
40.650         7
40.660         0
40.670        20
40.680        13
40.690        20
40.700         7
40.710        33
40.720        13
40.730        40
40.740        13
40.750         7
40.760        13
40.770        40
40.780        40
40.790         7
40.800        27
40.810        20
40.820        27
40.830        13
40.840        20
40.850        13
40.860        20
40.870        13
40.880        20
40.890         7
40.900        20
40.910        13
40.920        13
40.930        20
40.940        47
40.950        27
40.960         7
40.970        20
40.980        20
40.990        20
41.000        20
41.010        13
41.020         0
41.030        13
41.040        20
41.050        33
41.060         7
41.070         7
41.080        20
41.090        13
41.100         0
41.110        13
41.120        13
41.130        40
41.140        33
41.150         0
41.160        13
41.170        13
41.180        20
41.190        20
41.200        20
41.210         0
41.220         7
41.230         0
41.240         7
41.250        20
41.260        27
41.270        27
41.280         7
41.290         7
41.300        20
41.310        27
41.320        33
41.330        20
41.340        13
41.350         0
41.360        13
41.370        27
41.380        33
41.390        20
41.400        13
41.410        20
41.420        27
41.430        13
41.440        20
41.450         0
41.460        27
41.470        13
41.480         7
41.490         0
41.500        27
41.510        13
41.520        40
41.530         7
41.540        33
41.550        20
41.560        20
41.570         7
41.580        47
41.590        20
41.600        13
41.610        47
41.620        27
41.630        20
41.640         7
41.650        13
41.660        20
41.670        27
41.680         7
41.690        13
41.700        27
41.710        20
41.720        13
41.730        27
41.740         7
41.750         7
41.760         7
41.770         7
41.780         0
41.790        13
41.800         7
41.810        33
41.820        13
41.830        27
41.840        33
41.850        27
41.860        13
41.870        27
41.880        13
41.890        33
41.900        27
41.910        20
41.920        13
41.930        13
41.940         0
41.950        20
41.960        27
41.970         7
41.980         0
41.990        33
42.000         7
42.010        20
42.020        20
42.030         0
42.040        13
42.050        13
42.060        27
42.070         7
42.080         7
42.090        33
42.100         7
42.110        20
42.120        27
42.130         7
42.140        20
42.150         7
42.160        20
42.170        33
42.180        20
42.190        20
42.200        20
42.210        13
42.220        27
42.230        27
42.240         7
42.250        27
42.260        20
42.270         7
42.280        20
42.290         7
42.300        13
42.310        20
42.320         0
42.330        20
42.340        20
42.350         7
42.360         0
42.370         0
42.380        33
42.390        33
42.400        27
42.410        20
42.420        27
42.430        13
42.440        27
42.450        13
42.460         7
42.470        13
42.480        33
42.490        13
42.500        13
42.510         7
42.520         7
42.530        47
42.540        27
42.550         7
42.560        33
42.570        13
42.580        27
42.590        33
42.600        13
42.610        13
42.620         7
42.630        13
42.640         7
42.650        13
42.660         7
42.670        20
42.680        27
42.690        53
42.700        33
42.710        27
42.720        20
42.730         0
42.740         7
42.750        27
42.760        13
42.770        13
42.780        40
42.790        27
42.800         7
42.810        13
42.820        13
42.830        20
42.840         0
42.850        20
42.860         7
42.870        13
42.880        27
42.890        20
42.900        27
42.910        13
42.920        13
42.930        13
42.940        33
42.950        40
42.960        33
42.970        20
42.980        20
42.990        27
43.000         0
43.010        27
43.020        40
43.030        13
43.040         7
43.050        27
43.060        20
43.070        20
43.080        13
43.090        20
43.100        27
43.110        33
43.120        13
43.130        20
43.140         7
43.150         7
43.160        33
43.170        13
43.180         7
43.190        20
43.200        40
43.210         7
43.220        13
43.230        20
43.240        13
43.250        20
43.260         7
43.270        13
43.280        20
43.290         7
43.300        47
43.310        13
43.320        20
43.330         0
43.340        20
43.350        27
43.360        20
43.370        27
43.380        13
43.390        20
43.400         7
43.410        20
43.420        33
43.430         7
43.440        20
43.450        33
43.460        13
43.470        27
43.480        40
43.490        27
43.500        13
43.510         7
43.520        13
43.530         7
43.540        20
43.550        27
43.560        27
43.570        40
43.580         7
43.590         7
43.600         7
43.610         7
43.620        40
43.630        40
43.640        13
43.650        20
43.660        47
43.670        13
43.680         7
43.690        20
43.700        27
43.710        20
43.720        27
43.730        40
43.740        20
43.750        13
43.760        20
43.770        13
43.780        20
43.790        33
43.800        27
43.810         0
43.820        20
43.830        13
43.840         7
43.850        27
43.860        13
43.870        40
43.880        13
43.890        33
43.900        13
43.910        13
43.920         7
43.930        27
43.940        27
43.950        13
43.960        27
43.970         0
43.980        33
43.990        47
44.000        20
44.010         7
44.020        27
44.030        27
44.040        13
44.050         7
44.060        20
44.070        47
44.080         7
44.090         7
44.100        33
44.110        13
44.120        27
44.130        20
44.140        27
44.150        20
44.160        13
44.170        20
44.180        27
44.190        20
44.200        40
44.210         0
44.220        33
44.230        33
44.240        20
44.250        27
44.260        20
44.270        20
44.280        27
44.290        33
44.300        13
44.310         7
44.320        47
44.330        13
44.340        20
44.350        27
44.360         7
44.370         7
44.380         7
44.390        33
44.400        27
44.410        13
44.420        20
44.430        13
44.440        20
44.450        27
44.460        20
44.470        13
44.480         7
44.490        27
44.500        27
44.510        20
44.520        33
44.530        47
44.540        27
44.550        33
44.560        33
44.570        40
44.580         7
44.590        40
44.600        33
44.610        27
44.620        13
44.630        33
44.640        13
44.650        20
44.660        33
44.670        33
44.680        27
44.690        27
44.700        27
44.710        33
44.720         7
44.730        33
44.740        27
44.750        33
44.760         7
44.770        20
44.780        53
44.790        27
44.800        33
44.810        27
44.820        20
44.830        40
44.840        33
44.850         7
44.860        27
44.870        60
44.880        53
44.890        20
44.900        33
44.910        33
44.920        33
44.930        67
44.940        40
44.950        80
44.960        33
44.970        13
44.980        27
44.990        40
45.000        20
45.010        27
45.020        20
45.030        27
45.040        60
45.050        67
45.060        40
45.070        47
45.080        33
45.090        73
45.100        27
45.110        47
45.120        27
45.130        47
45.140        40
45.150        60
45.160        53
45.170        27
45.180        53
45.190        67
45.200        47
45.210        53
45.220        40
45.230        53
45.240        87
45.250        73
45.260        53
45.270        53
45.280       127
45.290        73
45.300        73
45.310        33
45.320        67
45.330       107
45.340        60
45.350        87
45.360        93
45.370        47
45.380       107
45.390       100
45.400        87
45.410        80
45.420       100
45.430       107
45.440       113
45.450       120
45.460        87
45.470        67
45.480       107
45.490       120
45.500       113
45.510       113
45.520       140
45.530       120
45.540       147
45.550        87
45.560       100
45.570       147
45.580       113
45.590       127
45.600       140
45.610        87
45.620       113
45.630       193
45.640       167
45.650       153
45.660       167
45.670       187
45.680       160
45.690       173
45.700       140
45.710       180
45.720       200
45.730       180
45.740       200
45.750       240
45.760       173
45.770       200
45.780       180
45.790       187
45.800       207
45.810       187
45.820       207
45.830       280
45.840       233
45.850       293
45.860       287
45.870       200
45.880       213
45.890       280
45.900       253
45.910       233
45.920       200
45.930       300
45.940       267
45.950       293
45.960       320
45.970       280
45.980       247
45.990       293
46.000       227
46.010       233
46.020       320
46.030       287
46.040       327
46.050       240
46.060       340
46.070       207
46.080       300
46.090       313
46.100       273
46.110       260
46.120       227
46.130       280
46.140       233
46.150       260
46.160       253
46.170       340
46.180       273
46.190       273
46.200       207
46.210       193
46.220       260
46.230       220
46.240       233
46.250       207
46.260       253
46.270       193
46.280       153
46.290       293
46.300       187
46.310       213
46.320       227
46.330       173
46.340       220
46.350       200
46.360       173
46.370       147
46.380       220
46.390       233
46.400       173
46.410       127
46.420       160
46.430       213
46.440       147
46.450       160
46.460       200
46.470       200
46.480       133
46.490       187
46.500       107
46.510       107
46.520       140
46.530       140
46.540       113
46.550       140
46.560       113
46.570       127
46.580       113
46.590       133
46.600       160
46.610       107
46.620       167
46.630        93
46.640       160
46.650       113
46.660       100
46.670       100
46.680        67
46.690        53
46.700        87
46.710       120
46.720       100
46.730        80
46.740        93
46.750        60
46.760       100
46.770        53
46.780       100
46.790        53
46.800        53
46.810        93
46.820        60
46.830        47
46.840        53
46.850        47
46.860        73
46.870        73
46.880        40
46.890        87
46.900        53
46.910        53
46.920        47
46.930       100
46.940        40
46.950        40
46.960        80
46.970        53
46.980        53
46.990        53
47.000        27
47.010        40
47.020        60
47.030        20
47.040        33
47.050        53
47.060        33
47.070        33
47.080        33
47.090        20
47.100        47
47.110        20
47.120        73
47.130        53
47.140        33
47.150        53
47.160        27
47.170        53
47.180        60
47.190        33
47.200        47
47.210        40
47.220        27
47.230        67
47.240        40
47.250        20
47.260        20
47.270         0
47.280        40
47.290        40
47.300        33
47.310        67
47.320        53
47.330        27
47.340         7
47.350        20
47.360        27
47.370        20
47.380        40
47.390        53
47.400        47
47.410        53
47.420        27
47.430        33
47.440        20
47.450        33
47.460        47
47.470        40
47.480        33
47.490        40
47.500        53
47.510         0
47.520        33
47.530        33
47.540        33
47.550        40
47.560        20
47.570        27
47.580        40
47.590        40
47.600        13
47.610        13
47.620         7
47.630        20
47.640        60
47.650        27
47.660        20
47.670        13
47.680        13
47.690        20
47.700        20
47.710        33
47.720         0
47.730        27
47.740        20
47.750        20
47.760        33
47.770        13
47.780        33
47.790        33
47.800        33
47.810        20
47.820        53
47.830        27
47.840        40
47.850        33
47.860        27
47.870        53
47.880        20
47.890         7
47.900        20
47.910         7
47.920        27
47.930         7
47.940        27
47.950        33
47.960        27
47.970        47
47.980         0
47.990         7
48.000         0
48.010        13
48.020        47
48.030        53
48.040        13
48.050        13
48.060        13
48.070        13
48.080         7
48.090        20
48.100        33
48.110        20
48.120        13
48.130        13
48.140        13
48.150        20
48.160        40
48.170        20
48.180        33
48.190        13
48.200        27
48.210        33
48.220        27
48.230        20
48.240        20
48.250        40
48.260        27
48.270        20
48.280        33
48.290        27
48.300        33
48.310        33
48.320         7
48.330        20
48.340        40
48.350        13
48.360         7
48.370        13
48.380         7
48.390        13
48.400        40
48.410        33
48.420         7
48.430        33
48.440        27
48.450        20
48.460        20
48.470        13
48.480        33
48.490         0
48.500        20
48.510        27
48.520         7
48.530        27
48.540        47
48.550        13
48.560        27
48.570        13
48.580        27
48.590        27
48.600        20
48.610        33
48.620        27
48.630        20
48.640        53
48.650        40
48.660        13
48.670         7
48.680        20
48.690         7
48.700        20
48.710        53
48.720        13
48.730        47
48.740         7
48.750        33
48.760        13
48.770        27
48.780        13
48.790        27
48.800        13
48.810        47
48.820        13
48.830        27
48.840        40
48.850        20
48.860         0
48.870        20
48.880        27
48.890        33
48.900        20
48.910        20
48.920        33
48.930        20
48.940         7
48.950        13
48.960        40
48.970        27
48.980        13
48.990        33
49.000        20
49.010        20
49.020        13
49.030        13
49.040        33
49.050        27
49.060        27
49.070        20
49.080        20
49.090        13
49.100        20
49.110         7
49.120        13
49.130         7
49.140        33
49.150         0
49.160        27
49.170        40
49.180         7
49.190         7
49.200        20
49.210        33
49.220        20
49.230         0
49.240        20
49.250         7
49.260        13
49.270         7
49.280         0
49.290        40
49.300        27
49.310         7
49.320        20
49.330        27
49.340        13
49.350        47
49.360        20
49.370        13
49.380        33
49.390         7
49.400        20
49.410        47
49.420        13
49.430        13
49.440        20
49.450         0
49.460         7
49.470        27
49.480        13
49.490        20
49.500         7
49.510        33
49.520        13
49.530        33
49.540        20
49.550        13
49.560        40
49.570        27
49.580        40
49.590        13
49.600        27
49.610         7
49.620        13
49.630        20
49.640        27
49.650        13
49.660        27
49.670        13
49.680         0
49.690        33
49.700         7
49.710        20
49.720        13
49.730        27
49.740        13
49.750        27
49.760         7
49.770        13
49.780         7
49.790        47
49.800        20
49.810        33
49.820        33
49.830        27
49.840        20
49.850         7
49.860         7
49.870        27
49.880        20
49.890        33
49.900        13
49.910        20
49.920        13
49.930        53
49.940        27
49.950        13
49.960         0
49.970        13
49.980        13
49.990        13
50.000         7
50.010         0
50.020        13
50.030        27
50.040        13
50.050        13
50.060        33
50.070        13
50.080        13
50.090        33
50.100        20
50.110        20
50.120         0
50.130        27
50.140        33
50.150        33
50.160        27
50.170        27
50.180        27
50.190         7
50.200        33
50.210        13
50.220        27
50.230        13
50.240        13
50.250         7
50.260        27
50.270        33
50.280         7
50.290        47
50.300         7
50.310         7
50.320        13
50.330        20
50.340        20
50.350        20
50.360        27
50.370        20
50.380        20
50.390        13
50.400        13
50.410        20
50.420        27
50.430        40
50.440        13
50.450        20
50.460        13
50.470        20
50.480         7
50.490        40
50.500         7
50.510        20
50.520        20
50.530        27
50.540        13
50.550        20
50.560        20
50.570         0
50.580         7
50.590        27
50.600        33
50.610        20
50.620        27
50.630         0
50.640        27
50.650        20
50.660        20
50.670        13
50.680        27
50.690        20
50.700        13
50.710        33
50.720        20
50.730        20
50.740        13
50.750        20
50.760        13
50.770        33
50.780        20
50.790        60
50.800        40
50.810        20
50.820        13
50.830         7
50.840        27
50.850        13
50.860        33
50.870        33
50.880        33
50.890        27
50.900        20
50.910        20
50.920        40
50.930        27
50.940        40
50.950        13
50.960        13
50.970        53
50.980        20
50.990        20
51.000        27
51.010        20
51.020        20
51.030        33
51.040        27
51.050         7
51.060        40
51.070        13
51.080         7
51.090        20
51.100         7
51.110        33
51.120        33
51.130        13
51.140        27
51.150        20
51.160        20
51.170        27
51.180         7
51.190        40
51.200         7
51.210        13
51.220        33
51.230        13
51.240         7
51.250        40
51.260         7
51.270        47
51.280         7
51.290        27
51.300        47
51.310        13
51.320         7
51.330        27
51.340        33
51.350        13
51.360         7
51.370        60
51.380        40
51.390        13
51.400        33
51.410        40
51.420         7
51.430        13
51.440        20
51.450        33
51.460        20
51.470        27
51.480        40
51.490        20
51.500        20
51.510         7
51.520        40
51.530        13
51.540        33
51.550        53
51.560        13
51.570        33
51.580        27
51.590        33
51.600        20
51.610        13
51.620        27
51.630        47
51.640         7
51.650        53
51.660        20
51.670         7
51.680         7
51.690        40
51.700        27
51.710        60
51.720        33
51.730        13
51.740        27
51.750        33
51.760        33
51.770        40
51.780        20
51.790        20
51.800        33
51.810        13
51.820        53
51.830        13
51.840        27
51.850        27
51.860        27
51.870        20
51.880        13
51.890        13
51.900        33
51.910        40
51.920         0
51.930        13
51.940        40
51.950        27
51.960        33
51.970        13
51.980        33
51.990        20
52.000        13
52.010        47
52.020        47
52.030        33
52.040        47
52.050        33
52.060        40
52.070        13
52.080        33
52.090        27
52.100        27
52.110        33
52.120        27
52.130        53
52.140        33
52.150        27
52.160        53
52.170        40
52.180        33
52.190        47
52.200        27
52.210        33
52.220        33
52.230        53
52.240        40
52.250        40
52.260        40
52.270        27
52.280        47
52.290        20
52.300        33
52.310        40
52.320        33
52.330        87
52.340        87
52.350         7
52.360        53
52.370        60
52.380        27
52.390        40
52.400        27
52.410        60
52.420        47
52.430        60
52.440        53
52.450        60
52.460        80
52.470        53
52.480        73
52.490        40
52.500        47
52.510        67
52.520       107
52.530        87
52.540        93
52.550        93
52.560        60
52.570        93
52.580       127
52.590        73
52.600       120
52.610        60
52.620       127
52.630        73
52.640        60
52.650       120
52.660        53
52.670        80
52.680        93
52.690        87
52.700        53
52.710        40
52.720        60
52.730        73
52.740        93
52.750        60
52.760        53
52.770        53
52.780        47
52.790        67
52.800       113
52.810        87
52.820        33
52.830        33
52.840        53
52.850        33
52.860        40
52.870        47
52.880        47
52.890        13
52.900        33
52.910        27
52.920        33
52.930        80
52.940        33
52.950        27
52.960        47
52.970        33
52.980        33
52.990        40
53.000        47
53.010        20
53.020        20
53.030        47
53.040        27
53.050        33
53.060        53
53.070        47
53.080        33
53.090        53
53.100        20
53.110        27
53.120        40
53.130        27
53.140        40
53.150        13
53.160        40
53.170        40
53.180         0
53.190        33
53.200        53
53.210        20
53.220         7
53.230        40
53.240        20
53.250        13
53.260        47
53.270        20
53.280        27
53.290        33
53.300        13
53.310        27
53.320        27
53.330        20
53.340        27
53.350        33
53.360        53
53.370        13
53.380        20
53.390        13
53.400        27
53.410         7
53.420        27
53.430        47
53.440        13
53.450        47
53.460        13
53.470        20
53.480        27
53.490        20
53.500         7
53.510        13
53.520        13
53.530        20
53.540        27
53.550        47
53.560        13
53.570        20
53.580        20
53.590        40
53.600        13
53.610        27
53.620        40
53.630        60
53.640        13
53.650        20
53.660        33
53.670        27
53.680        20
53.690         7
53.700        13
53.710         0
53.720        27
53.730        40
53.740        47
53.750         7
53.760        20
53.770        40
53.780        40
53.790        27
53.800        20
53.810        13
53.820         7
53.830        27
53.840        40
53.850         7
53.860        20
53.870         7
53.880         7
53.890        27
53.900        27
53.910        13
53.920        40
53.930        53
53.940        20
53.950         7
53.960        27
53.970        13
53.980        20
53.990        20
54.000        40
54.010        33
54.020        13
54.030        33
54.040        13
54.050        13
54.060         0
54.070        33
54.080        20
54.090         7
54.100        27
54.110        27
54.120        27
54.130        33
54.140        27
54.150         7
54.160        20
54.170        13
54.180        13
54.190        20
54.200        33
54.210        20
54.220        27
54.230        33
54.240        33
54.250        13
54.260        20
54.270        40
54.280        20
54.290        13
54.300        13
54.310        20
54.320        33
54.330        27
54.340        20
54.350         0
54.360        20
54.370        20
54.380         7
54.390        20
54.400        27
54.410        13
54.420         7
54.430        13
54.440         7
54.450        20
54.460        27
54.470        13
54.480         7
54.490         7
54.500         7
54.510         7
54.520         0
54.530        40
54.540         7
54.550        47
54.560        13
54.570         7
54.580        27
54.590        13
54.600         7
54.610        40
54.620        20
54.630        20
54.640        13
54.650         7
54.660         7
54.670        40
54.680         0
54.690        67
54.700         7
54.710        13
54.720        27
54.730         7
54.740        20
54.750         7
54.760        33
54.770        33
54.780        20
54.790        13
54.800        33
54.810        13
54.820        20
54.830        20
54.840        27
54.850        40
54.860        33
54.870        13
54.880        27
54.890        20
54.900         7
54.910        27
54.920        27
54.930        20
54.940        13
54.950        20
54.960        20
54.970        27
54.980        13
54.990        27
55.000        13
55.010        13
55.020        13
55.030        13
55.040        47
55.050        13
55.060         7
55.070        27
55.080        13
55.090        20
55.100         7
55.110        13
55.120         7
55.130         7
55.140        13
55.150         7
55.160        20
55.170        13
55.180         7
55.190        60
55.200        27
55.210         7
55.220        27
55.230        20
55.240         0
55.250        40
55.260         7
55.270         7
55.280        20
55.290        47
55.300         7
55.310        13
55.320        27
55.330         7
55.340        20
55.350        20
55.360        27
55.370        20
55.380         7
55.390        27
55.400         0
55.410        20
55.420         0
55.430        27
55.440       100
55.450        13
55.460         0
55.470        27
55.480        13
55.490        20
55.500        20
55.510         0
55.520        20
55.530        13
55.540        13
55.550        20
55.560         7
55.570        27
55.580         0
55.590        20
55.600        27
55.610        27
55.620        40
55.630        20
55.640        27
55.650         7
55.660        13
55.670        13
55.680         0
55.690         0
55.700        13
55.710        20
55.720        20
55.730        27
55.740        13
55.750         7
55.760         7
55.770        33
55.780         7
55.790        13
55.800        20
55.810        33
55.820         7
55.830        27
55.840        13
55.850        20
55.860        27
55.870         0
55.880        27
55.890         7
55.900        13
55.910         7
55.920        13
55.930         0
55.940        13
55.950        20
55.960        27
55.970        40
55.980        13
55.990        27
56.000        27
56.010         7
56.020         7
56.030        27
56.040         7
56.050        20
56.060        13
56.070        20
56.080        13
56.090        27
56.100        20
56.110        20
56.120        20
56.130        20
56.140        13
56.150        20
56.160        13
56.170        20
56.180         0
56.190        13
56.200        13
56.210         0
56.220         7
56.230        27
56.240        20
56.250        33
56.260         7
56.270        13
56.280         7
56.290         0
56.300        20
56.310         7
56.320        20
56.330         7
56.340        20
56.350         7
56.360        13
56.370        13
56.380         7
56.390        20
56.400        13
56.410         7
56.420         7
56.430        13
56.440        27
56.450        27
56.460        13
56.470        20
56.480        13
56.490        27
56.500         0
56.510        13
56.520         7
56.530         7
56.540        33
56.550        13
56.560         7
56.570         7
56.580         7
56.590        20
56.600        27
56.610        33
56.620        40
56.630        20
56.640        20
56.650        13
56.660        20
56.670        13
56.680        13
56.690        40
56.700        40
56.710        27
56.720        40
56.730        13
56.740         7
56.750        20
56.760         0
56.770        20
56.780        13
56.790         7
56.800        20
56.810        33
56.820         0
56.830        13
56.840        33
56.850        20
56.860        13
56.870        13
56.880        13
56.890         0
56.900        20
56.910        20
56.920        20
56.930        13
56.940        13
56.950         0
56.960        27
56.970        20
56.980        20
56.990        13
57.000        20
57.010        13
57.020        13
57.030         0
57.040         0
57.050         7
57.060         0
57.070        20
57.080        13
57.090        27
57.100         7
57.110        27
57.120         7
57.130        13
57.140        27
57.150         7
57.160        20
57.170        20
57.180        13
57.190         7
57.200         7
57.210        20
57.220        27
57.230         0
57.240         0
57.250         7
57.260         7
57.270        20
57.280        33
57.290         7
57.300        13
57.310        40
57.320        20
57.330        13
57.340        13
57.350        27
57.360        13
57.370         7
57.380        13
57.390        20
57.400        27
57.410        13
57.420         7
57.430        20
57.440         0
57.450        13
57.460        20
57.470        27
57.480        13
57.490         7
57.500         7
57.510         7
57.520        20
57.530        13
57.540         7
57.550         0
57.560         7
57.570        27
57.580        47
57.590         7
57.600        20
57.610         7
57.620        20
57.630         7
57.640        13
57.650        20
57.660        33
57.670        13
57.680         0
57.690         7
57.700         7
57.710        13
57.720        20
57.730        13
57.740        40
57.750         7
57.760         0
57.770        13
57.780         0
57.790        53
57.800        13
57.810         7
57.820        13
57.830        20
57.840        27
57.850         7
57.860        20
57.870        13
57.880        13
57.890         7
57.900        20
57.910         0
57.920         7
57.930         7
57.940        20
57.950        20
57.960         7
57.970        33
57.980        13
57.990         7
58.000        13
58.010         7
58.020         0
58.030        33
58.040        13
58.050        13
58.060        20
58.070        20
58.080         7
58.090         7
58.100         7
58.110        20
58.120        13
58.130        13
58.140        13
58.150        27
58.160         0
58.170         0
58.180         0
58.190        13
58.200         7
58.210        20
58.220        13
58.230        20
58.240        40
58.250         0
58.260         0
58.270         7
58.280        13
58.290         0
58.300        13
58.310        20
58.320        13
58.330         0
58.340         7
58.350         7
58.360         7
58.370        13
58.380         7
58.390        20
58.400        33
58.410        33
58.420         7
58.430        20
58.440        27
58.450        13
58.460        20
58.470        27
58.480         7
58.490         7
58.500        13
58.510         7
58.520         7
58.530        13
58.540        33
58.550        20
58.560         0
58.570        13
58.580        13
58.590        20
58.600         7
58.610        33
58.620        13
58.630        13
58.640        13
58.650        40
58.660         7
58.670        20
58.680        27
58.690         7
58.700        20
58.710         0
58.720         7
58.730        13
58.740        27
58.750         7
58.760        13
58.770        27
58.780         7
58.790        13
58.800        13
58.810        13
58.820        20
58.830        13
58.840        13
58.850        13
58.860         7
58.870        20
58.880        13
58.890         7
58.900        33
58.910        27
58.920        27
58.930         7
58.940        13
58.950         7
58.960         7
58.970        20
58.980        13
58.990         0
59.000        13
59.010         0
59.020        33
59.030        13
59.040        33
59.050         7
59.060        20
59.070        13
59.080        13
59.090         7
59.100        40
59.110        13
59.120        13
59.130        13
59.140        27
59.150        20
59.160         7
59.170        13
59.180         7
59.190         0
59.200        33
59.210        13
59.220        13
59.230        13
59.240         0
59.250         7
59.260         0
59.270        13
59.280        20
59.290        20
59.300         7
59.310        20
59.320        27
59.330        13
59.340        13
59.350        20
59.360         7
59.370        13
59.380        20
59.390         7
59.400        20
59.410        20
59.420         7
59.430         0
59.440        13
59.450        27
59.460         7
59.470         0
59.480        20
59.490        27
59.500        13
59.510        20
59.520        20
59.530        27
59.540        27
59.550         7
59.560         7
59.570        27
59.580        13
59.590        20
59.600        20
59.610         0
59.620         7
59.630        27
59.640        20
59.650        27
59.660        13
59.670         7
59.680        27
59.690        27
59.700         7
59.710        20
59.720         0
59.730        13
59.740        13
59.750         7
59.760        33
59.770         7
59.780        13
59.790        27
59.800        20
59.810        33
59.820        13
59.830         7
59.840         7
59.850        20
59.860         7
59.870        13
59.880         7
59.890        20
59.900        20
59.910        27
59.920         7
59.930         7
59.940        20
59.950         0
59.960         0
59.970         0
59.980        33
59.990        20
60.000        20
