20.000        80
20.010       133
20.020       100
20.030        53
20.040       187
20.050       100
20.060       173
20.070       153
20.080       120
20.090       140
20.100       140
20.110       107
20.120       100
20.130       120
20.140       120
20.150        93
20.160       120
20.170       133
20.180       160
20.190       160
20.200       140
20.210       113
20.220       153
20.230       120
20.240       140
20.250       100
20.260       107
20.270        87
20.280       100
20.290       153
20.300       153
20.310       107
20.320       133
20.330       140
20.340       107
20.350       113
20.360       200
20.370       127
20.380       133
20.390       107
20.400       113
20.410       133
20.420       113
20.430        93
20.440       133
20.450       107
20.460        60
20.470       107
20.480       147
20.490       133
20.500       120
20.510       180
20.520       107
20.530       107
20.540       140
20.550       107
20.560        93
20.570       153
20.580       133
20.590        87
20.600       107
20.610       153
20.620       180
20.630       113
20.640       140
20.650       140
20.660        87
20.670        93
20.680        80
20.690       107
20.700       160
20.710       100
20.720       127
20.730       160
20.740       107
20.750       107
20.760       120
20.770        93
20.780       100
20.790       187
20.800       140
20.810       113
20.820        87
20.830       133
20.840       100
20.850        53
20.860       200
20.870       133
20.880       153
20.890       127
20.900       120
20.910       193
20.920        87
20.930       133
20.940       100
20.950        73
20.960       153
20.970       113
20.980       133
20.990        87
21.000       100
21.010       160
21.020       113
21.030       107
21.040       133
21.050       100
21.060       113
21.070       120
21.080       127
21.090       113
21.100       147
21.110       100
21.120        80
21.130       120
21.140       100
21.150        87
21.160       113
21.170       133
21.180       120
21.190       147
21.200       127
21.210       107
21.220       167
21.230       147
21.240        67
21.250       140
21.260       140
21.270       127
21.280       133
21.290       127
21.300       147
21.310       140
21.320       167
21.330       153
21.340       100
21.350       120
21.360       173
21.370       153
21.380       173
21.390       113
21.400       113
21.410        93
21.420       127
21.430       167
21.440       140
21.450       140
21.460       107
21.470       107
21.480       140
21.490       140
21.500       100
21.510       113
21.520       127
21.530       113
21.540       133
21.550       147
21.560        93
21.570       153
21.580       147
21.590       160
21.600       160
21.610       127
21.620       213
21.630       140
21.640       180
21.650       153
21.660       167
21.670       160
21.680       147
21.690       127
21.700       107
21.710       187
21.720       147
21.730       127
21.740       107
21.750       173
21.760       140
21.770       153
21.780       147
21.790       127
21.800       180
21.810       147
21.820       153
21.830       193
21.840        93
21.850       173
21.860       180
21.870       207
21.880       147
21.890        87
21.900       180
21.910       193
21.920       167
21.930       193
21.940       180
21.950       160
21.960       180
21.970       147
21.980        93
21.990       100
22.000       167
22.010       167
22.020       167
22.030       180
22.040       140
22.050       187
22.060       180
22.070       147
22.080       153
22.090       167
22.100       187
22.110       140
22.120       167
22.130       167
22.140       133
22.150       153
22.160       147
22.170       160
22.180       147
22.190       160
22.200       187
22.210       147
22.220       187
22.230        87
22.240       160
22.250       240
22.260       200
22.270       167
22.280       213
22.290       227
22.300       193
22.310       260
22.320       233
22.330       180
22.340       200
22.350       187
22.360       207
22.370       253
22.380       287
22.390       220
22.400       247
22.410       220
22.420       260
22.430       360
22.440       380
22.450       333
22.460       380
22.470       433
22.480       433
22.490       373
22.500       493
22.510       540
22.520       347
22.530       420
22.540       400
22.550       466
22.560       413
22.570       560
22.580       413
22.590       520
22.600       593
22.610       593
22.620       560
22.630       573
22.640       460
22.650       646
22.660       553
22.670       540
22.680       473
22.690       480
22.700       666
22.710       420
22.720       546
22.730       420
22.740       400
22.750       540
22.760       307
22.770       360
22.780       347
22.790       367
22.800       340
22.810       320
22.820       340
22.830       307
22.840       400
22.850       340
22.860       267
22.870       327
22.880       307
22.890       300
22.900       400
22.910       253
22.920       273
22.930       340
22.940       373
22.950       393
22.960       426
22.970       620
22.980       980
22.990      1339
23.000      1679
23.010      1773
23.020      1979
23.030      1826
23.040      1819
23.050      1786
23.060      1253
23.070       866
23.080       533
23.090       486
23.100       367
23.110       380
23.120       340
23.130       327
23.140       307
23.150       300
23.160       293
23.170       353
23.180       247
23.190       200
23.200       240
23.210       267
23.220       247
23.230       207
23.240       287
23.250       400
23.260       233
23.270       260
23.280       247
23.290       213
23.300       240
23.310       247
23.320       300
23.330       180
23.340       320
23.350       253
23.360       267
23.370       227
23.380       253
23.390       293
23.400       313
23.410       247
23.420       233
23.430       180
23.440       267
23.450       320
23.460       193
23.470       260
23.480       333
23.490       273
23.500       280
23.510       213
23.520       207
23.530       247
23.540       187
23.550       227
23.560       253
23.570       233
23.580       207
23.590       240
23.600       207
23.610       207
23.620       200
23.630       193
23.640       260
23.650       260
23.660       207
23.670       213
23.680       193
23.690       300
23.700       273
23.710       233
23.720       280
23.730       347
23.740       187
23.750       247
23.760       260
23.770       193
23.780       180
23.790       240
23.800       193
23.810       273
23.820       227
23.830       253
23.840       200
23.850       287
23.860       240
23.870       207
23.880       140
23.890       187
23.900       207
23.910       253
23.920       187
23.930       173
23.940       220
23.950       227
23.960       240
23.970       267
23.980       260
23.990       287
24.000       260
24.010       253
24.020       187
24.030       240
24.040       173
24.050       187
24.060       220
24.070       287
24.080       180
24.090       193
24.100       260
24.110       187
24.120       193
24.130       233
24.140       260
24.150       220
24.160       240
24.170       267
24.180       227
24.190       273
24.200       240
24.210       173
24.220       253
24.230       207
24.240       240
24.250       180
24.260       227
24.270       213
24.280       173
24.290       193
24.300       213
24.310       167
24.320       167
24.330       233
24.340       213
24.350       227
24.360       220
24.370       260
24.380       220
24.390       227
24.400       227
24.410       220
24.420       253
24.430       160
24.440       213
24.450       293
24.460       267
24.470       253
24.480       167
24.490       293
24.500       227
24.510       227
24.520       207
24.530       147
24.540       233
24.550       220
24.560       180
24.570       227
24.580       260
24.590       313
24.600       227
24.610       293
24.620       387
24.630       440
24.640       460
24.650       520
24.660       653
24.670       760
24.680       813
24.690       860
24.700       793
24.710       853
24.720       926
24.730       866
24.740       980
24.750       720
24.760      1046
24.770       920
24.780       906
24.790       840
24.800       713
24.810       800
24.820       773
24.830       920
24.840       900
24.850       873
24.860       920
24.870       973
24.880       786
24.890       893
24.900       873
24.910       773
24.920       880
24.930       913
24.940      1040
24.950       873
24.960       826
24.970       826
24.980       846
24.990       993
25.000       880
25.010       926
25.020      1000
25.030       880
25.040       800
25.050       980
25.060       940
25.070       993
25.080       900
25.090       946
25.100       886
25.110      1046
25.120       920
25.130       953
25.140      1000
25.150       986
25.160      1000
25.170      1060
25.180      1053
25.190       966
25.200      1026
25.210      1213
25.220      1033
25.230      1126
25.240      1100
25.250      1033
25.260      1193
25.270      1246
25.280      1353
25.290      1240
25.300      1366
25.310      1479
25.320      1393
25.330      1579
25.340      1946
25.350      2326
25.360      2759
25.370      3519
25.380      4665
25.390      5398
25.400      6651
25.410      7710
25.420      9336
25.430      9836
25.440     11729
25.450     14334
25.460     17160
25.470     28262
25.480     50320
25.490     88338
25.500    125323
25.510    151593
25.520    163735
25.530    170239
25.540    173457
25.550    173504
25.560    165700
25.570    145002
25.580    126289
25.590    111002
25.600    105744
25.610     99247
25.620     87532
25.630     66500
25.640     45808
25.650     28269
25.660     18453
25.670     14621
25.680     13061
25.690     10469
25.700      9596
25.710      7943
25.720      7310
25.730      5704
25.740      4911
25.750      4192
25.760      3592
25.770      2686
25.780      2472
25.790      1833
25.800      1839
25.810      1579
25.820      1599
25.830      1593
25.840      1366
25.850      1406
25.860      1306
25.870      1173
25.880      1200
25.890      1153
25.900      1220
25.910      1186
25.920      1053
25.930      1233
25.940       986
25.950       933
25.960      1080
25.970      1133
25.980       933
25.990       893
26.000       940
26.010       913
26.020       873
26.030       806
26.040       793
26.050      1040
26.060       880
26.070       940
26.080       813
26.090       980
26.100       813
26.110       853
26.120       866
26.130       753
26.140       880
26.150       826
26.160       880
26.170       840
26.180       786
26.190       846
26.200       680
26.210       813
26.220       906
26.230       766
26.240       813
26.250       786
26.260       713
26.270       673
26.280       833
26.290       766
26.300       753
26.310       733
26.320       713
26.330       633
26.340       786
26.350       740
26.360       866
26.370       693
26.380       686
26.390       720
26.400       760
26.410       706
26.420       646
26.430       700
26.440       673
26.450       780
26.460       706
26.470       653
26.480       693
26.490       700
26.500       706
26.510       613
26.520       700
26.530       606
26.540       693
26.550       640
26.560       686
26.570       680
26.580       720
26.590       793
26.600       713
26.610       653
26.620       713
26.630       666
26.640       586
26.650       640
26.660       786
26.670       580
26.680       560
26.690       646
26.700       653
26.710       633
26.720       640
26.730       653
26.740       640
26.750       566
26.760       680
26.770       593
26.780       600
26.790       593
26.800       606
26.810       713
26.820       526
26.830       580
26.840       620
26.850       640
26.860       580
26.870       566
26.880       586
26.890       540
26.900       753
26.910       480
26.920       740
26.930       633
26.940       633
26.950       700
26.960       673
26.970       666
26.980       566
26.990       633
27.000       600
27.010       600
27.020       573
27.030       573
27.040       506
27.050       633
27.060       546
27.070       407
27.080       520
27.090       533
27.100       546
27.110       580
27.120       453
27.130       653
27.140       606
27.150       773
27.160       580
27.170       540
27.180       560
27.190       486
27.200       413
27.210       573
27.220       553
27.230       613
27.240       433
27.250       693
27.260       573
27.270       600
27.280       506
27.290       633
27.300       713
27.310       520
27.320       500
27.330       426
27.340       446
27.350       453
27.360       486
27.370       473
27.380       626
27.390       526
27.400       433
27.410       520
27.420       440
27.430       460
27.440       520
27.450       533
27.460       493
27.470       546
27.480       646
27.490       466
27.500       606
27.510       520
27.520       513
27.530       553
27.540       486
27.550       526
27.560       566
27.570       553
27.580       493
27.590       520
27.600       440
27.610       653
27.620       473
27.630       553
27.640       453
27.650       500
27.660       500
27.670       520
27.680       493
27.690       473
27.700       593
27.710       506
27.720       486
27.730       446
27.740       633
27.750       493
27.760       500
27.770       533
27.780       407
27.790       433
27.800       560
27.810       353
27.820       540
27.830       506
27.840       500
27.850       646
27.860       453
27.870       453
27.880       506
27.890       473
27.900       466
27.910       460
27.920       440
27.930       553
27.940       520
27.950       493
27.960       500
27.970       473
27.980       453
27.990       500
28.000       466
28.010       566
28.020       486
28.030       533
28.040       546
28.050       440
28.060       460
28.070       500
28.080       473
28.090       486
28.100       347
28.110       500
28.120       466
28.130       460
28.140       566
28.150       546
28.160       420
28.170       453
28.180       486
28.190       446
28.200       453
28.210       546
28.220       393
28.230       533
28.240       573
28.250       420
28.260       486
28.270       486
28.280       387
28.290       453
28.300       546
28.310       466
28.320       426
28.330       360
28.340       407
28.350       600
28.360       526
28.370       600
28.380       426
28.390       426
28.400       506
28.410       473
28.420       473
28.430       426
28.440       453
28.450       400
28.460       493
28.470       486
28.480       486
28.490       533
28.500       520
28.510       373
28.520       540
28.530       540
28.540       526
28.550       347
28.560       573
28.570       380
28.580       526
28.590       400
28.600       513
28.610       446
28.620       533
28.630       540
28.640       413
28.650       387
28.660       500
28.670       420
28.680       367
28.690       446
28.700       533
28.710       480
28.720       340
28.730       433
28.740       440
28.750       506
28.760       460
28.770       380
28.780       426
28.790       413
28.800       540
28.810       420
28.820       540
28.830       486
28.840       540
28.850       493
28.860       387
28.870       440
28.880       387
28.890       440
28.900       560
28.910       513
28.920       460
28.930       413
28.940       407
28.950       426
28.960       486
28.970       433
28.980       407
28.990       486
29.000       480
29.010       433
29.020       506
29.030       513
29.040       333
29.050       513
29.060       440
29.070       367
29.080       480
29.090       480
29.100       446
29.110       373
29.120       560
29.130       460
29.140       407
29.150       473
29.160       320
29.170       466
29.180       433
29.190       360
29.200       400
29.210       413
29.220       407
29.230       420
29.240       446
29.250       400
29.260       347
29.270       413
29.280       486
29.290       373
29.300       360
29.310       440
29.320       347
29.330       453
29.340       440
29.350       380
29.360       460
29.370       313
29.380       407
29.390       440
29.400       407
29.410       520
29.420       420
29.430       387
29.440       466
29.450       400
29.460       520
29.470       393
29.480       440
29.490       327
29.500       500
29.510       413
29.520       387
29.530       453
29.540       313
29.550       420
29.560       433
29.570       407
29.580       407
29.590       393
29.600       380
29.610       333
29.620       340
29.630       446
29.640       327
29.650       360
29.660       387
29.670       387
29.680       407
29.690       360
29.700       373
29.710       347
29.720       313
29.730       387
29.740       287
29.750       360
29.760       373
29.770       347
29.780       307
29.790       380
29.800       307
29.810       353
29.820       400
29.830       473
29.840       387
29.850       320
29.860       373
29.870       420
29.880       407
29.890       347
29.900       380
29.910       373
29.920       327
29.930       380
29.940       360
29.950       347
29.960       367
29.970       373
29.980       400
29.990       327
30.000       327
30.010       380
30.020       307
30.030       407
30.040       373
30.050       300
30.060       367
30.070       347
30.080       413
30.090       413
30.100       360
30.110       367
30.120       307
30.130       407
30.140       407
30.150       440
30.160       480
30.170       347
30.180       360
30.190       360
30.200       353
30.210       373
30.220       347
30.230       347
30.240       300
30.250       433
30.260       400
30.270       267
30.280       426
30.290       387
30.300       247
30.310       353
30.320       313
30.330       313
30.340       420
30.350       333
30.360       287
30.370       400
30.380       367
30.390       313
30.400       367
30.410       347
30.420       353
30.430       393
30.440       300
30.450       307
30.460       353
30.470       307
30.480       307
30.490       453
30.500       307
30.510       400
30.520       367
30.530       466
30.540       327
30.550       260
30.560       293
30.570       333
30.580       367
30.590       320
30.600       387
30.610       393
30.620       407
30.630       260
30.640       360
30.650       333
30.660       360
30.670       313
30.680       340
30.690       280
30.700       353
30.710       333
30.720       287
30.730       313
30.740       287
30.750       280
30.760       313
30.770       367
30.780       320
30.790       273
30.800       273
30.810       393
30.820       300
30.830       387
30.840       267
30.850       420
30.860       260
30.870       273
30.880       340
30.890       307
30.900       333
30.910       367
30.920       267
30.930       340
30.940       333
30.950       367
30.960       340
30.970       367
30.980       340
30.990       367
31.000       320
31.010       313
31.020       360
31.030       273
31.040       267
31.050       307
31.060       313
31.070       253
31.080       320
31.090       360
31.100       287
31.110       307
31.120       247
31.130       240
31.140       300
31.150       300
31.160       313
31.170       353
31.180       267
31.190       307
31.200       360
31.210       253
31.220       327
31.230       267
31.240       247
31.250       313
31.260       327
31.270       287
31.280       240
31.290       287
31.300       387
31.310       380
31.320       260
31.330       320
31.340       313
31.350       260
31.360       287
31.370       300
31.380       300
31.390       260
31.400       247
31.410       253
31.420       247
31.430       247
31.440       273
31.450       287
31.460       307
31.470       267
31.480       267
31.490       320
31.500       307
31.510       227
31.520       260
31.530       293
31.540       347
31.550       333
31.560       287
31.570       293
31.580       293
31.590       253
31.600       240
31.610       253
31.620       293
31.630       280
31.640       360
31.650       400
31.660       320
31.670       287
31.680       300
31.690       373
31.700       347
31.710       320
31.720       227
31.730       247
31.740       340
31.750       267
31.760       293
31.770       273
31.780       307
31.790       307
31.800       260
31.810       287
31.820       300
31.830       240
31.840       260
31.850       220
31.860       233
31.870       247
31.880       360
31.890       267
31.900       313
31.910       267
31.920       287
31.930       333
31.940       307
31.950       347
31.960       333
31.970       327
31.980       293
31.990       320
32.000       373
32.010       267
32.020       400
32.030       420
32.040       360
32.050       426
32.060       440
32.070       526
32.080       446
32.090       413
32.100       460
32.110       680
32.120       506
32.130       586
32.140       666
32.150       646
32.160       660
32.170       680
32.180       826
32.190       800
32.200       780
32.210       860
32.220       940
32.230       966
32.240      1093
32.250      1066
32.260      1053
32.270      1046
32.280       993
32.290      1180
32.300      1273
32.310      1193
32.320      1333
32.330      1313
32.340      1153
32.350      1120
32.360      1366
32.370      1180
32.380      1379
32.390      1026
32.400      1153
32.410      1080
32.420      1040
32.430       960
32.440      1013
32.450       893
32.460       873
32.470       853
32.480       920
32.490       820
32.500       760
32.510       680
32.520       653
32.530       560
32.540       500
32.550       526
32.560       480
32.570       520
32.580       293
32.590       353
32.600       460
32.610       387
32.620       353
32.630       347
32.640       347
32.650       340
32.660       313
32.670       307
32.680       273
32.690       260
32.700       273
32.710       240
32.720       373
32.730       347
32.740       233
32.750       380
32.760       353
32.770       233
32.780       347
32.790       293
32.800       247
32.810       280
32.820       340
32.830       313
32.840       267
32.850       287
32.860       247
32.870       220
32.880       260
32.890       200
32.900       253
32.910       207
32.920       207
32.930       207
32.940       287
32.950       220
32.960       233
32.970       240
32.980       253
32.990       267
33.000       273
33.010       207
33.020       247
33.030       180
33.040       213
33.050       300
33.060       247
33.070       180
33.080       187
33.090       240
33.100       220
33.110       220
33.120       140
33.130       300
33.140       267
33.150       193
33.160       180
33.170       200
33.180       227
33.190       220
33.200       207
33.210       180
33.220       233
33.230       200
33.240       227
33.250       220
33.260       247
33.270       160
33.280       247
33.290       227
33.300       247
33.310       213
33.320       240
33.330       260
33.340       280
33.350       187
33.360       273
33.370       213
33.380       187
33.390       167
33.400       293
33.410       220
33.420       233
33.430       227
33.440       267
33.450       167
33.460       173
33.470       167
33.480       193
33.490       193
33.500       160
33.510       213
33.520       187
33.530       200
33.540       227
33.550       160
33.560       247
33.570       167
33.580       167
33.590       213
33.600       220
33.610       127
33.620       220
33.630       153
33.640       233
33.650       247
33.660       180
33.670       180
33.680       133
33.690       193
33.700       173
33.710       173
33.720       207
33.730       140
33.740       240
33.750       187
33.760       180
33.770       127
33.780       160
33.790       187
33.800       220
33.810       213
33.820       173
33.830       160
33.840       207
33.850       187
33.860       133
33.870       167
33.880       187
33.890       153
33.900       207
33.910        87
33.920       147
33.930       200
33.940       127
33.950        93
33.960       200
33.970       133
33.980       240
33.990       247
34.000       100
34.010       187
34.020       193
34.030       247
34.040       160
34.050       167
34.060       193
34.070       187
34.080       233
34.090       253
34.100       247
34.110       193
34.120       213
34.130       153
34.140       113
34.150       193
34.160       180
34.170       200
34.180       213
34.190       187
34.200       180
34.210       140
34.220       227
34.230       220
34.240       173
34.250       133
34.260       200
34.270       187
34.280       173
34.290       107
34.300       227
34.310       207
34.320       207
34.330       140
34.340       220
34.350       160
34.360       127
34.370       180
34.380       160
34.390       180
34.400       133
34.410       180
34.420       113
34.430       133
34.440       207
34.450       173
34.460       167
34.470       200
34.480       220
34.490       167
34.500       167
34.510       173
34.520       153
34.530       127
34.540       160
34.550       160
34.560       127
34.570       187
34.580       167
34.590       187
34.600       167
34.610       127
34.620       227
34.630       133
34.640       180
34.650       200
34.660       160
34.670       113
34.680       187
34.690       200
34.700       127
34.710       147
34.720       247
34.730       153
34.740       100
34.750       187
34.760       120
34.770       200
34.780       153
34.790       133
34.800       133
34.810       120
34.820       193
34.830       133
34.840       133
34.850       160
34.860       120
34.870       153
34.880       127
34.890       147
34.900       180
34.910       233
34.920       147
34.930       113
34.940       133
34.950       113
34.960       180
34.970       173
34.980       180
34.990       193
35.000       193
35.010       200
35.020       173
35.030       187
35.040       227
35.050       187
35.060       140
35.070       173
35.080       173
35.090       100
35.100       167
35.110       160
35.120       153
35.130       160
35.140       120
35.150       187
35.160       113
35.170       173
35.180       153
35.190       140
35.200       153
35.210       133
35.220       227
35.230       127
35.240       127
35.250       207
35.260       140
35.270       113
35.280       127
35.290       160
35.300       153
35.310       207
35.320       107
35.330       147
35.340       147
35.350       153
35.360       153
35.370       153
35.380       193
35.390       133
35.400       173
35.410       153
35.420       167
35.430       160
35.440       180
35.450       113
35.460       240
35.470        80
35.480       107
35.490       147
35.500       147
35.510       140
35.520       167
35.530       153
35.540       173
35.550       153
35.560       120
35.570       140
35.580       140
35.590       173
35.600       133
35.610       180
35.620       140
35.630       107
35.640       180
35.650       113
35.660       100
35.670       127
35.680       120
35.690       147
35.700       153
35.710        93
35.720       113
35.730       160
35.740       113
35.750       100
35.760        93
35.770       113
35.780       133
35.790       160
35.800       140
35.810       153
35.820       160
35.830       120
35.840        87
35.850       153
35.860       207
35.870       127
35.880       107
35.890       147
35.900       113
35.910       120
35.920       120
35.930       120
35.940       160
35.950       187
35.960       107
35.970       133
35.980       147
35.990        60
36.000       147
36.010       160
36.020       120
36.030       107
36.040       120
36.050       107
36.060        73
36.070       160
36.080       107
36.090       167
36.100       100
36.110       160
36.120       127
36.130       147
36.140       160
36.150       140
36.160       180
36.170       153
36.180        80
36.190       153
36.200       127
36.210       113
36.220       107
36.230       127
36.240       120
36.250       140
36.260       160
36.270       147
36.280       127
36.290       167
36.300       133
36.310       127
36.320       153
36.330       107
36.340       100
36.350       140
36.360       147
36.370       120
36.380        93
36.390       100
36.400       120
36.410       173
36.420       107
36.430       127
36.440       127
36.450       127
36.460       140
36.470       107
36.480        73
36.490       113
36.500       153
36.510       140
36.520        93
36.530       120
36.540       113
36.550       173
36.560       147
36.570       153
36.580       113
36.590       127
36.600       140
36.610       127
36.620       140
36.630       140
36.640       127
36.650       120
36.660        60
36.670       127
36.680       113
36.690       100
36.700        73
36.710       147
36.720       167
36.730        80
36.740        73
36.750        87
36.760       160
36.770        80
36.780       133
36.790       153
36.800       153
36.810       127
36.820       100
36.830       127
36.840       133
36.850        80
36.860       113
36.870        87
36.880       120
36.890        47
36.900       120
36.910       127
36.920       107
36.930       120
36.940        93
36.950        93
36.960       127
36.970       133
36.980       113
36.990        93
37.000       140
37.010       113
37.020       120
37.030       107
37.040        87
37.050       140
37.060       107
37.070       100
37.080        73
37.090       120
37.100        73
37.110       113
37.120        93
37.130       100
37.140        80
37.150        60
37.160       120
37.170        93
37.180       113
37.190       127
37.200        47
37.210        67
37.220        80
37.230       120
37.240        87
37.250       120
37.260        93
37.270        80
37.280       153
37.290       100
37.300        73
37.310       133
37.320       107
37.330       140
37.340        93
37.350        87
37.360       147
37.370        73
37.380       127
37.390       120
37.400        93
37.410       140
37.420       100
37.430        73
37.440        87
37.450       100
37.460       107
37.470       160
37.480        80
37.490        87
37.500        60
37.510        33
37.520        80
37.530       113
37.540       113
37.550        67
37.560       140
37.570       120
37.580       107
37.590       120
37.600       133
37.610        80
37.620       120
37.630       127
37.640        93
37.650       140
37.660       113
37.670       133
37.680        67
37.690        87
37.700        80
37.710        73
37.720       133
37.730       140
37.740       147
37.750       100
37.760        93
37.770        73
37.780        87
37.790       113
37.800        73
37.810        73
37.820        87
37.830        80
37.840       107
37.850       113
37.860        60
37.870        73
37.880       113
37.890       153
37.900        80
37.910       107
37.920        47
37.930       100
37.940        47
37.950        87
37.960        87
37.970        67
37.980        87
37.990        93
38.000       100
38.010        87
38.020        73
38.030        67
38.040       127
38.050       100
38.060        53
38.070        93
38.080       100
38.090       100
38.100        60
38.110       107
38.120       153
38.130        60
38.140        60
38.150        67
38.160        87
38.170       127
38.180        60
38.190        53
38.200       133
38.210        53
38.220        60
38.230       113
38.240       113
38.250        93
38.260        67
38.270        67
38.280       107
38.290        87
38.300        87
38.310        87
38.320        80
38.330        87
38.340        53
38.350       140
38.360        93
38.370        60
38.380       120
38.390        87
38.400       107
38.410        80
38.420        67
38.430        80
38.440        40
38.450       120
38.460        93
38.470        73
38.480        93
38.490       107
38.500        93
38.510       127
38.520        73
38.530        60
38.540       107
38.550       120
38.560        47
38.570        73
38.580        80
38.590        67
38.600        87
38.610        87
38.620        80
38.630        73
38.640        80
38.650        67
38.660        67
38.670       100
38.680        67
38.690       127
38.700        53
38.710        93
38.720       140
38.730        93
38.740        73
38.750        93
38.760       133
38.770        87
38.780        53
38.790        80
38.800        87
38.810        60
38.820       107
38.830       100
38.840       120
38.850        80
38.860       120
38.870        73
38.880       100
38.890        80
38.900        53
38.910        40
38.920       133
38.930        73
38.940        60
38.950        53
38.960        67
38.970        67
38.980        67
38.990       100
39.000        60
39.010       113
39.020       100
39.030        53
39.040        13
39.050        93
39.060        53
39.070        87
39.080        67
39.090        67
39.100       113
39.110        67
39.120        73
39.130        80
39.140        80
39.150        33
39.160       100
39.170        73
39.180        47
39.190        33
39.200        27
39.210        73
39.220       100
39.230        73
39.240        93
39.250       100
39.260        87
39.270        67
39.280        53
39.290        53
39.300        20
39.310        80
39.320        80
39.330       113
39.340        67
39.350        80
39.360        73
39.370        93
39.380        40
39.390        80
39.400        47
39.410        87
39.420       100
39.430       127
39.440        80
39.450        87
39.460        80
39.470        80
39.480       100
39.490        40
39.500        93
39.510       100
39.520        87
39.530        87
39.540        47
39.550        40
39.560        73
39.570        93
39.580        60
39.590       113
39.600       120
39.610        53
39.620        93
39.630        80
39.640        80
39.650       113
39.660        80
39.670        73
39.680       140
39.690       107
39.700        87
39.710       100
39.720       133
39.730       180
39.740       113
39.750       107
39.760        87
39.770       120
39.780       100
39.790       173
39.800       147
39.810        93
39.820       200
39.830       180
39.840       133
39.850       133
39.860       220
39.870       260
39.880       287
39.890       273
39.900       227
39.910       227
39.920       273
39.930       320
39.940       253
39.950       200
39.960       267
39.970       233
39.980       253
39.990       260
40.000       300
40.010       200
40.020       167
40.030       233
40.040       220
40.050       153
40.060       207
40.070       213
40.080       173
40.090       147
40.100       193
40.110       140
40.120       173
40.130       140
40.140       113
40.150       107
40.160       120
40.170       133
40.180       120
40.190        80
40.200        87
40.210       113
40.220        67
40.230        93
40.240        80
40.250       107
40.260        87
40.270       100
40.280        87
40.290        60
40.300        60
40.310        80
40.320        93
40.330        53
40.340        80
40.350        73
40.360        67
40.370        80
40.380       113
40.390        80
40.400        93
40.410        80
40.420        27
40.430       107
40.440        53
40.450        87
40.460       100
40.470        80
40.480        87
40.490        53
40.500        87
40.510        73
40.520        87
40.530        80
40.540        73
40.550        67
40.560        93
40.570        40
40.580        53
40.590        67
40.600       100
40.610        60
40.620        67
40.630        47
40.640        67
40.650        60
40.660        60
40.670       120
40.680        33
40.690        67
40.700       100
40.710        60
40.720        73
40.730        33
40.740        67
40.750        87
40.760        87
40.770        47
40.780        67
40.790        73
40.800        67
40.810       113
40.820        40
40.830        40
40.840        73
40.850        60
40.860        87
40.870        93
40.880        80
40.890        60
40.900        67
40.910        67
40.920        33
40.930        60
40.940        40
40.950        73
40.960        67
40.970        33
40.980        67
40.990       113
41.000        53
41.010        87
41.020        73
41.030        40
41.040        40
41.050        20
41.060        67
41.070        87
41.080        53
41.090        33
41.100        53
41.110        47
41.120        73
41.130        80
41.140        80
41.150        93
41.160        67
41.170        53
41.180        53
41.190        93
41.200       107
41.210        87
41.220        27
41.230        33
41.240        40
41.250        20
41.260        60
41.270        60
41.280        40
41.290       100
41.300        67
41.310        60
41.320        33
41.330        67
41.340       100
41.350        33
41.360        33
41.370        20
41.380        60
41.390        13
41.400        60
41.410        87
41.420       100
41.430        73
41.440        73
41.450        60
41.460        53
41.470        67
41.480        60
41.490        60
41.500        60
41.510        27
41.520        47
41.530        67
41.540        60
41.550        40
41.560        80
41.570       100
41.580        47
41.590        80
41.600        60
41.610        33
41.620        80
41.630        93
41.640        47
41.650        47
41.660        40
41.670        80
41.680        53
41.690        67
41.700        40
41.710        33
41.720        67
41.730        47
41.740        60
41.750        87
41.760        87
41.770        73
41.780        53
41.790        80
41.800        53
41.810        60
41.820        67
41.830        60
41.840        47
41.850        40
41.860        60
41.870       100
41.880        73
41.890        60
41.900        27
41.910        80
41.920        47
41.930        13
41.940        60
41.950        47
41.960        67
41.970        60
41.980        53
41.990        53
42.000        53
42.010        67
42.020        80
42.030        33
42.040        47
42.050         7
42.060        27
42.070        67
42.080        80
42.090        73
42.100        40
42.110        73
42.120        20
42.130        47
42.140        53
42.150        73
42.160        27
42.170         7
42.180        73
42.190        67
42.200        53
42.210        73
42.220        67
42.230       100
42.240        27
42.250        40
42.260        53
42.270        27
42.280        87
42.290        67
42.300        47
42.310        27
42.320        80
42.330        40
42.340        27
42.350        87
42.360        80
42.370        40
42.380        47
42.390        33
42.400        67
42.410        40
42.420        87
42.430        27
42.440        53
42.450        33
42.460        20
42.470        47
42.480        67
42.490        20
42.500        40
42.510        67
42.520        60
42.530        60
42.540        40
42.550         7
42.560        40
42.570        60
42.580        27
42.590        53
42.600        80
42.610        53
42.620        53
42.630        40
42.640        60
42.650        60
42.660        53
42.670        87
42.680        73
42.690        40
42.700        73
42.710        40
42.720        33
42.730        27
42.740        33
42.750        33
42.760        53
42.770        67
42.780        53
42.790        80
42.800        87
42.810        53
42.820        27
42.830        40
42.840        40
42.850        60
42.860         7
42.870        40
42.880        73
42.890        67
42.900        53
42.910        47
42.920        27
42.930        27
42.940        40
42.950        80
42.960        40
42.970        80
42.980        53
42.990        73
43.000        73
43.010        40
43.020        67
43.030        27
43.040        60
43.050        47
43.060        33
43.070        47
43.080        40
43.090        40
43.100        47
43.110        53
43.120        27
43.130        60
43.140        53
43.150        53
43.160        67
43.170        33
43.180        60
43.190        53
43.200        40
43.210        47
43.220        47
43.230        60
43.240        13
43.250        27
43.260        80
43.270        53
43.280        73
43.290        47
43.300        73
43.310        47
43.320        93
43.330        53
43.340        53
43.350        27
43.360        20
43.370        47
43.380        53
43.390        53
43.400        40
43.410        27
43.420        33
43.430        20
43.440        27
43.450        80
43.460        33
43.470        33
43.480        33
43.490        27
43.500        53
43.510        60
43.520        60
43.530        40
43.540        47
43.550        33
43.560        47
43.570        20
43.580        53
43.590        60
43.600        33
43.610        73
43.620        53
43.630        47
43.640        27
43.650        60
43.660        47
43.670        20
43.680        60
43.690        27
43.700        87
43.710        60
43.720        67
43.730        67
43.740        40
43.750        40
43.760        40
43.770        53
43.780        47
43.790        60
43.800        47
43.810        13
43.820        40
43.830        33
43.840        60
43.850        67
43.860        67
43.870        47
43.880        53
43.890        60
43.900        73
43.910        53
43.920        53
43.930        60
43.940        53
43.950        33
43.960        47
43.970        60
43.980        27
43.990        40
44.000        33
44.010        33
44.020        27
44.030        13
44.040        33
44.050        33
44.060        60
44.070        53
44.080        47
44.090        47
44.100        87
44.110        87
44.120        27
44.130        40
44.140        33
44.150        87
44.160        27
44.170        47
44.180        40
44.190        47
44.200        47
44.210        40
44.220        40
44.230        67
44.240        60
44.250        67
44.260        40
44.270        53
44.280        27
44.290        53
44.300        60
44.310        20
44.320        33
44.330        20
44.340         7
44.350        40
44.360        53
44.370        40
44.380        47
44.390        33
44.400        47
44.410        47
44.420       100
44.430        40
44.440        27
44.450        20
44.460        33
44.470       127
44.480        53
44.490        40
44.500        67
44.510        47
44.520        53
44.530        47
44.540        27
44.550        53
44.560        80
44.570        40
44.580        53
44.590        73
44.600        33
44.610        20
44.620        40
44.630        47
44.640        20
44.650        47
44.660        67
44.670        20
44.680        53
44.690        27
44.700        80
44.710        93
44.720        27
44.730        40
44.740        33
44.750        53
44.760        67
44.770        47
44.780        60
44.790        33
44.800        67
44.810        40
44.820        73
44.830        53
44.840        47
44.850        40
44.860        67
44.870        93
44.880        87
44.890        33
44.900        60
44.910        93
44.920        80
44.930        67
44.940        47
44.950        67
44.960        47
44.970        33
44.980        53
44.990        67
45.000        53
45.010        73
45.020        40
45.030        73
45.040        33
45.050        33
45.060        33
45.070        67
45.080        60
45.090        40
45.100        73
45.110        80
45.120        20
45.130        53
45.140        40
45.150        47
45.160        80
45.170        20
45.180        33
45.190        73
45.200        47
45.210       127
45.220        47
45.230        60
45.240        80
45.250        87
45.260        53
45.270       107
45.280        47
45.290        60
45.300       133
45.310       113
45.320        67
45.330        60
45.340        67
45.350        93
45.360        67
45.370        73
45.380        47
45.390        93
45.400        67
45.410        60
45.420        80
45.430        73
45.440        60
45.450        73
45.460        67
45.470        80
45.480        60
45.490        87
45.500        47
45.510       127
45.520        87
45.530       113
45.540       100
45.550        67
45.560       113
45.570        93
45.580       107
45.590       113
45.600       120
45.610        93
45.620        53
45.630       127
45.640        60
45.650       100
45.660       113
45.670        93
45.680       153
45.690        93
45.700       153
45.710       153
45.720       173
45.730       113
45.740       100
45.750       200
45.760       127
45.770       120
45.780       147
45.790       213
45.800       120
45.810       180
45.820       113
45.830       120
45.840       180
45.850       160
45.860       273
45.870       267
45.880       200
45.890       180
45.900       207
45.910       287
45.920       227
45.930       313
45.940       247
45.950       267
45.960       287
45.970       273
45.980       280
45.990       353
46.000       407
46.010       307
46.020       320
46.030       387
46.040       407
46.050       446
46.060       453
46.070       533
46.080       466
46.090       533
46.100       526
46.110       593
46.120       526
46.130       693
46.140       660
46.150       686
46.160       693
46.170       720
46.180       800
46.190       806
46.200       886
46.210      1006
46.220       966
46.230      1033
46.240       960
46.250      1160
46.260      1106
46.270      1393
46.280      1399
46.290      1359
46.300      1306
46.310      1426
46.320      1386
46.330      1513
46.340      1586
46.350      1599
46.360      1493
46.370      1486
46.380      1399
46.390      1413
46.400      1539
46.410      1653
46.420      1559
46.430      1593
46.440      1606
46.450      1559
46.460      1626
46.470      1499
46.480      1499
46.490      1453
46.500      1366
46.510      1299
46.520      1240
46.530      1406
46.540      1259
46.550      1286
46.560      1293
46.570      1313
46.580       893
46.590       913
46.600       986
46.610       880
46.620       886
46.630       880
46.640       720
46.650       806
46.660       886
46.670       766
46.680       640
46.690       673
46.700       706
46.710       573
46.720       446
46.730       560
46.740       586
46.750       526
46.760       407
46.770       466
46.780       353
46.790       327
46.800       480
46.810       360
46.820       313
46.830       313
46.840       300
46.850       253
46.860       293
46.870       313
46.880       300
46.890       247
46.900       227
46.910       267
46.920       247
46.930       267
46.940       220
46.950       227
46.960       260
46.970       213
46.980       293
46.990       253
47.000       227
47.010       260
47.020       253
47.030       240
47.040       220
47.050       307
47.060       353
47.070       367
47.080       333
47.090       453
47.100       620
47.110       893
47.120      1153
47.130      1493
47.140      1659
47.150      1999
47.160      1993
47.170      2172
47.180      2159
47.190      1833
47.200      1539
47.210      1240
47.220       973
47.230       806
47.240       573
47.250       400
47.260       460
47.270       313
47.280       233
47.290       253
47.300       233
47.310       313
47.320       280
47.330       300
47.340       233
47.350       140
47.360       120
47.370       167
47.380       140
47.390       127
47.400       193
47.410       140
47.420       113
47.430       140
47.440       127
47.450        53
47.460       100
47.470       113
47.480        80
47.490       100
47.500        87
47.510        87
47.520       127
47.530        47
47.540        93
47.550        73
47.560       133
47.570       127
47.580       127
47.590       100
47.600        73
47.610       100
47.620       100
47.630       107
47.640        60
47.650       113
47.660        87
47.670        93
47.680       100
47.690       160
47.700       100
47.710        80
47.720       113
47.730        60
47.740       120
47.750       100
47.760       120
47.770        80
47.780       133
47.790        67
47.800        47
47.810        93
47.820       100
47.830       107
47.840        87
47.850        40
47.860        60
47.870        47
47.880        60
47.890       100
47.900        67
47.910        53
47.920       127
47.930        87
47.940        33
47.950        67
47.960       107
47.970       107
47.980       100
47.990        33
48.000        87
48.010        47
48.020        53
48.030        60
48.040        53
48.050        80
48.060        67
48.070       107
48.080        80
48.090        47
48.100        73
48.110        47
48.120        73
48.130       100
48.140       113
48.150       107
48.160        60
48.170        73
48.180        60
48.190        53
48.200        60
48.210        40
48.220        93
48.230        60
48.240        73
48.250        87
48.260        53
48.270        40
48.280        53
48.290        47
48.300        87
48.310        47
48.320        60
48.330        33
48.340        93
48.350        80
48.360       100
48.370        53
48.380        80
48.390        80
48.400        80
48.410        40
48.420        60
48.430        93
48.440        60
48.450        73
48.460        93
48.470        47
48.480        27
48.490        40
48.500        33
48.510        47
48.520        53
48.530        73
48.540        93
48.550        73
48.560        40
48.570        53
48.580        27
48.590        40
48.600        53
48.610        80
48.620        53
48.630        60
48.640        40
48.650        47
48.660        73
48.670        47
48.680        80
48.690        27
48.700        40
48.710        67
48.720        80
48.730        93
48.740        33
48.750        60
48.760        60
48.770        53
48.780        20
48.790        80
48.800        20
48.810        47
48.820        53
48.830        40
48.840        67
48.850        40
48.860        33
48.870        40
48.880        93
48.890        67
48.900        27
48.910        47
48.920        33
48.930        33
48.940        47
48.950        40
48.960        53
48.970        60
48.980        47
48.990        73
49.000        33
49.010        47
49.020        53
49.030        53
49.040        47
49.050        53
49.060        27
49.070        27
49.080        47
49.090        40
49.100        73
49.110        80
49.120        53
49.130        40
49.140        73
49.150        47
49.160        80
49.170        27
49.180        33
49.190        53
49.200        33
49.210        80
49.220        47
49.230        53
49.240        93
49.250        53
49.260        33
49.270        53
49.280        40
49.290        40
49.300        60
49.310        47
49.320        53
49.330        47
49.340        33
49.350        47
49.360        33
49.370        53
49.380        67
49.390        60
49.400        60
49.410        73
49.420        27
49.430        67
49.440        27
49.450        53
49.460        93
49.470        67
49.480        53
49.490        47
49.500        60
49.510       107
49.520        53
49.530        47
49.540        53
49.550        53
49.560        47
49.570        53
49.580        27
49.590        40
49.600        87
49.610        47
49.620        60
49.630        47
49.640        13
49.650        53
49.660        33
49.670        53
49.680        73
49.690        67
49.700        40
49.710        87
49.720        53
49.730        40
49.740         7
49.750        60
49.760        40
49.770        47
49.780        60
49.790        27
49.800        13
49.810        47
49.820        40
49.830        27
49.840        33
49.850        60
49.860        53
49.870        60
49.880        33
49.890       107
49.900        67
49.910         7
49.920        53
49.930        40
49.940        87
49.950        13
49.960        87
49.970        80
49.980        73
49.990        27
50.000        73
50.010        47
50.020        40
50.030        33
50.040        47
50.050        60
50.060        53
50.070        60
50.080        53
50.090        53
50.100        80
50.110        80
50.120        53
50.130        40
50.140        60
50.150        67
50.160        47
50.170        80
50.180        53
50.190        80
50.200        33
50.210        47
50.220        33
50.230        80
50.240        27
50.250        40
50.260        80
50.270        33
50.280        60
50.290        40
50.300        53
50.310        53
50.320        27
50.330        20
50.340        53
50.350        67
50.360        60
50.370        33
50.380        33
50.390        40
50.400        33
50.410        27
50.420        53
50.430        60
50.440        60
50.450        67
50.460        87
50.470        87
50.480        53
50.490        27
50.500        73
50.510        47
50.520        67
50.530        67
50.540        73
50.550        53
50.560        60
50.570        80
50.580        73
50.590        67
50.600        73
50.610       153
50.620       113
50.630       227
50.640       193
50.650       287
50.660       300
50.670       420
50.680       360
50.690       380
50.700       413
50.710       486
50.720       466
50.730       580
50.740       500
50.750       506
50.760       533
50.770       420
50.780       393
50.790       473
50.800       466
50.810       493
50.820       566
50.830       613
50.840       620
50.850       533
50.860       486
50.870       640
50.880       540
50.890       506
50.900       560
50.910       546
50.920       540
50.930       533
50.940       566
50.950       500
50.960       560
50.970       633
50.980       560
50.990       646
51.000       506
51.010       480
51.020       513
51.030       553
51.040       440
51.050       566
51.060       440
51.070       486
51.080       540
51.090       446
51.100       546
51.110       613
51.120       486
51.130       540
51.140       506
51.150       560
51.160       546
51.170       520
51.180       420
51.190       620
51.200       546
51.210       566
51.220       500
51.230       407
51.240       473
51.250       606
51.260       606
51.270       626
51.280       493
51.290       653
51.300       600
51.310       593
51.320       513
51.330       500
51.340       513
51.350       500
51.360       533
51.370       533
51.380       640
51.390       580
51.400       600
51.410       593
51.420       553
51.430       466
51.440       540
51.450       593
51.460       640
51.470       453
51.480       506
51.490       640
51.500       573
51.510       573
51.520       593
51.530       500
51.540       480
51.550       600
51.560       546
51.570       520
51.580       560
51.590       460
51.600       560
51.610       613
51.620       540
51.630       566
51.640       473
51.650       620
51.660       620
51.670       586
51.680       760
51.690       640
51.700       626
51.710       640
51.720       640
51.730       580
51.740       526
51.750       620
51.760       633
51.770       613
51.780       800
51.790       640
51.800       600
51.810       540
51.820       540
51.830       626
51.840       626
51.850       640
51.860       566
51.870       640
51.880       693
51.890       560
51.900       573
51.910       666
51.920       593
51.930       653
51.940       806
51.950       740
51.960       766
51.970       693
51.980       653
51.990       760
52.000       886
52.010       800
52.020       886
52.030       826
52.040       713
52.050       760
52.060       853
52.070       933
52.080      1046
52.090       886
52.100       913
52.110       833
52.120      1133
52.130       980
52.140      1000
52.150      1046
52.160      1146
52.170      1100
52.180       966
52.190      1226
52.200      1106
52.210      1253
52.220      1333
52.230      1506
52.240      1813
52.250      1693
52.260      2086
52.270      2379
52.280      2559
52.290      2706
52.300      3125
52.310      3359
52.320      3519
52.330      3985
52.340      4072
52.350      4245
52.360      4558
52.370      4645
52.380      4818
52.390      4705
52.400      5291
52.410      5811
52.420      6098
52.430      7830
52.440      9343
52.450     10602
52.460     13101
52.470     16393
52.480     20712
52.490     25616
52.500     34293
52.510     47554
52.520     71605
52.530    102692
52.540    138245
52.550    166094
52.560    188824
52.570    201186
52.580    203952
52.590    200966
52.600    185766
52.610    160629
52.620    129648
52.630     98860
52.640     75696
52.650     63128
52.660     61655
52.670     72924
52.680     88351
52.690    104085
52.700    116587
52.710    124390
52.720    127336
52.730    124057
52.740    112961
52.750     94622
52.760     74124
52.770     54218
52.780     38944
52.790     25956
52.800     18699
52.810     14981
52.820     12622
52.830     11762
52.840     10149
52.850      8843
52.860      7550
52.870      7130
52.880      6011
52.890      4998
52.900      4292
52.910      3452
52.920      3039
52.930      2652
52.940      2266
52.950      2326
52.960      2326
52.970      1813
52.980      1993
52.990      1739
53.000      1833
53.010      1593
53.020      1533
53.030      1526
53.040      1273
53.050      1333
53.060      1233
53.070      1386
53.080      1153
53.090      1093
53.100      1106
53.110      1133
53.120      1126
53.130      1113
53.140      1160
53.150       920
53.160       966
53.170       940
53.180       860
53.190       960
53.200      1000
53.210       893
53.220       940
53.230       973
53.240       800
53.250       786
53.260       833
53.270       840
53.280       726
53.290       800
53.300       633
53.310       780
53.320       866
53.330       780
53.340       806
53.350       766
53.360       793
53.370       720
53.380       673
53.390       766
53.400       600
53.410       626
53.420       680
53.430       626
53.440       826
53.450       646
53.460       706
53.470       620
53.480       573
53.490       666
53.500       686
53.510       653
53.520       493
53.530       620
53.540       540
53.550       693
53.560       493
53.570       580
53.580       513
53.590       580
53.600       673
53.610       593
53.620       500
53.630       560
53.640       533
53.650       566
53.660       560
53.670       433
53.680       593
53.690       446
53.700       526
53.710       500
53.720       573
53.730       566
53.740       407
53.750       367
53.760       500
53.770       500
53.780       586
53.790       580
53.800       420
53.810       493
53.820       466
53.830       480
53.840       426
53.850       446
53.860       400
53.870       400
53.880       540
53.890       500
53.900       360
53.910       460
53.920       353
53.930       500
53.940       400
53.950       453
53.960       453
53.970       413
53.980       393
53.990       413
54.000       446
54.010       453
54.020       453
54.030       426
54.040       466
54.050       473
54.060       480
54.070       407
54.080       387
54.090       420
54.100       413
54.110       340
54.120       373
54.130       333
54.140       480
54.150       393
54.160       553
54.170       540
54.180       360
54.190       387
54.200       347
54.210       353
54.220       360
54.230       413
54.240       360
54.250       433
54.260       407
54.270       420
54.280       387
54.290       407
54.300       380
54.310       373
54.320       400
54.330       407
54.340       400
54.350       460
54.360       353
54.370       466
54.380       360
54.390       320
54.400       407
54.410       460
54.420       327
54.430       360
54.440       407
54.450       293
54.460       446
54.470       426
54.480       267
54.490       347
54.500       307
54.510       400
54.520       333
54.530       280
54.540       413
54.550       320
54.560       360
54.570       313
54.580       307
54.590       387
54.600       333
54.610       387
54.620       340
54.630       360
54.640       413
54.650       260
54.660       300
54.670       353
54.680       313
54.690       420
54.700       273
54.710       327
54.720       260
54.730       393
54.740       233
54.750       253
54.760       227
54.770       307
54.780       333
54.790       347
54.800       347
54.810       360
54.820       273
54.830       300
54.840       333
54.850       393
54.860       373
54.870       373
54.880       340
54.890       407
54.900       300
54.910       267
54.920       333
54.930       446
54.940       373
54.950       373
54.960       313
54.970       353
54.980       300
54.990       287
55.000       340
55.010       340
55.020       367
55.030       380
55.040       367
55.050       320
55.060       267
55.070       367
55.080       353
55.090       307
55.100       367
55.110       333
55.120       313
55.130       313
55.140       280
55.150       293
55.160       253
55.170       260
55.180       360
55.190       287
55.200       333
55.210       267
55.220       273
55.230       333
55.240       253
55.250       293
55.260       307
55.270       227
55.280       393
55.290       313
55.300       280
55.310       313
55.320       187
55.330       340
55.340       293
55.350       253
55.360       313
55.370       307
55.380       300
55.390       307
55.400       327
55.410       280
55.420       280
55.430       300
55.440       300
55.450       320
55.460       247
55.470       260
55.480       353
55.490       273
55.500       280
55.510       320
55.520       240
55.530       233
55.540       280
55.550       280
55.560       273
55.570       313
55.580       313
55.590       207
55.600       340
55.610       293
55.620       240
55.630       267
55.640       267
55.650       260
55.660       307
55.670       267
55.680       393
55.690       293
55.700       367
55.710       260
55.720       347
55.730       280
55.740       293
55.750       293
55.760       293
55.770       280
55.780       273
55.790       280
55.800       300
55.810       353
55.820       300
55.830       247
55.840       280
55.850       280
55.860       287
55.870       207
55.880       287
55.890       267
55.900       340
55.910       293
55.920       287
55.930       287
55.940       313
55.950       260
55.960       327
55.970       273
55.980       260
55.990       153
56.000       340
56.010       327
56.020       260
56.030       267
56.040       307
56.050       293
56.060       287
56.070       240
56.080       233
56.090       227
56.100       300
56.110       287
56.120       333
56.130       253
56.140       240
56.150       260
56.160       267
56.170       233
56.180       260
56.190       287
56.200       300
56.210       260
56.220       247
56.230       333
56.240       253
56.250       213
56.260       200
56.270       253
56.280       187
56.290       293
56.300       220
56.310       280
56.320       260
56.330       220
56.340       220
56.350       347
56.360       333
56.370       280
56.380       187
56.390       233
56.400       353
56.410       220
56.420       287
56.430       213
56.440       220
56.450       193
56.460       227
56.470       293
56.480       160
56.490       340
56.500       247
56.510       240
56.520       260
56.530       233
56.540       340
56.550       240
56.560       240
56.570       267
56.580       220
56.590       253
56.600       187
56.610       233
56.620       253
56.630       153
56.640       273
56.650       227
56.660       213
56.670       220
56.680       260
56.690       273
56.700       220
56.710       233
56.720       180
56.730       287
56.740       273
56.750       220
56.760       200
56.770       233
56.780       233
56.790       267
56.800       267
56.810       247
56.820       240
56.830       180
56.840       240
56.850       193
56.860       260
56.870       213
56.880       240
56.890       227
56.900       200
56.910       187
56.920       133
56.930       220
56.940       160
56.950       213
56.960       187
56.970       207
56.980       187
56.990       273
57.000       200
57.010       180
57.020       220
57.030       167
57.040       193
57.050       200
57.060       253
57.070       180
57.080       260
57.090       187
57.100       267
57.110        87
57.120       240
57.130       213
57.140       260
57.150       200
57.160       180
57.170       207
57.180       193
57.190       193
57.200       247
57.210       193
57.220       220
57.230       240
57.240       167
57.250       180
57.260       220
57.270       193
57.280       267
57.290       180
57.300       260
57.310       207
57.320       240
57.330       227
57.340       173
57.350       187
57.360       213
57.370       240
57.380       240
57.390       200
57.400       287
57.410       267
57.420       247
57.430       193
57.440       187
57.450       180
57.460       180
57.470       200
57.480       200
57.490       247
57.500       227
57.510       227
57.520       200
57.530       213
57.540       247
57.550       200
57.560       207
57.570       133
57.580       233
57.590       247
57.600       233
57.610       220
57.620       260
57.630       187
57.640       227
57.650       227
57.660       280
57.670       267
57.680       233
57.690       233
57.700       293
57.710       307
57.720       253
57.730       213
57.740       253
57.750       253
57.760       153
57.770       227
57.780       233
57.790       260
57.800       260
57.810       253
57.820       220
57.830       307
57.840       247
57.850       167
57.860       253
57.870       207
57.880       293
57.890       207
57.900       267
57.910       213
57.920       247
57.930       187
57.940       293
57.950       127
57.960       260
57.970       267
57.980       207
57.990       280
58.000       253
58.010       287
58.020       227
58.030       187
58.040       240
58.050       260
58.060       260
58.070       260
58.080       187
58.090       180
58.100       253
58.110       187
58.120       260
58.130       173
58.140       233
58.150       213
58.160       180
58.170       127
58.180       180
58.190       213
58.200       267
58.210       187
58.220       200
58.230       180
58.240       167
58.250       200
58.260       180
58.270       187
58.280       167
58.290       200
58.300       167
58.310       220
58.320       213
58.330       227
58.340       147
58.350       273
58.360       280
58.370       213
58.380       220
58.390       220
58.400       187
58.410       160
58.420       213
58.430       207
58.440       220
58.450       167
58.460       240
58.470       213
58.480       187
58.490       200
58.500       260
58.510       173
58.520       247
58.530       173
58.540       200
58.550       200
58.560       273
58.570       133
58.580       207
58.590       220
58.600       187
58.610       200
58.620       140
58.630       213
58.640       173
58.650       193
58.660       153
58.670       180
58.680       167
58.690       147
58.700       147
58.710       120
58.720       220
58.730       200
58.740       173
58.750       153
58.760       147
58.770       207
58.780       193
58.790       260
58.800       200
58.810       167
58.820       193
58.830       173
58.840       207
58.850       187
58.860       173
58.870       187
58.880       180
58.890       160
58.900       160
58.910       160
58.920       187
58.930       133
58.940       160
58.950       193
58.960       147
58.970       153
58.980       193
58.990       220
59.000       173
59.010       153
59.020       207
59.030       167
59.040       107
59.050       213
59.060       180
59.070       140
59.080       213
59.090       180
59.100       147
59.110       153
59.120       227
59.130       213
59.140       147
59.150       160
59.160       187
59.170       153
59.180       160
59.190       107
59.200       233
59.210       213
59.220       167
59.230       167
59.240       207
59.250       167
59.260       167
59.270        87
59.280       120
59.290       147
59.300       127
59.310       160
59.320       147
59.330       167
59.340       167
59.350       167
59.360       127
59.370       133
59.380       213
59.390       113
59.400       147
59.410       167
59.420       173
59.430       167
59.440       153
59.450       187
59.460       113
59.470       113
59.480       160
59.490       140
59.500       173
59.510       140
59.520       153
59.530       187
59.540       220
59.550       133
59.560        87
59.570       180
59.580       213
59.590       147
59.600       147
59.610       133
59.620       140
59.630       173
59.640       140
59.650       167
59.660        87
59.670       153
59.680       127
59.690       153
59.700       187
59.710       147
59.720       133
59.730        87
59.740       173
59.750       140
59.760       147
59.770       187
59.780       187
59.790       153
59.800       193
59.810       200
59.820       187
59.830       147
59.840       153
59.850       173
59.860       153
59.870       200
59.880       160
59.890       220
59.900       220
59.910       107
59.920       187
59.930       180
59.940       133
59.950       200
59.960       160
59.970        73
59.980       133
59.990       113
60.000       113
