20.000        60
20.010        27
20.020        80
20.030        47
20.040        73
20.050        53
20.060        53
20.070        47
20.080        67
20.090        47
20.100       100
20.110        47
20.120        67
20.130        47
20.140        60
20.150        53
20.160        73
20.170        47
20.180        53
20.190        27
20.200        67
20.210        47
20.220        87
20.230        33
20.240        73
20.250        40
20.260        73
20.270        13
20.280        13
20.290        20
20.300        60
20.310        67
20.320        73
20.330        27
20.340        67
20.350        27
20.360        60
20.370        47
20.380       100
20.390        20
20.400        40
20.410        53
20.420        20
20.430        53
20.440        27
20.450        33
20.460        40
20.470        27
20.480        47
20.490        53
20.500        60
20.510        73
20.520        47
20.530        47
20.540        47
20.550        33
20.560        27
20.570        40
20.580        60
20.590        13
20.600        67
20.610        20
20.620        20
20.630        60
20.640        73
20.650         7
20.660        53
20.670        33
20.680        53
20.690        33
20.700        33
20.710        13
20.720        40
20.730        53
20.740        27
20.750        53
20.760        33
20.770        67
20.780        27
20.790        27
20.800        20
20.810        60
20.820        27
20.830        73
20.840        40
20.850        33
20.860        60
20.870        80
20.880        53
20.890        47
20.900        67
20.910        47
20.920        40
20.930        33
20.940        53
20.950        27
20.960        47
20.970        60
20.980        53
20.990        47
21.000        47
21.010        27
21.020        67
21.030        53
21.040        20
21.050        53
21.060        47
21.070        20
21.080        60
21.090        33
21.100        47
21.110        20
21.120        60
21.130        33
21.140        27
21.150        27
21.160        40
21.170        67
21.180        47
21.190        33
21.200        33
21.210        80
21.220        47
21.230        33
21.240        60
21.250        27
21.260        33
21.270        47
21.280        60
21.290        27
21.300        20
21.310        47
21.320        80
21.330        27
21.340        47
21.350        47
21.360        47
21.370        33
21.380        40
21.390        27
21.400        53
21.410        93
21.420        47
21.430        20
21.440        73
21.450        80
21.460        47
21.470        33
21.480        27
21.490        47
21.500        60
21.510        73
21.520        53
21.530        33
21.540        13
21.550        60
21.560        33
21.570        20
21.580        33
21.590        13
21.600        33
21.610        47
21.620        73
21.630        27
21.640        67
21.650        40
21.660        60
21.670        53
21.680        60
21.690        33
21.700        40
21.710        47
21.720        27
21.730        53
21.740        80
21.750        47
21.760        40
21.770        13
21.780        73
21.790        33
21.800        40
21.810        53
21.820        47
21.830        40
21.840        27
21.850        47
21.860        13
21.870        47
21.880        60
21.890        53
21.900        67
21.910       100
21.920        47
21.930        60
21.940        67
21.950        47
21.960        60
21.970        33
21.980        27
21.990        20
22.000        47
22.010        40
22.020        33
22.030        67
22.040        73
22.050        33
22.060        40
22.070        20
22.080        53
22.090        53
22.100        47
22.110        47
22.120        47
22.130        60
22.140        40
22.150        47
22.160        60
22.170        67
22.180        20
22.190        53
22.200        47
22.210        33
22.220        40
22.230        53
22.240        47
22.250        27
22.260        40
22.270        33
22.280        47
22.290        27
22.300        60
22.310        33
22.320        93
22.330        87
22.340        53
22.350        80
22.360       107
22.370        67
22.380        87
22.390       140
22.400        60
22.410       100
22.420        73
22.430        93
22.440       100
22.450       127
22.460       127
22.470       160
22.480       107
22.490       133
22.500       180
22.510       173
22.520       200
22.530       240
22.540       160
22.550       247
22.560       213
22.570       300
22.580       287
22.590       273
22.600       273
22.610       267
22.620       233
22.630       307
22.640       207
22.650       207
22.660       233
22.670       233
22.680       140
22.690       147
22.700       153
22.710       133
22.720       120
22.730       100
22.740       100
22.750        67
22.760       113
22.770        60
22.780        53
22.790        73
22.800        80
22.810        73
22.820        60
22.830        40
22.840        47
22.850        93
22.860        93
22.870        73
22.880        67
22.890       127
22.900        60
22.910        87
22.920        47
22.930        73
22.940        80
22.950        40
22.960        20
22.970        67
22.980        73
22.990       113
23.000        80
23.010        67
23.020        67
23.030        40
23.040        73
23.050        47
23.060        80
23.070        93
23.080        53
23.090        53
23.100        67
23.110        53
23.120        93
23.130        40
23.140        40
23.150        67
23.160        93
23.170        53
23.180        67
23.190        27
23.200        60
23.210       107
23.220        53
23.230        67
23.240        60
23.250        60
23.260       113
23.270        87
23.280         7
23.290        67
23.300        47
23.310        33
23.320        40
23.330        47
23.340        40
23.350        87
23.360        33
23.370        33
23.380        40
23.390        67
23.400        40
23.410        47
23.420        53
23.430        40
23.440        67
23.450        47
23.460        60
23.470        60
23.480        47
23.490        80
23.500        53
23.510        33
23.520        67
23.530        53
23.540        60
23.550        53
23.560        67
23.570        40
23.580        87
23.590        73
23.600        60
23.610        67
23.620        60
23.630        33
23.640        67
23.650        73
23.660        67
23.670        93
23.680        87
23.690        93
23.700        80
23.710        80
23.720        60
23.730        47
23.740        27
23.750        33
23.760        67
23.770        47
23.780        53
23.790        80
23.800        87
23.810        73
23.820        53
23.830        53
23.840        47
23.850        73
23.860       100
23.870        27
23.880        60
23.890        60
23.900        40
23.910        87
23.920        33
23.930        40
23.940        67
23.950        60
23.960        33
23.970       100
23.980        60
23.990        47
24.000        53
24.010        87
24.020        93
24.030        60
24.040        27
24.050        33
24.060        27
24.070        47
24.080        53
24.090        60
24.100        33
24.110        60
24.120        73
24.130        67
24.140        67
24.150        40
24.160        67
24.170        60
24.180        73
24.190        73
24.200        73
24.210        60
24.220        33
24.230        60
24.240        60
24.250        27
24.260        80
24.270        60
24.280        47
24.290        53
24.300        40
24.310        67
24.320        40
24.330        27
24.340        53
24.350        67
24.360        53
24.370        80
24.380        67
24.390        20
24.400        33
24.410        67
24.420        87
24.430        87
24.440        53
24.450        53
24.460        47
24.470        40
24.480        47
24.490        73
24.500        53
24.510        73
24.520       120
24.530        80
24.540        47
24.550        47
24.560        73
24.570        80
24.580        47
24.590        87
24.600        67
24.610        80
24.620        60
24.630        67
24.640        60
24.650        53
24.660        33
24.670       100
24.680        80
24.690        47
24.700        87
24.710        80
24.720        80
24.730       127
24.740        53
24.750        67
24.760       140
24.770        93
24.780        67
24.790        60
24.800        87
24.810        60
24.820       107
24.830       100
24.840        93
24.850       120
24.860        60
24.870        87
24.880        93
24.890        60
24.900       120
24.910        80
24.920        60
24.930       113
24.940        73
24.950       100
24.960        73
24.970        80
24.980        73
24.990        80
25.000       113
25.010        67
25.020       140
25.030       100
25.040       113
25.050        67
25.060       100
25.070        80
25.080       100
25.090        87
25.100       140
25.110        60
25.120        93
25.130       120
25.140        73
25.150       120
25.160       100
25.170       107
25.180       107
25.190       113
25.200       147
25.210       153
25.220       100
25.230       107
25.240       200
25.250       140
25.260       180
25.270       207
25.280       300
25.290       307
25.300       506
25.310       706
25.320      1033
25.330      1106
25.340      1259
25.350      1679
25.360      1946
25.370      2492
25.380      2766
25.390      3105
25.400      3692
25.410      4005
25.420      3758
25.430      4205
25.440      3972
25.450      4005
25.460      3838
25.470      3778
25.480      3539
25.490      3265
25.500      3019
25.510      2872
25.520      2992
25.530      2786
25.540      3099
25.550      3665
25.560      3699
25.570      4065
25.580      4405
25.590      4365
25.600      4851
25.610      4538
25.620      3985
25.630      3905
25.640      3205
25.650      3132
25.660      2839
25.670      2379
25.680      2053
25.690      1906
25.700      1446
25.710      1213
25.720      1080
25.730       960
25.740       840
25.750       820
25.760       853
25.770       800
25.780       726
25.790       740
25.800       726
25.810       686
25.820       653
25.830       586
25.840       673
25.850       566
25.860       500
25.870       500
25.880       320
25.890       433
25.900       407
25.910       340
25.920       180
25.930       213
25.940       200
25.950       240
25.960       240
25.970       120
25.980       180
25.990       133
26.000        87
26.010       140
26.020        87
26.030       127
26.040       133
26.050       140
26.060       120
26.070       120
26.080        93
26.090        67
26.100        60
26.110       120
26.120        87
26.130       100
26.140        93
26.150       160
26.160       113
26.170        60
26.180        93
26.190       113
26.200       133
26.210        80
26.220        93
26.230        80
26.240       107
26.250       120
26.260       153
26.270       100
26.280        60
26.290       100
26.300       113
26.310        47
26.320        93
26.330        60
26.340        87
26.350       100
26.360        80
26.370       120
26.380        53
26.390       127
26.400        80
26.410        93
26.420       133
26.430       107
26.440        67
26.450        80
26.460       113
26.470       107
26.480        60
26.490        87
26.500       127
26.510        67
26.520        60
26.530        87
26.540       113
26.550        67
26.560        80
26.570       100
26.580        73
26.590       133
26.600        47
26.610        80
26.620       120
26.630       120
26.640       107
26.650        87
26.660       120
26.670       133
26.680       100
26.690        80
26.700       113
26.710        87
26.720       127
26.730        67
26.740        73
26.750        33
26.760        80
26.770       120
26.780        80
26.790        87
26.800        53
26.810        80
26.820        93
26.830        93
26.840       167
26.850        87
26.860       127
26.870        33
26.880       100
26.890        40
26.900       107
26.910        67
26.920       120
26.930        93
26.940       133
26.950        73
26.960        67
26.970        87
26.980        53
26.990        73
27.000       107
27.010       113
27.020       100
27.030        87
27.040        60
27.050        80
27.060        67
27.070        60
27.080        93
27.090       100
27.100       100
27.110        60
27.120        87
27.130       107
27.140        87
27.150        40
27.160       107
27.170        80
27.180        87
27.190        73
27.200        73
27.210       107
27.220       113
27.230       140
27.240       107
27.250       100
27.260        93
27.270       107
27.280        87
27.290        93
27.300       100
27.310        93
27.320        60
27.330        93
27.340        87
27.350       120
27.360        80
27.370       100
27.380        93
27.390        67
27.400        67
27.410        67
27.420       120
27.430        53
27.440       120
27.450        93
27.460        53
27.470        47
27.480        73
27.490        40
27.500        53
27.510        80
27.520        67
27.530        73
27.540        73
27.550        93
27.560        87
27.570       120
27.580       140
27.590        53
27.600        87
27.610       133
27.620        80
27.630        93
27.640        80
27.650       100
27.660        93
27.670        93
27.680        93
27.690       107
27.700        73
27.710       133
27.720       133
27.730        53
27.740        87
27.750       120
27.760        80
27.770       120
27.780       140
27.790        73
27.800       107
27.810        73
27.820       120
27.830        67
27.840        87
27.850        67
27.860        93
27.870       107
27.880        53
27.890       147
27.900        73
27.910        73
27.920       107
27.930       107
27.940       100
27.950       100
27.960        67
27.970       113
27.980        87
27.990       107
28.000       107
28.010       120
28.020        53
28.030        87
28.040        80
28.050       127
28.060        73
28.070       133
28.080       113
28.090        80
28.100        80
28.110        93
28.120        80
28.130        87
28.140        87
28.150       100
28.160       113
28.170       133
28.180       107
28.190       127
28.200       107
28.210        73
28.220        93
28.230        73
28.240       147
28.250       147
28.260        53
28.270        93
28.280        93
28.290       100
28.300       107
28.310       100
28.320       120
28.330        93
28.340        73
28.350        87
28.360        73
28.370        60
28.380        47
28.390       120
28.400        93
28.410        93
28.420        53
28.430        60
28.440       153
28.450       107
28.460       120
28.470        80
28.480       127
28.490       127
28.500       107
28.510       147
28.520       100
28.530       133
28.540       100
28.550       127
28.560       113
28.570       120
28.580       127
28.590       167
28.600       140
28.610       113
28.620       200
28.630       133
28.640       140
28.650       167
28.660       280
28.670       173
28.680       193
28.690       220
28.700       240
28.710       240
28.720       213
28.730       273
28.740       227
28.750       207
28.760       180
28.770       193
28.780       193
28.790       167
28.800       147
28.810       180
28.820       147
28.830        93
28.840       140
28.850       180
28.860       133
28.870       120
28.880       140
28.890       133
28.900       127
28.910       120
28.920       140
28.930       127
28.940       127
28.950       107
28.960       100
28.970       173
28.980       140
28.990       160
29.000       113
29.010       140
29.020       127
29.030       147
29.040       133
29.050       173
29.060       173
29.070       140
29.080       160
29.090        93
29.100       140
29.110        87
29.120       107
29.130       127
29.140        73
29.150       120
29.160       107
29.170       113
29.180       133
29.190        87
29.200       133
29.210       113
29.220       133
29.230       127
29.240       120
29.250       153
29.260       127
29.270       147
29.280        93
29.290       153
29.300       120
29.310       153
29.320       147
29.330       187
29.340       187
29.350       100
29.360       167
29.370       193
29.380       193
29.390       200
29.400       233
29.410       287
29.420       307
29.430       260
29.440       253
29.450       393
29.460       347
29.470       500
29.480       553
29.490       526
29.500       626
29.510       553
29.520       753
29.530       833
29.540      1046
29.550      1046
29.560      1060
29.570      1160
29.580      1046
29.590      1246
29.600      1133
29.610      1126
29.620      1180
29.630       933
29.640       880
29.650       753
29.660       766
29.670       780
29.680       733
29.690       413
29.700       453
29.710       407
29.720       380
29.730       400
29.740       313
29.750       307
29.760       273
29.770       240
29.780       220
29.790       207
29.800       193
29.810       180
29.820       140
29.830       153
29.840       167
29.850       133
29.860        80
29.870        53
29.880       133
29.890        93
29.900       100
29.910       140
29.920       120
29.930       127
29.940       153
29.950       120
29.960        87
29.970       127
29.980       107
29.990       107
30.000        93
30.010        93
30.020       107
30.030        73
30.040        80
30.050       100
30.060       127
30.070       107
30.080       107
30.090       160
30.100        87
30.110        93
30.120       140
30.130        93
30.140       173
30.150        67
30.160       140
30.170       133
30.180       127
30.190       160
30.200       127
30.210       140
30.220       133
30.230       173
30.240       133
30.250       160
30.260       153
30.270       187
30.280       220
30.290       213
30.300       167
30.310       207
30.320       153
30.330       213
30.340       233
30.350       260
30.360       293
30.370       333
30.380       213
30.390       380
30.400       253
30.410       300
30.420       373
30.430       373
30.440       387
30.450       367
30.460       360
30.470       413
30.480       320
30.490       300
30.500       307
30.510       393
30.520       280
30.530       213
30.540       253
30.550       287
30.560       260
30.570       173
30.580       180
30.590       120
30.600       100
30.610       160
30.620       133
30.630       120
30.640       120
30.650       127
30.660       133
30.670       113
30.680       147
30.690       127
30.700       153
30.710       107
30.720       147
30.730        87
30.740       107
30.750       100
30.760        93
30.770       140
30.780       113
30.790       140
30.800        67
30.810       153
30.820       140
30.830       100
30.840        93
30.850       133
30.860       113
30.870        93
30.880        47
30.890        87
30.900        93
30.910        73
30.920        53
30.930        80
30.940       107
30.950       107
30.960        87
30.970        60
30.980        73
30.990       133
31.000        80
31.010        80
31.020       133
31.030       127
31.040        60
31.050        73
31.060        67
31.070        73
31.080       127
31.090       107
31.100        73
31.110        93
31.120        93
31.130       133
31.140       107
31.150       107
31.160       113
31.170        67
31.180        60
31.190       120
31.200       100
31.210        53
31.220       113
31.230       160
31.240        73
31.250        87
31.260        93
31.270        87
31.280       120
31.290        67
31.300       100
31.310       113
31.320       120
31.330       120
31.340        87
31.350        40
31.360       100
31.370       107
31.380       113
31.390        87
31.400        93
31.410        60
31.420       127
31.430        67
31.440       120
31.450       100
31.460        73
31.470        73
31.480        87
31.490        93
31.500        87
31.510        53
31.520        67
31.530       100
31.540        93
31.550        60
31.560       120
31.570       140
31.580        73
31.590        80
31.600       133
31.610       107
31.620        93
31.630       140
31.640       120
31.650        67
31.660        73
31.670        67
31.680        73
31.690       107
31.700       160
31.710       113
31.720        87
31.730        87
31.740        80
31.750       100
31.760       100
31.770        67
31.780       107
31.790        60
31.800       107
31.810       100
31.820       100
31.830        53
31.840        80
31.850        80
31.860       127
31.870       107
31.880       147
31.890       100
31.900       113
31.910       127
31.920       120
31.930       127
31.940       147
31.950       160
31.960       180
31.970       213
31.980       140
31.990       193
32.000       247
32.010       247
32.020       313
32.030       287
32.040       293
32.050       347
32.060       293
32.070       460
32.080       453
32.090       440
32.100       307
32.110       460
32.120       506
32.130       473
32.140       413
32.150       586
32.160       533
32.170       393
32.180       333
32.190       440
32.200       367
32.210       320
32.220       433
32.230       233
32.240       253
32.250       320
32.260       267
32.270       233
32.280       180
32.290       207
32.300       267
32.310       233
32.320       147
32.330       113
32.340       133
32.350       113
32.360       133
32.370       173
32.380       180
32.390        73
32.400       113
32.410       127
32.420       147
32.430       107
32.440        93
32.450       107
32.460        73
32.470        73
32.480        67
32.490        40
32.500        67
32.510       107
32.520        80
32.530       113
32.540       107
32.550        73
32.560        87
32.570        87
32.580        87
32.590        87
32.600        93
32.610        93
32.620       100
32.630        67
32.640        60
32.650       107
32.660        53
32.670        80
32.680        67
32.690        93
32.700        73
32.710        60
32.720        47
32.730       100
32.740       100
32.750        93
32.760       120
32.770        80
32.780        93
32.790        67
32.800        73
32.810       100
32.820        87
32.830       107
32.840       120
32.850        73
32.860        93
32.870       127
32.880        53
32.890        80
32.900        40
32.910       100
32.920        87
32.930        47
32.940        80
32.950        67
32.960        87
32.970        73
32.980        80
32.990        93
33.000        87
33.010        73
33.020       140
33.030        87
33.040        87
33.050       100
33.060        47
33.070        73
33.080       127
33.090       100
33.100        73
33.110        80
33.120        53
33.130        40
33.140        60
33.150        53
33.160        93
33.170        40
33.180        53
33.190       113
33.200        73
33.210        93
33.220        60
33.230        67
33.240        53
33.250        67
33.260       107
33.270       120
33.280       147
33.290        73
33.300        67
33.310       100
33.320        47
33.330       100
33.340        67
33.350        80
33.360        80
33.370        73
33.380        80
33.390        53
33.400        87
33.410       100
33.420        60
33.430        73
33.440        60
33.450        47
33.460        87
33.470        67
33.480        60
33.490        47
33.500        27
33.510        93
33.520        53
33.530        87
33.540        80
33.550       113
33.560        87
33.570       107
33.580        47
33.590       107
33.600        53
33.610        67
33.620        60
33.630        73
33.640        47
33.650        47
33.660        80
33.670       120
33.680       107
33.690        87
33.700        93
33.710        60
33.720       113
33.730        60
33.740        73
33.750        33
33.760       127
33.770        87
33.780        80
33.790        93
33.800        60
33.810        67
33.820        93
33.830        80
33.840        40
33.850        47
33.860        73
33.870        60
33.880        47
33.890        53
33.900        60
33.910        87
33.920        60
33.930        67
33.940        47
33.950        47
33.960        53
33.970        53
33.980        73
33.990        47
34.000        73
34.010        73
34.020       100
34.030       127
34.040        27
34.050        80
34.060       113
34.070        73
34.080       100
34.090        67
34.100        53
34.110        80
34.120        67
34.130        53
34.140        93
34.150        93
34.160        73
34.170        67
34.180        73
34.190       113
34.200       107
34.210        67
34.220        33
34.230        73
34.240        33
34.250        93
34.260        73
34.270        47
34.280        33
34.290        87
34.300        73
34.310        80
34.320        33
34.330        40
34.340       113
34.350        53
34.360        33
34.370        60
34.380        40
34.390        67
34.400       107
34.410        67
34.420        40
34.430        87
34.440        93
34.450        33
34.460        73
34.470        67
34.480        47
34.490        80
34.500        67
34.510        67
34.520        47
34.530        80
34.540        80
34.550       113
34.560        67
34.570        67
34.580        87
34.590        93
34.600        60
34.610        87
34.620        87
34.630       100
34.640       120
34.650        67
34.660        53
34.670        87
34.680        67
34.690        80
34.700        67
34.710        60
34.720        80
34.730        53
34.740        47
34.750        67
34.760       127
34.770        53
34.780        80
34.790        80
34.800       107
34.810       100
34.820        47
34.830        73
34.840        40
34.850        53
34.860        80
34.870        33
34.880        67
34.890        47
34.900        67
34.910        80
34.920        87
34.930        27
34.940        47
34.950        73
34.960        53
34.970        87
34.980        33
34.990        60
35.000        73
35.010        73
35.020        73
35.030        60
35.040        73
35.050        60
35.060        60
35.070        53
35.080        67
35.090        73
35.100        67
35.110        93
35.120        47
35.130        53
35.140        60
35.150        60
35.160        67
35.170        73
35.180        60
35.190       127
35.200        40
35.210        93
35.220       107
35.230        87
35.240        80
35.250        73
35.260        93
35.270       107
35.280        73
35.290        80
35.300        73
35.310        73
35.320       100
35.330        27
35.340        47
35.350        40
35.360        80
35.370        47
35.380        73
35.390        60
35.400        80
35.410        93
35.420        67
35.430        67
35.440        53
35.450        93
35.460        73
35.470        87
35.480        53
35.490       113
35.500        87
35.510       100
35.520        73
35.530        40
35.540        33
35.550        93
35.560        67
35.570       100
35.580        47
35.590        47
35.600        73
35.610        47
35.620        53
35.630        67
35.640        67
35.650        33
35.660        87
35.670        73
35.680        67
35.690        27
35.700       113
35.710        80
35.720        60
35.730        40
35.740        93
35.750        20
35.760        73
35.770        80
35.780        73
35.790        73
35.800        40
35.810        80
35.820        60
35.830        80
35.840        40
35.850        67
35.860        27
35.870        73
35.880        60
35.890        40
35.900        40
35.910        20
35.920        87
35.930        73
35.940        93
35.950        93
35.960        40
35.970        47
35.980        40
35.990        67
36.000        40
36.010        60
36.020        80
36.030        67
36.040        60
36.050        60
36.060        73
36.070        73
36.080        53
36.090        73
36.100       100
36.110        73
36.120        93
36.130        20
36.140        13
36.150        73
36.160        53
36.170        67
36.180        87
36.190        73
36.200        47
36.210        80
36.220       100
36.230        60
36.240        47
36.250        47
36.260        93
36.270        40
36.280        87
36.290       100
36.300        87
36.310        67
36.320        67
36.330        87
36.340        67
36.350        67
36.360        33
36.370        47
36.380        53
36.390        80
36.400        47
36.410        67
36.420        53
36.430        53
36.440        80
36.450        53
36.460        67
36.470       100
36.480        67
36.490        47
36.500        80
36.510        73
36.520        47
36.530        93
36.540        40
36.550        73
36.560        53
36.570        80
36.580        47
36.590        87
36.600        60
36.610        53
36.620        60
36.630        93
36.640        67
36.650        73
36.660        40
36.670        40
36.680        73
36.690        60
36.700        47
36.710        47
36.720       100
36.730        53
36.740        47
36.750        47
36.760        87
36.770        53
36.780        93
36.790        33
36.800        60
36.810        33
36.820        53
36.830        53
36.840        87
36.850        47
36.860        60
36.870        40
36.880        20
36.890        67
36.900        60
36.910        93
36.920        53
36.930        40
36.940        47
36.950        73
36.960        73
36.970        67
36.980        67
36.990        53
37.000        67
37.010        73
37.020        53
37.030        40
37.040        67
37.050        53
37.060        80
37.070        53
37.080        73
37.090        53
37.100        40
37.110        60
37.120        40
37.130        67
37.140        13
37.150       100
37.160        47
37.170        33
37.180        80
37.190        67
37.200        53
37.210        67
37.220        47
37.230        67
37.240        33
37.250        73
37.260        73
37.270        80
37.280        87
37.290        67
37.300        73
37.310        60
37.320        53
37.330        53
37.340        47
37.350        40
37.360        47
37.370        40
37.380        33
37.390        20
37.400        60
37.410        60
37.420        80
37.430        67
37.440        33
37.450        27
37.460        33
37.470        47
37.480        33
37.490        60
37.500        47
37.510        20
37.520        73
37.530        53
37.540        60
37.550        47
37.560        53
37.570        27
37.580        47
37.590        67
37.600        73
37.610        27
37.620        53
37.630        33
37.640        60
37.650        80
37.660        67
37.670        20
37.680        67
37.690        40
37.700        53
37.710        93
37.720        20
37.730        47
37.740        47
37.750        40
37.760        60
37.770        27
37.780        87
37.790        67
37.800        40
37.810        87
37.820        60
37.830        33
37.840        73
37.850        87
37.860        27
37.870        73
37.880        53
37.890        33
37.900        40
37.910        40
37.920        27
37.930        53
37.940        60
37.950        67
37.960        53
37.970        13
37.980        27
37.990        67
38.000        33
38.010        47
38.020        27
38.030        47
38.040        27
38.050        53
38.060        53
38.070        40
38.080        87
38.090        73
38.100        67
38.110        27
38.120        27
38.130        27
38.140        60
38.150        20
38.160        67
38.170        47
38.180        73
38.190        53
38.200        47
38.210        60
38.220        80
38.230        73
38.240        53
38.250        47
38.260        53
38.270        33
38.280        47
38.290        60
38.300        40
38.310        67
38.320        60
38.330        40
38.340        27
38.350        33
38.360        27
38.370        60
38.380        80
38.390        47
38.400        80
38.410        60
38.420        93
38.430        67
38.440       107
38.450        87
38.460        53
38.470        40
38.480        47
38.490        47
38.500        73
38.510        53
38.520        53
38.530        53
38.540        53
38.550        80
38.560        53
38.570        80
38.580        33
38.590        60
38.600        33
38.610        33
38.620        73
38.630        40
38.640        87
38.650        40
38.660        33
38.670        53
38.680        80
38.690        47
38.700        80
38.710        53
38.720        73
38.730        40
38.740        40
38.750        27
38.760        33
38.770        60
38.780        53
38.790        73
38.800        67
38.810        87
38.820       120
38.830       100
38.840        80
38.850       133
38.860       100
38.870       113
38.880       100
38.890       140
38.900       113
38.910       107
38.920        93
38.930       120
38.940        67
38.950        87
38.960        73
38.970       113
38.980        80
38.990        73
39.000        80
39.010        53
39.020       100
39.030        80
39.040        87
39.050        80
39.060        53
39.070        60
39.080        73
39.090        33
39.100       113
39.110        93
39.120        40
39.130        80
39.140        60
39.150        93
39.160        73
39.170       113
39.180        73
39.190        73
39.200        40
39.210        47
39.220        40
39.230        33
39.240        73
39.250        27
39.260        47
39.270        33
39.280        73
39.290        67
39.300        53
39.310        33
39.320        53
39.330        53
39.340        47
39.350        67
39.360        60
39.370        53
39.380        47
39.390        67
39.400        87
39.410        33
39.420        53
39.430        47
39.440        67
39.450        47
39.460        47
39.470       127
39.480        87
39.490        87
39.500        60
39.510        40
39.520        13
39.530        60
39.540        40
39.550        53
39.560        67
39.570        40
39.580        47
39.590        53
39.600        27
39.610        27
39.620        40
39.630        47
39.640        33
39.650        47
39.660        67
39.670        87
39.680        53
39.690        60
39.700        27
39.710        47
39.720        33
39.730        60
39.740        73
39.750        67
39.760        47
39.770        40
39.780        40
39.790        67
39.800        40
39.810        73
39.820        67
39.830        27
39.840        47
39.850        73
39.860        73
39.870        67
39.880        47
39.890        60
39.900        60
39.910        13
39.920        53
39.930        53
39.940        53
39.950        40
39.960        40
39.970        33
39.980        67
39.990        73
40.000        13
40.010        40
40.020        47
40.030        27
40.040        60
40.050        40
40.060        73
40.070        53
40.080        40
40.090        53
40.100        47
40.110        47
40.120        27
40.130        33
40.140        20
40.150        60
40.160        53
40.170        40
40.180        67
40.190        47
40.200        47
40.210        40
40.220        67
40.230        53
40.240        60
40.250        67
40.260        40
40.270        27
40.280        40
40.290        40
40.300        67
40.310        53
40.320       100
40.330        40
40.340        33
40.350        87
40.360        20
40.370        27
40.380        40
40.390        60
40.400        73
40.410        40
40.420        53
40.430        40
40.440        47
40.450        87
40.460        60
40.470         7
40.480        33
40.490        53
40.500        60
40.510        60
40.520        53
40.530        33
40.540        40
40.550        27
40.560        33
40.570        47
40.580        73
40.590        67
40.600        47
40.610        73
40.620        80
40.630        47
40.640        47
40.650        33
40.660        40
40.670        47
40.680        47
40.690        47
40.700        33
40.710        87
40.720        40
40.730        33
40.740        47
40.750        47
40.760        33
40.770        53
40.780        47
40.790       100
40.800        60
40.810        33
40.820        53
40.830        13
40.840        67
40.850        33
40.860        53
40.870        40
40.880        53
40.890        53
40.900        53
40.910        60
40.920        47
40.930        67
40.940        60
40.950        27
40.960        27
40.970        40
40.980        60
40.990        53
41.000        47
41.010        80
41.020        93
41.030        47
41.040        73
41.050        80
41.060        47
41.070        80
41.080        47
41.090         7
41.100        33
41.110        33
41.120        73
41.130        67
41.140        47
41.150        80
41.160        27
41.170        27
41.180        53
41.190        60
41.200        47
41.210        93
41.220        67
41.230        27
41.240        60
41.250        67
41.260        33
41.270        53
41.280        40
41.290        73
41.300        40
41.310        53
41.320        67
41.330        40
41.340        47
41.350        47
41.360        20
41.370        47
41.380        53
41.390        73
41.400        73
41.410        47
41.420        27
41.430        40
41.440        27
41.450        33
41.460        20
41.470        60
41.480        47
41.490        53
41.500        40
41.510        67
41.520        33
41.530        60
41.540        67
41.550        93
41.560        40
41.570        67
41.580        47
41.590        53
41.600        60
41.610        53
41.620        60
41.630        67
41.640        20
41.650        67
41.660        53
41.670        47
41.680        20
41.690        33
41.700        60
41.710        47
41.720        60
41.730        47
41.740        73
41.750        33
41.760        47
41.770        47
41.780        87
41.790        33
41.800        33
41.810        47
41.820        33
41.830        33
41.840        27
41.850        40
41.860        53
41.870        53
41.880        73
41.890        60
41.900        67
41.910        67
41.920        53
41.930        47
41.940        53
41.950        87
41.960        80
41.970        40
41.980        53
41.990        73
42.000        80
42.010        67
42.020        80
42.030        67
42.040        73
42.050        93
42.060       107
42.070        87
42.080        60
42.090        93
42.100        60
42.110        87
42.120       107
42.130        80
42.140        93
42.150       133
42.160       113
42.170       133
42.180       133
42.190       113
42.200       180
42.210       167
42.220       107
42.230       193
42.240       187
42.250       260
42.260       173
42.270       173
42.280       220
42.290       213
42.300       160
42.310       167
42.320       200
42.330       160
42.340       173
42.350       153
42.360       213
42.370       173
42.380       193
42.390       173
42.400       160
42.410       107
42.420       147
42.430       187
42.440       153
42.450       120
42.460       147
42.470       100
42.480       113
42.490        67
42.500       113
42.510       107
42.520        80
42.530        67
42.540        80
42.550        73
42.560        73
42.570        80
42.580        53
42.590        60
42.600        73
42.610       100
42.620        60
42.630        33
42.640        60
42.650        60
42.660        60
42.670        53
42.680        60
42.690        73
42.700        53
42.710        47
42.720        20
42.730        73
42.740        47
42.750        40
42.760        60
42.770        47
42.780        40
42.790        73
42.800        73
42.810        80
42.820        67
42.830        53
42.840        20
42.850        60
42.860        93
42.870        53
42.880        20
42.890        33
42.900        53
42.910        60
42.920        20
42.930        67
42.940        33
42.950        33
42.960        40
42.970        60
42.980        73
42.990        33
43.000        53
43.010        53
43.020        27
43.030        33
43.040        33
43.050        40
43.060        67
43.070        40
43.080        60
43.090        47
43.100        73
43.110        20
43.120        33
43.130        33
43.140        60
43.150        67
43.160        47
43.170        33
43.180        33
43.190        47
43.200        20
43.210        40
43.220        73
43.230        60
43.240        67
43.250        27
43.260        67
43.270        40
43.280        27
43.290        33
43.300        47
43.310        13
43.320        47
43.330        33
43.340        40
43.350        53
43.360        53
43.370        60
43.380        27
43.390        47
43.400        47
43.410        20
43.420        47
43.430        67
43.440        53
43.450        40
43.460        60
43.470        53
43.480        47
43.490        53
43.500       113
43.510        67
43.520        47
43.530        53
43.540        60
43.550        87
43.560        27
43.570       100
43.580       120
43.590        93
43.600        40
43.610        80
43.620        60
43.630       113
43.640        40
43.650        40
43.660        80
43.670        60
43.680        87
43.690        67
43.700        87
43.710        67
43.720        60
43.730        20
43.740        53
43.750        53
43.760        80
43.770        67
43.780        33
43.790        67
43.800        93
43.810        47
43.820        33
43.830        33
43.840        47
43.850        47
43.860        67
43.870       113
43.880        20
43.890        53
43.900        60
43.910        53
43.920        40
43.930         7
43.940        53
43.950        40
43.960        67
43.970        27
43.980        13
43.990        47
44.000        60
44.010        33
44.020        53
44.030        20
44.040        27
44.050        73
44.060        40
44.070        33
44.080        13
44.090        53
44.100        20
44.110         7
44.120        47
44.130        33
44.140        20
44.150        53
44.160        67
44.170        40
44.180        53
44.190        67
44.200        80
44.210        80
44.220        53
44.230        47
44.240        40
44.250        73
44.260        47
44.270        53
44.280        27
44.290        67
44.300        47
44.310        80
44.320        33
44.330        60
44.340        53
44.350        13
44.360        67
44.370        60
44.380        47
44.390        53
44.400        53
44.410        20
44.420        40
44.430        27
44.440        67
44.450        33
44.460        53
44.470        27
44.480        73
44.490        60
44.500        20
44.510        60
44.520        33
44.530        33
44.540        27
44.550        53
44.560        60
44.570        87
44.580        20
44.590        33
44.600        67
44.610        80
44.620        33
44.630        53
44.640        53
44.650        40
44.660        27
44.670        20
44.680        40
44.690        40
44.700        27
44.710        47
44.720        33
44.730        27
44.740        33
44.750        67
44.760        13
44.770        33
44.780        40
44.790        40
44.800        27
44.810        33
44.820        33
44.830        20
44.840        40
44.850        33
44.860        47
44.870        53
44.880        60
44.890        13
44.900        33
44.910        33
44.920        20
44.930        27
44.940        47
44.950        33
44.960        20
44.970        13
44.980        40
44.990        27
45.000        60
45.010        20
45.020        40
45.030        20
45.040        53
45.050        53
45.060        60
45.070        80
45.080        20
45.090        20
45.100        67
45.110        40
45.120        60
45.130        73
45.140        60
45.150        40
45.160        13
45.170        27
45.180        60
45.190        53
45.200        80
45.210        67
45.220        33
45.230        20
45.240        47
45.250        47
45.260        53
45.270        33
45.280        60
45.290        80
45.300        40
45.310        20
45.320        60
45.330        27
45.340        47
45.350        73
45.360        33
45.370        53
45.380       113
45.390        53
45.400        40
45.410        27
45.420        40
45.430        40
45.440        67
45.450        20
45.460        33
45.470        67
45.480        47
45.490        40
45.500        47
45.510        67
45.520        53
45.530        27
45.540        27
45.550        33
45.560        40
45.570        53
45.580        73
45.590        33
45.600        60
45.610        33
45.620        67
45.630        27
45.640        40
45.650        47
45.660        27
45.670        33
45.680        20
45.690        47
45.700        53
45.710        27
45.720        73
45.730        67
45.740        33
45.750        53
45.760        73
45.770        47
45.780        47
45.790        20
45.800        40
45.810       107
45.820        53
45.830        40
45.840        13
45.850        53
45.860        60
45.870        47
45.880        47
45.890        53
45.900        87
45.910        53
45.920        73
45.930       107
45.940       100
45.950        93
45.960       107
45.970       107
45.980       100
45.990       147
46.000       140
46.010        93
46.020       153
46.030       167
46.040       227
46.050       147
46.060       273
46.070       233
46.080       140
46.090       133
46.100       180
46.110       213
46.120       187
46.130       220
46.140       127
46.150       200
46.160       187
46.170       173
46.180       193
46.190       187
46.200       153
46.210       147
46.220       180
46.230       180
46.240       167
46.250       113
46.260       133
46.270       127
46.280       113
46.290       147
46.300       113
46.310       127
46.320       153
46.330        87
46.340        80
46.350       120
46.360       107
46.370        93
46.380       107
46.390        87
46.400        87
46.410        87
46.420       107
46.430        67
46.440        27
46.450        80
46.460        53
46.470        47
46.480        60
46.490        60
46.500        33
46.510        53
46.520        40
46.530        47
46.540        67
46.550        87
46.560        67
46.570        67
46.580        73
46.590        53
46.600        80
46.610        60
46.620        80
46.630        60
46.640        60
46.650        73
46.660        27
46.670        40
46.680        47
46.690        80
46.700        73
46.710        60
46.720        73
46.730       133
46.740        80
46.750        80
46.760        60
46.770        93
46.780        80
46.790        53
46.800       107
46.810       160
46.820        93
46.830        40
46.840        87
46.850       107
46.860        93
46.870       127
46.880        47
46.890        67
46.900        93
46.910        40
46.920        80
46.930       100
46.940        73
46.950        47
46.960        53
46.970        60
46.980        47
46.990       113
47.000       100
47.010        87
47.020       147
47.030       180
47.040       187
47.050       127
47.060       133
47.070       127
47.080       180
47.090       133
47.100       180
47.110       260
47.120       227
47.130       273
47.140       380
47.150       606
47.160       786
47.170      1040
47.180      1226
47.190      1266
47.200      1060
47.210      1053
47.220      1053
47.230       886
47.240       526
47.250       433
47.260       280
47.270       247
47.280       167
47.290       167
47.300       120
47.310       107
47.320       140
47.330       100
47.340       127
47.350       113
47.360       107
47.370       100
47.380        73
47.390       113
47.400       100
47.410        73
47.420        87
47.430        93
47.440        53
47.450        67
47.460        60
47.470        73
47.480        93
47.490        80
47.500       127
47.510        47
47.520        67
47.530        87
47.540        87
47.550        53
47.560        53
47.570        47
47.580        47
47.590        93
47.600        67
47.610       107
47.620        60
47.630        33
47.640        67
47.650        47
47.660        40
47.670        67
47.680        80
47.690        60
47.700        47
47.710        87
47.720        60
47.730        47
47.740        60
47.750        53
47.760        67
47.770        73
47.780        20
47.790        33
47.800        53
47.810        47
47.820        47
47.830       133
47.840        47
47.850        40
47.860        47
47.870        47
47.880        73
47.890        87
47.900        33
47.910        40
47.920        53
47.930        60
47.940        60
47.950        67
47.960        67
47.970        33
47.980        33
47.990        40
48.000        60
48.010        80
48.020        73
48.030        40
48.040        60
48.050        67
48.060        40
48.070        60
48.080        27
48.090        20
48.100        60
48.110        47
48.120        67
48.130        47
48.140        13
48.150        33
48.160        73
48.170        60
48.180        47
48.190        33
48.200        73
48.210        47
48.220        47
48.230        47
48.240        40
48.250        60
48.260        27
48.270        47
48.280        20
48.290        47
48.300        47
48.310        13
48.320        47
48.330        40
48.340        40
48.350        73
48.360        33
48.370        27
48.380        67
48.390        40
48.400        27
48.410        13
48.420        40
48.430        67
48.440        33
48.450        53
48.460        60
48.470        27
48.480        53
48.490        40
48.500        27
48.510        20
48.520        47
48.530        33
48.540        33
48.550        33
48.560        53
48.570        27
48.580        60
48.590        33
48.600        47
48.610        27
48.620        33
48.630        47
48.640       113
48.650        67
48.660        60
48.670        53
48.680        33
48.690        87
48.700        53
48.710        53
48.720        73
48.730        47
48.740        80
48.750        27
48.760        87
48.770        33
48.780        67
48.790       127
48.800        93
48.810       100
48.820        47
48.830        73
48.840        93
48.850        80
48.860        87
48.870       180
48.880       113
48.890       120
48.900       113
48.910       133
48.920       133
48.930       213
48.940       127
48.950       173
48.960       147
48.970       227
48.980       167
48.990       207
49.000       127
49.010       233
49.020       180
49.030       247
49.040       187
49.050       240
49.060       200
49.070       167
49.080       173
49.090       220
49.100       180
49.110       193
49.120       213
49.130       173
49.140       193
49.150       107
49.160       153
49.170       153
49.180        93
49.190       140
49.200       140
49.210       107
49.220       107
49.230       133
49.240       107
49.250        93
49.260       140
49.270       160
49.280        67
49.290       113
49.300       113
49.310        60
49.320        93
49.330        87
49.340        93
49.350        67
49.360        33
49.370       113
49.380        67
49.390        67
49.400        40
49.410        60
49.420        53
49.430        53
49.440        47
49.450        80
49.460        47
49.470        53
49.480        13
49.490        40
49.500        87
49.510        47
49.520        67
49.530        13
49.540        53
49.550        20
49.560        27
49.570        53
49.580        47
49.590        27
49.600        53
49.610        47
49.620        40
49.630        60
49.640        33
49.650        53
49.660        20
49.670        33
49.680        60
49.690        40
49.700        27
49.710        53
49.720        40
49.730        60
49.740        60
49.750        53
49.760        53
49.770        53
49.780        27
49.790        27
49.800        60
49.810        53
49.820        20
49.830        73
49.840        47
49.850        33
49.860        67
49.870        33
49.880        33
49.890        53
49.900        40
49.910        60
49.920        33
49.930        40
49.940        53
49.950        33
49.960        60
49.970        20
49.980        60
49.990        60
50.000        27
50.010        27
50.020        27
50.030        53
50.040        40
50.050        80
50.060        53
50.070         7
50.080        60
50.090        60
50.100        73
50.110        27
50.120        40
50.130        60
50.140        40
50.150        20
50.160        47
50.170        27
50.180        40
50.190        13
50.200        93
50.210        27
50.220        60
50.230        40
50.240        33
50.250        67
50.260        33
50.270        53
50.280        40
50.290        67
50.300        40
50.310        33
50.320        80
50.330        27
50.340        47
50.350        33
50.360        40
50.370        40
50.380        27
50.390        33
50.400        60
50.410        40
50.420        27
50.430        40
50.440        73
50.450        40
50.460        67
50.470        47
50.480        40
50.490        53
50.500        80
50.510        60
50.520        87
50.530        73
50.540        67
50.550        33
50.560        93
50.570        67
50.580        53
50.590        87
50.600        60
50.610        87
50.620       100
50.630       100
50.640       120
50.650       120
50.660       187
50.670       267
50.680       233
50.690       273
50.700       200
50.710       233
50.720       287
50.730       267
50.740       333
50.750       220
50.760       320
50.770       240
50.780       340
50.790       313
50.800       307
50.810       280
50.820       373
50.830       353
50.840       300
50.850       253
50.860       320
50.870       313
50.880       280
50.890       253
50.900       293
50.910       340
50.920       253
50.930       247
50.940       373
50.950       247
50.960       313
50.970       347
50.980       227
50.990       233
51.000       260
51.010       287
51.020       287
51.030       307
51.040       300
51.050       227
51.060       267
51.070       267
51.080       280
51.090       253
51.100       227
51.110       340
51.120       307
51.130       327
51.140       327
51.150       307
51.160       307
51.170       300
51.180       280
51.190       353
51.200       307
51.210       340
51.220       253
51.230       307
51.240       333
51.250       260
51.260       307
51.270       327
51.280       287
51.290       280
51.300       333
51.310       333
51.320       313
51.330       233
51.340       287
51.350       293
51.360       313
51.370       360
51.380       253
51.390       313
51.400       267
51.410       433
51.420       327
51.430       273
51.440       387
51.450       440
51.460       333
51.470       293
51.480       333
51.490       360
51.500       340
51.510       193
51.520       340
51.530       347
51.540       340
51.550       360
51.560       360
51.570       300
51.580       400
51.590       313
51.600       307
51.610       426
51.620       307
51.630       307
51.640       387
51.650       280
51.660       367
51.670       380
51.680       466
51.690       380
51.700       460
51.710       353
51.720       393
51.730       440
51.740       473
51.750       460
51.760       453
51.770       553
51.780       493
51.790       420
51.800       486
51.810       506
51.820       626
51.830       520
51.840       580
51.850       506
51.860       520
51.870       546
51.880       560
51.890       606
51.900       706
51.910       686
51.920       580
51.930       706
51.940       706
51.950       513
51.960       720
51.970       646
51.980       660
51.990       526
52.000       693
52.010       586
52.020       760
52.030       633
52.040       573
52.050       726
52.060       626
52.070       766
52.080       706
52.090       653
52.100       626
52.110       593
52.120       740
52.130       713
52.140       633
52.150       566
52.160       753
52.170       820
52.180       706
52.190       800
52.200       940
52.210       873
52.220       833
52.230       940
52.240      1086
52.250      1113
52.260      1393
52.270      1513
52.280      1813
52.290      1773
52.300      2279
52.310      2892
52.320      3625
52.330      3985
52.340      4138
52.350      4638
52.360      5424
52.370      5844
52.380      6164
52.390      6544
52.400      7051
52.410      7124
52.420      7537
52.430      8043
52.440      8856
52.450      8810
52.460     10043
52.470     11595
52.480     12835
52.490     14914
52.500     16207
52.510     21278
52.520     27069
52.530     36259
52.540     54685
52.550     77222
52.560     99660
52.570    117526
52.580    124790
52.590    129542
52.600    128269
52.610    118599
52.620     98707
52.630     73344
52.640     50013
52.650     36052
52.660     30408
52.670     29282
52.680     34813
52.690     44995
52.700     56211
52.710     65187
52.720     69992
52.730     70239
52.740     70505
52.750     63868
52.760     52053
52.770     37765
52.780     24857
52.790     15667
52.800     10769
52.810      7690
52.820      5718
52.830      4658
52.840      4005
52.850      2985
52.860      2572
52.870      2026
52.880      2386
52.890      1906
52.900      1759
52.910      1579
52.920      1499
52.930      1393
52.940      1413
52.950      1046
52.960      1146
52.970      1033
52.980      1046
52.990       953
53.000       926
53.010       813
53.020       773
53.030       746
53.040       793
53.050       740
53.060       620
53.070       740
53.080       686
53.090       620
53.100       540
53.110       573
53.120       700
53.130       493
53.140       593
53.150       533
53.160       613
53.170       533
53.180       586
53.190       446
53.200       513
53.210       533
53.220       446
53.230       500
53.240       526
53.250       433
53.260       446
53.270       506
53.280       440
53.290       473
53.300       506
53.310       433
53.320       500
53.330       387
53.340       353
53.350       307
53.360       420
53.370       500
53.380       400
53.390       426
53.400       460
53.410       506
53.420       313
53.430       433
53.440       400
53.450       320
53.460       347
53.470       333
53.480       380
53.490       253
53.500       380
53.510       526
53.520       287
53.530       260
53.540       426
53.550       300
53.560       387
53.570       320
53.580       313
53.590       367
53.600       320
53.610       327
53.620       293
53.630       273
53.640       307
53.650       307
53.660       280
53.670       327
53.680       300
53.690       367
53.700       240
53.710       273
53.720       327
53.730       253
53.740       413
53.750       307
53.760       300
53.770       367
53.780       353
53.790       280
53.800       320
53.810       247
53.820       293
53.830       313
53.840       307
53.850       287
53.860       300
53.870       293
53.880       247
53.890       220
53.900       207
53.910       247
53.920       207
53.930       227
53.940       200
53.950       280
53.960       233
53.970       267
53.980       280
53.990       353
54.000       253
54.010       307
54.020       287
54.030       220
54.040       267
54.050       207
54.060       213
54.070       200
54.080       227
54.090       280
54.100       267
54.110       227
54.120       220
54.130       260
54.140       187
54.150       220
54.160       187
54.170       220
54.180       233
54.190       260
54.200       220
54.210       180
54.220       260
54.230       213
54.240       247
54.250       193
54.260       213
54.270       240
54.280       313
54.290       207
54.300       240
54.310       253
54.320       260
54.330       233
54.340       200
54.350       273
54.360       200
54.370       180
54.380       240
54.390       240
54.400       193
54.410       267
54.420       320
54.430       240
54.440       240
54.450       227
54.460       313
54.470       187
54.480       220
54.490       247
54.500       280
54.510       180
54.520       260
54.530       147
54.540       207
54.550       227
54.560       133
54.570       227
54.580       260
54.590       220
54.600       193
54.610       173
54.620       233
54.630       200
54.640       187
54.650       187
54.660       207
54.670       187
54.680       173
54.690       140
54.700       153
54.710       220
54.720       273
54.730       207
54.740       160
54.750       187
54.760       200
54.770       193
54.780       247
54.790       167
54.800       200
54.810       220
54.820       200
54.830       213
54.840       267
54.850       233
54.860       220
54.870       253
54.880       153
54.890       127
54.900       167
54.910       140
54.920       180
54.930       153
54.940       180
54.950       140
54.960       247
54.970       180
54.980       227
54.990       207
55.000       173
55.010       247
55.020       193
55.030       193
55.040       227
55.050       160
55.060       167
55.070       187
55.080       207
55.090       153
55.100       153
55.110       160
55.120       207
55.130       200
55.140       160
55.150       160
55.160       160
55.170       153
55.180       113
55.190       193
55.200       153
55.210       147
55.220       227
55.230       200
55.240       173
55.250       173
55.260       147
55.270       107
55.280       153
55.290       167
55.300       247
55.310       200
55.320       167
55.330       140
55.340       147
55.350       200
55.360       213
55.370       127
55.380       207
55.390       133
55.400       193
55.410       127
55.420       187
55.430       213
55.440       200
55.450       147
55.460       160
55.470       167
55.480        67
55.490       140
55.500       193
55.510       147
55.520       160
55.530       140
55.540       167
55.550       153
55.560       173
55.570       120
55.580       200
55.590       167
55.600       153
55.610       187
55.620       180
55.630       213
55.640       133
55.650       147
55.660       120
55.670       180
55.680       133
55.690       200
55.700       140
55.710       160
55.720       160
55.730       160
55.740       147
55.750       207
55.760       147
55.770       167
55.780       140
55.790       133
55.800       133
55.810       233
55.820       160
55.830       140
55.840       133
55.850       167
55.860       167
55.870       193
55.880       140
55.890       140
55.900       173
55.910       100
55.920       173
55.930       127
55.940       153
55.950       153
55.960       187
55.970       120
55.980       147
55.990       147
56.000       140
56.010       180
56.020       147
56.030       153
56.040       127
56.050       160
56.060       167
56.070       167
56.080       113
56.090       187
56.100       160
56.110       167
56.120       173
56.130       180
56.140       147
56.150       120
56.160       147
56.170       233
56.180       140
56.190       187
56.200       220
56.210       233
56.220        80
56.230       153
56.240       173
56.250        93
56.260       180
56.270       120
56.280       187
56.290       167
56.300       133
56.310       207
56.320       193
56.330       133
56.340       200
56.350       207
56.360       113
56.370        87
56.380       153
56.390       180
56.400       173
56.410       127
56.420       167
56.430       127
56.440       173
56.450       173
56.460       160
56.470       140
56.480       180
56.490       173
56.500       173
56.510       120
56.520       127
56.530       113
56.540       113
56.550       140
56.560       153
56.570       153
56.580       147
56.590       180
56.600       100
56.610       160
56.620       153
56.630       113
56.640       140
56.650       127
56.660       180
56.670        93
56.680       140
56.690       140
56.700       180
56.710       140
56.720       160
56.730       120
56.740       147
56.750       153
56.760       187
56.770       100
56.780       173
56.790       160
56.800       167
56.810       180
56.820       127
56.830       193
56.840       120
56.850        93
56.860       173
56.870       127
56.880       167
56.890        80
56.900       127
56.910        87
56.920        80
56.930       147
56.940       147
56.950       120
56.960       120
56.970       120
56.980       180
56.990       167
57.000       107
57.010       113
57.020       107
57.030       107
57.040        93
57.050       147
57.060       153
57.070       100
57.080       147
57.090       113
57.100       113
57.110       120
57.120       160
57.130       180
57.140       107
57.150       187
57.160       120
57.170       120
57.180       120
57.190        93
57.200        93
57.210       167
57.220       100
57.230       120
57.240       140
57.250       160
57.260       113
57.270        53
57.280       107
57.290        93
57.300       160
57.310       100
57.320       167
57.330       113
57.340        80
57.350       133
57.360        87
57.370       133
57.380        93
57.390       140
57.400       113
57.410       107
57.420       120
57.430       147
57.440       153
57.450       153
57.460       153
57.470       113
57.480       100
57.490        93
57.500       133
57.510        93
57.520       133
57.530       107
57.540       107
57.550       193
57.560        93
57.570       120
57.580       167
57.590       113
57.600       120
57.610       133
57.620        87
57.630       133
57.640       133
57.650       147
57.660       133
57.670       153
57.680       133
57.690       160
57.700       187
57.710       113
57.720       120
57.730       127
57.740        73
57.750       167
57.760       120
57.770       107
57.780       133
57.790       167
57.800       107
57.810       100
57.820       147
57.830       113
57.840       140
57.850       153
57.860        87
57.870       113
57.880       153
57.890        93
57.900        73
57.910       120
57.920       120
57.930       107
57.940       140
57.950       127
57.960       127
57.970       107
57.980        93
57.990        80
58.000        87
58.010       127
58.020       120
58.030        87
58.040       140
58.050       140
58.060        87
58.070       133
58.080       100
58.090        87
58.100       160
58.110        73
58.120        67
58.130       147
58.140       153
58.150       153
58.160       133
58.170        87
58.180        60
58.190       113
58.200       153
58.210        93
58.220       100
58.230        73
58.240        60
58.250       133
58.260       160
58.270       140
58.280       153
58.290       100
58.300        80
58.310        73
58.320        53
58.330       127
58.340       140
58.350        87
58.360        80
58.370        73
58.380        73
58.390        80
58.400        93
58.410        87
58.420       107
58.430        87
58.440        73
58.450       107
58.460       100
58.470        93
58.480        93
58.490        93
58.500       120
58.510       140
58.520       120
58.530       127
58.540        80
58.550       133
58.560        80
58.570       113
58.580       100
58.590        67
58.600       113
58.610       127
58.620       113
58.630        93
58.640       120
58.650        47
58.660        87
58.670       100
58.680       107
58.690       107
58.700       113
58.710       133
58.720       100
58.730        40
58.740       100
58.750       140
58.760        80
58.770       140
58.780       120
58.790       107
58.800        87
58.810        80
58.820       100
58.830        87
58.840        80
58.850        73
58.860        60
58.870       140
58.880       107
58.890        87
58.900        67
58.910       127
58.920        87
58.930        87
58.940        80
58.950        87
58.960       140
58.970       107
58.980       107
58.990        93
59.000       107
59.010        60
59.020        80
59.030       147
59.040       100
59.050       113
59.060        93
59.070       120
59.080        80
59.090        93
59.100        67
59.110       107
59.120       120
59.130       140
59.140       100
59.150       100
59.160       160
59.170        67
59.180       113
59.190       100
59.200        87
59.210       187
59.220       160
59.230       113
59.240       160
59.250        73
59.260       127
59.270        60
59.280        93
59.290       153
59.300       133
59.310       113
59.320       127
59.330       100
59.340        87
59.350       113
59.360       107
59.370        73
59.380       120
59.390       140
59.400       113
59.410       100
59.420       107
59.430       133
59.440       107
59.450       120
59.460       120
59.470        87
59.480        60
59.490        80
59.500       100
59.510       113
59.520        67
59.530        53
59.540        93
59.550        67
59.560        87
59.570       100
59.580       107
59.590       140
59.600        93
59.610        93
59.620       133
59.630       120
59.640        93
59.650        80
59.660        67
59.670       113
59.680       160
59.690        80
59.700        80
59.710       147
59.720       113
59.730       127
59.740       133
59.750       140
59.760       113
59.770       120
59.780       153
59.790       140
59.800       147
59.810       113
59.820        87
59.830       107
59.840       160
59.850       113
59.860       107
59.870        93
59.880       133
59.890       167
59.900       100
59.910       107
59.920       140
59.930        80
59.940        87
59.950       173
59.960        80
59.970       100
59.980        73
59.990         0
60.000         0
