20.000        13
20.010        13
20.020        67
20.030        60
20.040        67
20.050        53
20.060        27
20.070        47
20.080        33
20.090        53
20.100        53
20.110        27
20.120        33
20.130        53
20.140        87
20.150        60
20.160        60
20.170        53
20.180        60
20.190        60
20.200        60
20.210        60
20.220        33
20.230        13
20.240        27
20.250        33
20.260        60
20.270        33
20.280        40
20.290        27
20.300        40
20.310        60
20.320        27
20.330        53
20.340        40
20.350        40
20.360        60
20.370        40
20.380        27
20.390        47
20.400        47
20.410        33
20.420        47
20.430        47
20.440        40
20.450        73
20.460        67
20.470        27
20.480        40
20.490        40
20.500        33
20.510        73
20.520        47
20.530        40
20.540        60
20.550        53
20.560        53
20.570        13
20.580        47
20.590        40
20.600        33
20.610        47
20.620        27
20.630        53
20.640        53
20.650        40
20.660        93
20.670        27
20.680        47
20.690        20
20.700        27
20.710        67
20.720        27
20.730        20
20.740        33
20.750        13
20.760        27
20.770        27
20.780        40
20.790        27
20.800        33
20.810        20
20.820        33
20.830        53
20.840        20
20.850        20
20.860        53
20.870        13
20.880        53
20.890        33
20.900        47
20.910        33
20.920        53
20.930        80
20.940        53
20.950        40
20.960        20
20.970        33
20.980        53
20.990        40
21.000        73
21.010        13
21.020        60
21.030        47
21.040        60
21.050        20
21.060        33
21.070        47
21.080         7
21.090        53
21.100        60
21.110        27
21.120        27
21.130        53
21.140        47
21.150        40
21.160        13
21.170        27
21.180         7
21.190        40
21.200        47
21.210        33
21.220        33
21.230        47
21.240        33
21.250        40
21.260        27
21.270        27
21.280        40
21.290        40
21.300        20
21.310        40
21.320        47
21.330        33
21.340        27
21.350        53
21.360        33
21.370        47
21.380        53
21.390        53
21.400       100
21.410        53
21.420        33
21.430        27
21.440        20
21.450        60
21.460        33
21.470        13
21.480        33
21.490        20
21.500        53
21.510        27
21.520        47
21.530        33
21.540        27
21.550        67
21.560        60
21.570        13
21.580        60
21.590        53
21.600        33
21.610        47
21.620        13
21.630        40
21.640        47
21.650        47
21.660        40
21.670        47
21.680        60
21.690        40
21.700        20
21.710        13
21.720        33
21.730        27
21.740        27
21.750        40
21.760        33
21.770        47
21.780        67
21.790        47
21.800        27
21.810        13
21.820        40
21.830        33
21.840        40
21.850        40
21.860        33
21.870        33
21.880        40
21.890        47
21.900        33
21.910        33
21.920         0
21.930        20
21.940        47
21.950        40
21.960        60
21.970        60
21.980        40
21.990        33
22.000        40
22.010        53
22.020        27
22.030        40
22.040        33
22.050        40
22.060        33
22.070        47
22.080        20
22.090        13
22.100        33
22.110        40
22.120        93
22.130        47
22.140        33
22.150        33
22.160        47
22.170        47
22.180        40
22.190       113
22.200        40
22.210        47
22.220        40
22.230        20
22.240        33
22.250        20
22.260        40
22.270        27
22.280        13
22.290        40
22.300        53
22.310        13
22.320        40
22.330        20
22.340        53
22.350        27
22.360        40
22.370        33
22.380        60
22.390        67
22.400        13
22.410        40
22.420        20
22.430        47
22.440        20
22.450        73
22.460        33
22.470         7
22.480        27
22.490        40
22.500        20
22.510        53
22.520        27
22.530        53
22.540        47
22.550        13
22.560        33
22.570        53
22.580        33
22.590        67
22.600        20
22.610        20
22.620        20
22.630        67
22.640        40
22.650        47
22.660        40
22.670        13
22.680        33
22.690        53
22.700        20
22.710        40
22.720        47
22.730        33
22.740        33
22.750        73
22.760        67
22.770         7
22.780        27
22.790        20
22.800        33
22.810        33
22.820        20
22.830        47
22.840        40
22.850        47
22.860        47
22.870        40
22.880        47
22.890        40
22.900        40
22.910        67
22.920        53
22.930        47
22.940        40
22.950        27
22.960        53
22.970        47
22.980        53
22.990        27
23.000        40
23.010        20
23.020        27
23.030        47
23.040        47
23.050        47
23.060        40
23.070        73
23.080        33
23.090        47
23.100        33
23.110        27
23.120        53
23.130        33
23.140         7
23.150        33
23.160        27
23.170        33
23.180        33
23.190        40
23.200        53
23.210        47
23.220        27
23.230        67
23.240        27
23.250        47
23.260        40
23.270        27
23.280        13
23.290        13
23.300        33
23.310        47
23.320        33
23.330        60
23.340        53
23.350        33
23.360        47
23.370        33
23.380        27
23.390        33
23.400        20
23.410        20
23.420        47
23.430        40
23.440        27
23.450        13
23.460        20
23.470        27
23.480        73
23.490        47
23.500        13
23.510        27
23.520        20
23.530        27
23.540        13
23.550        33
23.560        33
23.570        53
23.580        27
23.590        60
23.600        13
23.610        20
23.620        33
23.630        27
23.640        60
23.650        33
23.660        27
23.670        33
23.680        33
23.690        27
23.700        33
23.710        53
23.720        20
23.730         0
23.740        33
23.750        20
23.760        47
23.770         7
23.780        47
23.790        33
23.800        53
23.810        47
23.820         7
23.830        53
23.840        67
23.850        27
23.860        20
23.870        27
23.880        33
23.890        53
23.900        13
23.910        27
23.920        20
23.930        33
23.940        20
23.950        47
23.960         7
23.970         7
23.980        47
23.990        20
24.000        20
24.010        40
24.020        33
24.030        20
24.040        60
24.050        80
24.060        27
24.070        47
24.080        33
24.090        47
24.100        40
24.110        27
24.120        40
24.130        40
24.140        20
24.150        27
24.160        27
24.170        13
24.180        13
24.190        13
24.200        33
24.210        40
24.220        13
24.230        40
24.240        13
24.250        27
24.260        40
24.270        13
24.280        47
24.290        20
24.300        27
24.310        13
24.320        33
24.330        47
24.340        33
24.350        33
24.360        27
24.370        27
24.380        20
24.390        40
24.400        47
24.410        33
24.420        33
24.430        47
24.440        60
24.450        53
24.460         7
24.470        20
24.480        13
24.490        60
24.500        33
24.510        73
24.520        27
24.530        40
24.540        47
24.550        40
24.560        13
24.570        20
24.580        53
24.590        33
24.600        40
24.610        13
24.620         7
24.630        27
24.640        20
24.650        40
24.660        60
24.670        27
24.680        47
24.690        27
24.700        40
24.710        47
24.720        13
24.730        20
24.740        27
24.750        20
24.760        33
24.770        53
24.780        53
24.790        40
24.800        47
24.810        33
24.820        53
24.830        67
24.840        67
24.850        13
24.860        13
24.870        40
24.880         7
24.890         7
24.900        27
24.910        40
24.920        27
24.930        20
24.940        27
24.950        33
24.960        13
24.970        40
24.980        27
24.990        27
25.000        33
25.010        40
25.020        33
25.030        40
25.040        80
25.050        33
25.060         7
25.070        27
25.080        20
25.090        27
25.100        67
25.110        33
25.120        20
25.130        40
25.140        33
25.150        27
25.160        20
25.170        33
25.180        20
25.190        47
25.200        33
25.210        33
25.220        47
25.230        20
25.240        47
25.250        40
25.260        40
25.270        13
25.280        33
25.290        40
25.300        33
25.310        27
25.320        33
25.330        20
25.340        13
25.350        27
25.360        40
25.370        33
25.380         7
25.390        40
25.400        27
25.410        33
25.420        33
25.430         7
25.440        60
25.450        73
25.460        60
25.470        20
25.480        60
25.490        40
25.500        53
25.510        13
25.520        13
25.530        60
25.540        53
25.550        27
25.560        13
25.570        40
25.580        27
25.590        33
25.600        73
25.610        47
25.620        27
25.630        33
25.640        27
25.650        13
25.660        47
25.670        27
25.680        33
25.690        47
25.700        20
25.710        27
25.720        27
25.730        27
25.740        27
25.750        53
25.760        27
25.770        20
25.780        13
25.790        40
25.800        13
25.810         0
25.820        47
25.830        20
25.840        40
25.850        27
25.860        20
25.870        27
25.880        20
25.890        33
25.900        47
25.910        40
25.920        13
25.930        40
25.940        47
25.950        13
25.960        33
25.970        33
25.980        40
25.990        13
26.000        40
26.010        13
26.020        13
26.030        47
26.040        27
26.050        47
26.060        60
26.070        20
26.080         0
26.090        27
26.100        13
26.110         7
26.120        40
26.130        33
26.140        27
26.150        40
26.160        20
26.170        40
26.180        20
26.190        33
26.200        33
26.210        33
26.220        27
26.230        60
26.240        27
26.250        60
26.260        33
26.270        40
26.280        67
26.290        47
26.300        47
26.310        33
26.320        47
26.330        40
26.340        27
26.350        20
26.360        33
26.370        33
26.380        33
26.390        20
26.400        33
26.410        40
26.420        40
26.430        13
26.440        40
26.450        20
26.460        20
26.470        33
26.480        33
26.490        33
26.500        47
26.510        53
26.520        13
26.530        40
26.540        20
26.550        33
26.560        40
26.570        27
26.580         7
26.590         7
26.600        47
26.610        60
26.620        73
26.630        27
26.640        40
26.650        13
26.660         7
26.670        53
26.680        27
26.690        27
26.700        27
26.710        47
26.720        53
26.730        27
26.740        47
26.750        20
26.760         7
26.770        20
26.780        33
26.790        33
26.800        33
26.810        27
26.820        27
26.830        40
26.840        13
26.850         7
26.860        60
26.870        20
26.880        20
26.890        33
26.900         7
26.910        20
26.920        13
26.930        47
26.940        40
26.950        33
26.960        33
26.970        40
26.980        13
26.990        20
27.000        33
27.010        40
27.020        20
27.030        20
27.040        20
27.050        53
27.060        33
27.070        40
27.080        20
27.090        27
27.100        27
27.110        13
27.120        20
27.130        20
27.140         7
27.150        13
27.160        47
27.170        13
27.180        47
27.190        27
27.200        13
27.210        33
27.220        33
27.230        53
27.240         7
27.250        47
27.260        27
27.270        47
27.280        13
27.290        13
27.300        13
27.310        33
27.320        13
27.330        67
27.340        33
27.350        53
27.360        13
27.370        27
27.380        53
27.390        20
27.400        27
27.410        60
27.420        20
27.430        47
27.440        33
27.450        33
27.460         7
27.470        27
27.480        40
27.490        13
27.500        47
27.510        27
27.520        20
27.530        33
27.540        33
27.550        40
27.560        40
27.570        33
27.580        20
27.590        27
27.600        40
27.610        20
27.620        13
27.630        33
27.640        27
27.650        27
27.660        20
27.670        53
27.680        13
27.690        33
27.700        27
27.710        33
27.720        47
27.730        53
27.740        20
27.750        27
27.760        27
27.770        60
27.780        40
27.790         7
27.800        27
27.810        47
27.820        40
27.830        40
27.840        33
27.850        33
27.860        47
27.870        40
27.880        27
27.890        20
27.900        33
27.910        47
27.920        47
27.930        13
27.940        33
27.950        47
27.960        40
27.970        47
27.980        47
27.990        13
28.000        27
28.010        40
28.020        20
28.030        33
28.040        47
28.050        13
28.060        27
28.070        27
28.080        40
28.090         7
28.100        27
28.110        20
28.120        27
28.130        33
28.140        47
28.150        13
28.160        40
28.170        33
28.180        27
28.190        33
28.200        20
28.210        33
28.220        47
28.230        47
28.240        53
28.250        47
28.260        40
28.270        27
28.280        47
28.290        20
28.300        20
28.310        13
28.320        27
28.330        33
28.340        20
28.350        47
28.360        13
28.370        13
28.380        27
28.390        47
28.400        53
28.410        33
28.420        27
28.430        27
28.440        33
28.450        20
28.460        13
28.470         7
28.480        33
28.490        27
28.500        27
28.510        13
28.520        40
28.530        20
28.540        27
28.550        40
28.560        33
28.570        33
28.580        40
28.590        27
28.600        20
28.610        27
28.620        20
28.630        60
28.640        53
28.650        53
28.660        13
28.670        33
28.680        33
28.690        33
28.700        33
28.710        27
28.720        33
28.730         7
28.740        27
28.750        67
28.760        13
28.770        13
28.780         0
28.790        67
28.800        27
28.810        33
28.820         7
28.830         7
28.840        27
28.850        33
28.860        20
28.870        13
28.880        40
28.890        53
28.900        33
28.910        40
28.920        13
28.930        20
28.940        20
28.950        20
28.960        27
28.970        40
28.980        27
28.990        60
29.000        27
29.010        33
29.020        20
29.030        33
29.040        13
29.050        33
29.060        13
29.070        27
29.080        47
29.090        60
29.100        33
29.110        27
29.120        33
29.130        13
29.140        47
29.150        20
29.160        13
29.170        27
29.180        27
29.190        13
29.200        33
29.210        27
29.220        20
29.230        40
29.240        47
29.250         7
29.260        40
29.270        33
29.280        40
29.290        33
29.300        33
29.310        20
29.320        33
29.330        47
29.340        20
29.350        40
29.360        27
29.370        53
29.380        40
29.390        13
29.400        27
29.410        20
29.420        20
29.430        27
29.440        27
29.450        13
29.460        33
29.470        40
29.480        73
29.490        20
29.500        27
29.510        33
29.520        27
29.530        53
29.540        20
29.550        40
29.560         7
29.570        33
29.580        20
29.590        60
29.600        33
29.610        53
29.620        27
29.630        13
29.640        33
29.650         7
29.660        53
29.670         7
29.680        33
29.690        13
29.700        20
29.710        27
29.720        20
29.730        33
29.740        47
29.750        47
29.760        47
29.770        33
29.780        13
29.790        27
29.800        33
29.810         7
29.820        33
29.830        20
29.840        40
29.850        53
29.860        20
29.870        53
29.880        33
29.890        67
29.900        20
29.910         7
29.920        40
29.930        47
29.940        33
29.950        27
29.960        20
29.970        53
29.980        40
29.990        47
30.000        40
30.010        40
30.020        40
30.030        27
30.040        53
30.050        33
30.060        20
30.070        53
30.080        40
30.090        20
30.100        67
30.110        67
30.120        13
30.130        40
30.140        60
30.150        33
30.160        47
30.170        33
30.180        40
30.190        40
30.200        40
30.210        47
30.220        33
30.230        87
30.240        80
30.250        67
30.260        53
30.270        20
30.280        53
30.290        27
30.300        73
30.310        33
30.320        60
30.330        40
30.340        67
30.350        53
30.360        73
30.370        47
30.380        27
30.390        27
30.400        40
30.410        33
30.420        73
30.430        40
30.440        27
30.450        47
30.460        33
30.470         7
30.480        53
30.490        33
30.500        33
30.510        40
30.520        20
30.530        53
30.540        53
30.550        53
30.560        73
30.570        60
30.580        80
30.590        60
30.600        87
30.610        93
30.620        93
30.630       120
30.640       127
30.650        80
30.660       127
30.670       127
30.680       127
30.690       180
30.700       147
30.710       160
30.720       240
30.730       227
30.740       307
30.750       313
30.760       273
30.770       413
30.780       433
30.790       493
30.800       486
30.810       626
30.820       580
30.830       833
30.840       900
30.850      1093
30.860       986
30.870      1240
30.880      1459
30.890      1546
30.900      1679
30.910      1953
30.920      1886
30.930      2159
30.940      2346
30.950      2559
30.960      2679
30.970      2339
30.980      2272
30.990      2119
31.000      2292
31.010      2053
31.020      1659
31.030      1506
31.040      1266
31.050      1026
31.060      1066
31.070       766
31.080       746
31.090       486
31.100       446
31.110       426
31.120       293
31.130       273
31.140       167
31.150       173
31.160       107
31.170       133
31.180       127
31.190       120
31.200       140
31.210       100
31.220       133
31.230        53
31.240        87
31.250        67
31.260        73
31.270        73
31.280        67
31.290        60
31.300        67
31.310        27
31.320        27
31.330        60
31.340        53
31.350        67
31.360        40
31.370        73
31.380       107
31.390        93
31.400        87
31.410        33
31.420        87
31.430        80
31.440        67
31.450        53
31.460        33
31.470        47
31.480        47
31.490        93
31.500        60
31.510        33
31.520        47
31.530        73
31.540        13
31.550        27
31.560        20
31.570        67
31.580        27
31.590       107
31.600        60
31.610        53
31.620        40
31.630        33
31.640        40
31.650        40
31.660        53
31.670        60
31.680        60
31.690        33
31.700        53
31.710        53
31.720        60
31.730        27
31.740        27
31.750        47
31.760        27
31.770        40
31.780        13
31.790        40
31.800        47
31.810        33
31.820        67
31.830        47
31.840        40
31.850        40
31.860        20
31.870        27
31.880        20
31.890        13
31.900        47
31.910        80
31.920        20
31.930        60
31.940        40
31.950        40
31.960        27
31.970        40
31.980        53
31.990        53
32.000        47
32.010        47
32.020        33
32.030        60
32.040        27
32.050        40
32.060        20
32.070        53
32.080        47
32.090        33
32.100        27
32.110        27
32.120        40
32.130        20
32.140        47
32.150        40
32.160        20
32.170        27
32.180        47
32.190        73
32.200        13
32.210        60
32.220         7
32.230        40
32.240        40
32.250        47
32.260        20
32.270        40
32.280        40
32.290        80
32.300        27
32.310        47
32.320        33
32.330        27
32.340        13
32.350        60
32.360        33
32.370        20
32.380        47
32.390        27
32.400        40
32.410        47
32.420        33
32.430        33
32.440        60
32.450        27
32.460        40
32.470        20
32.480        33
32.490        27
32.500        47
32.510        47
32.520        33
32.530        27
32.540        60
32.550        47
32.560        13
32.570        40
32.580        13
32.590        47
32.600        40
32.610         7
32.620        33
32.630        47
32.640        40
32.650        40
32.660        13
32.670        47
32.680        20
32.690        53
32.700        47
32.710        20
32.720        40
32.730        13
32.740        13
32.750        40
32.760        47
32.770        20
32.780        33
32.790        20
32.800        27
32.810        27
32.820        33
32.830        33
32.840        53
32.850        47
32.860        20
32.870        53
32.880        53
32.890        27
32.900        33
32.910        20
32.920        47
32.930        33
32.940        33
32.950         7
32.960        33
32.970        33
32.980        60
32.990        47
33.000        53
33.010        40
33.020        40
33.030        20
33.040        40
33.050        20
33.060        47
33.070        20
33.080        27
33.090        13
33.100        27
33.110        20
33.120        67
33.130         7
33.140        27
33.150        20
33.160        53
33.170        13
33.180        20
33.190        13
33.200        53
33.210         7
33.220        53
33.230        67
33.240        40
33.250        53
33.260        20
33.270        27
33.280        27
33.290        67
33.300        33
33.310        33
33.320        27
33.330        47
33.340        33
33.350        40
33.360        53
33.370        27
33.380         0
33.390        20
33.400        40
33.410        20
33.420        13
33.430        40
33.440        33
33.450        20
33.460        27
33.470        20
33.480        27
33.490        27
33.500         7
33.510        20
33.520        33
33.530        27
33.540        33
33.550        33
33.560        33
33.570        27
33.580        20
33.590        27
33.600        27
33.610        20
33.620        27
33.630        33
33.640        13
33.650        40
33.660        40
33.670        60
33.680        20
33.690        13
33.700        40
33.710        20
33.720        27
33.730        20
33.740        53
33.750        40
33.760        33
33.770         7
33.780        47
33.790        47
33.800        20
33.810        40
33.820        47
33.830        20
33.840        13
33.850        33
33.860        13
33.870        13
33.880        27
33.890        33
33.900        13
33.910        20
33.920        27
33.930        40
33.940        33
33.950        27
33.960        60
33.970        33
33.980        27
33.990        20
34.000        13
34.010        53
34.020        20
34.030        13
34.040        47
34.050        47
34.060        20
34.070        20
34.080        27
34.090        27
34.100        33
34.110        20
34.120        60
34.130        13
34.140        87
34.150        33
34.160        33
34.170        40
34.180        53
34.190        27
34.200        27
34.210        13
34.220        53
34.230        27
34.240        33
34.250        13
34.260        33
34.270        27
34.280        13
34.290         7
34.300        47
34.310        27
34.320        13
34.330        13
34.340        20
34.350        27
34.360         7
34.370        27
34.380        40
34.390        27
34.400        40
34.410        27
34.420        27
34.430        27
34.440        20
34.450        27
34.460        33
34.470        53
34.480        33
34.490        33
34.500         7
34.510        20
34.520        33
34.530        13
34.540         7
34.550        40
34.560        33
34.570        40
34.580        33
34.590        27
34.600        20
34.610        47
34.620        47
34.630        53
34.640        27
34.650        20
34.660        13
34.670        40
34.680        53
34.690        20
34.700        13
34.710        27
34.720        13
34.730        33
34.740        33
34.750        33
34.760        20
34.770        33
34.780        40
34.790        27
34.800        60
34.810        20
34.820        33
34.830        20
34.840        33
34.850        67
34.860        47
34.870        33
34.880        53
34.890        40
34.900        27
34.910        40
34.920        20
34.930        47
34.940         7
34.950        40
34.960        20
34.970        33
34.980         0
34.990        33
35.000        20
35.010        20
35.020        47
35.030        47
35.040        33
35.050        27
35.060         7
35.070        40
35.080        33
35.090        13
35.100        47
35.110        33
35.120        67
35.130        47
35.140        33
35.150        40
35.160        47
35.170        73
35.180        60
35.190        53
35.200        20
35.210        27
35.220        20
35.230        33
35.240        67
35.250        53
35.260        13
35.270        47
35.280        20
35.290        33
35.300        27
35.310        47
35.320        53
35.330        27
35.340        20
35.350        27
35.360        27
35.370        27
35.380        33
35.390        13
35.400        33
35.410         7
35.420        40
35.430         7
35.440        27
35.450        33
35.460        13
35.470         7
35.480        13
35.490        20
35.500        20
35.510        27
35.520        33
35.530        27
35.540        33
35.550        33
35.560        27
35.570        40
35.580        40
35.590        27
35.600        20
35.610        53
35.620        47
35.630        27
35.640        20
35.650        60
35.660        27
35.670        20
35.680         7
35.690        27
35.700        27
35.710         7
35.720        20
35.730        20
35.740        20
35.750        40
35.760        33
35.770        33
35.780        20
35.790        13
35.800        13
35.810        20
35.820        20
35.830        13
35.840        27
35.850        20
35.860         7
35.870        20
35.880        60
35.890        13
35.900        13
35.910        47
35.920        13
35.930        73
35.940        13
35.950        13
35.960        27
35.970        40
35.980         7
35.990        27
36.000        20
36.010        13
36.020        73
36.030         7
36.040         7
36.050        27
36.060        33
36.070        33
36.080        13
36.090        40
36.100        40
36.110        33
36.120        13
36.130         7
36.140        27
36.150        33
36.160        27
36.170        33
36.180        60
36.190        20
36.200        27
36.210        20
36.220         7
36.230        40
36.240        40
36.250        47
36.260        20
36.270        33
36.280        33
36.290        13
36.300        33
36.310        20
36.320        20
36.330        33
36.340        33
36.350        13
36.360        80
36.370        47
36.380        27
36.390        27
36.400        20
36.410        27
36.420        20
36.430        27
36.440        33
36.450        33
36.460        33
36.470        13
36.480        27
36.490        33
36.500        40
36.510        20
36.520        27
36.530        53
36.540        40
36.550         7
36.560        47
36.570        53
36.580         7
36.590         7
36.600        20
36.610        47
36.620         0
36.630        13
36.640        33
36.650        40
36.660        47
36.670         7
36.680        13
36.690        20
36.700        20
36.710        13
36.720         7
36.730        40
36.740        33
36.750        40
36.760        27
36.770        13
36.780        33
36.790        40
36.800        27
36.810        27
36.820        13
36.830        20
36.840        33
36.850        47
36.860        13
36.870        20
36.880        33
36.890        47
36.900        20
36.910         7
36.920        47
36.930        20
36.940        20
36.950        13
36.960        20
36.970        20
36.980        40
36.990        27
37.000        13
37.010        27
37.020        20
37.030        27
37.040        33
37.050        40
37.060        40
37.070        47
37.080        40
37.090        13
37.100        33
37.110        27
37.120        13
37.130        20
37.140        20
37.150        47
37.160        20
37.170        13
37.180        40
37.190        40
37.200        33
37.210        27
37.220        20
37.230        27
37.240        20
37.250        33
37.260        20
37.270        33
37.280         7
37.290        13
37.300        47
37.310        27
37.320        33
37.330        40
37.340        40
37.350        33
37.360        40
37.370        27
37.380        20
37.390        33
37.400        67
37.410        27
37.420        53
37.430        27
37.440        20
37.450        40
37.460        40
37.470        20
37.480        27
37.490        47
37.500        40
37.510        27
37.520        47
37.530        60
37.540        20
37.550        27
37.560        20
37.570        27
37.580        60
37.590        33
37.600        53
37.610         7
37.620        47
37.630        33
37.640        27
37.650        20
37.660        40
37.670        40
37.680        27
37.690        33
37.700        33
37.710        53
37.720        53
37.730        60
37.740        33
37.750        40
37.760        33
37.770        60
37.780        53
37.790        93
37.800        20
37.810        87
37.820        60
37.830        27
37.840        33
37.850        33
37.860        27
37.870        60
37.880        47
37.890        47
37.900        13
37.910        20
37.920        40
37.930        47
37.940        67
37.950        60
37.960        47
37.970        40
37.980        93
37.990        53
38.000        40
38.010        47
38.020        67
38.030        40
38.040        47
38.050       107
38.060        53
38.070        53
38.080        93
38.090        47
38.100        47
38.110        80
38.120        67
38.130        60
38.140       147
38.150       127
38.160       100
38.170       127
38.180       140
38.190        53
38.200       120
38.210       180
38.220       147
38.230       100
38.240        53
38.250        87
38.260       120
38.270       107
38.280        73
38.290       107
38.300        80
38.310       120
38.320       120
38.330        93
38.340       120
38.350        80
38.360        60
38.370        87
38.380        67
38.390        60
38.400        93
38.410        73
38.420        93
38.430        67
38.440        93
38.450        40
38.460        73
38.470        67
38.480        87
38.490        73
38.500        87
38.510        80
38.520        47
38.530        47
38.540        87
38.550       113
38.560        87
38.570        80
38.580        93
38.590        87
38.600        53
38.610       107
38.620        87
38.630        93
38.640        73
38.650       113
38.660        73
38.670        60
38.680        93
38.690        67
38.700        53
38.710        73
38.720        87
38.730        80
38.740       113
38.750       120
38.760       100
38.770        53
38.780        67
38.790        60
38.800        53
38.810        60
38.820        33
38.830        80
38.840        33
38.850        40
38.860        93
38.870        40
38.880        60
38.890        40
38.900        40
38.910        27
38.920        40
38.930        40
38.940        33
38.950        33
38.960        27
38.970        33
38.980        67
38.990        73
39.000        33
39.010        20
39.020        40
39.030        47
39.040        13
39.050        40
39.060        73
39.070         7
39.080        40
39.090        47
39.100        60
39.110        33
39.120        20
39.130        33
39.140        33
39.150        13
39.160         7
39.170        27
39.180        33
39.190        27
39.200        40
39.210        20
39.220        33
39.230        40
39.240        20
39.250        33
39.260        47
39.270        27
39.280        67
39.290        20
39.300        20
39.310        27
39.320        20
39.330        13
39.340        33
39.350        20
39.360        40
39.370        20
39.380        13
39.390         0
39.400        20
39.410         0
39.420        27
39.430        27
39.440        13
39.450        27
39.460        13
39.470         7
39.480        27
39.490        40
39.500        13
39.510        27
39.520        27
39.530         0
39.540         0
39.550        40
39.560        33
39.570         7
39.580        20
39.590        33
39.600        13
39.610        20
39.620        33
39.630        13
39.640        27
39.650         7
39.660        40
39.670        27
39.680        27
39.690        27
39.700        13
39.710        13
39.720        20
39.730         7
39.740         7
39.750         7
39.760         0
39.770        13
39.780        40
39.790        20
39.800        53
39.810        13
39.820        33
39.830        20
39.840        33
39.850        27
39.860        20
39.870        13
39.880        27
39.890        20
39.900        20
39.910         7
39.920        47
39.930        20
39.940        13
39.950        20
39.960        27
39.970        13
39.980         0
39.990        27
40.000         0
40.010        13
40.020        13
40.030        20
40.040        47
40.050        40
40.060        13
40.070        33
40.080        13
40.090        40
40.100        47
40.110         0
40.120        20
40.130        20
40.140        33
40.150        33
40.160        20
40.170        33
40.180        60
40.190        20
40.200        27
40.210        33
40.220        27
40.230        40
40.240         7
40.250        27
40.260        13
40.270        27
40.280        20
40.290        20
40.300        47
40.310        27
40.320        20
40.330        27
40.340        33
40.350        27
40.360        20
40.370        13
40.380        27
40.390        33
40.400        27
40.410        13
40.420        13
40.430        13
40.440        20
40.450        33
40.460        33
40.470        13
40.480        33
40.490        20
40.500        33
40.510        13
40.520        33
40.530        20
40.540         0
40.550        13
40.560         0
40.570        47
40.580        20
40.590        20
40.600        20
40.610        13
40.620        20
40.630        20
40.640        20
40.650        13
40.660        27
40.670        13
40.680        33
40.690        40
40.700        20
40.710         0
40.720        20
40.730        40
40.740        13
40.750         7
40.760        40
40.770         7
40.780        27
40.790        13
40.800        20
40.810        33
40.820        27
40.830         0
40.840         0
40.850        33
40.860        20
40.870        13
40.880         7
40.890        33
40.900        20
40.910        40
40.920        27
40.930        40
40.940        27
40.950        40
40.960        13
40.970        33
40.980        20
40.990        27
41.000        20
41.010        20
41.020        47
41.030         7
41.040        13
41.050        27
41.060        40
41.070        20
41.080        33
41.090        13
41.100        27
41.110        13
41.120        47
41.130        13
41.140         7
41.150        13
41.160        20
41.170        27
41.180        27
41.190         7
41.200        27
41.210        20
41.220        40
41.230         7
41.240        20
41.250        20
41.260         7
41.270        13
41.280        40
41.290        20
41.300        13
41.310        20
41.320        13
41.330        27
41.340        13
41.350        13
41.360        27
41.370        27
41.380        20
41.390        20
41.400        20
41.410         7
41.420         0
41.430        27
41.440        13
41.450        20
41.460        13
41.470        47
41.480        40
41.490        20
41.500         7
41.510        33
41.520        13
41.530        13
41.540        53
41.550        47
41.560        33
41.570        33
41.580        33
41.590        20
41.600        33
41.610        20
41.620        53
41.630        20
41.640        33
41.650        47
41.660        87
41.670        67
41.680        80
41.690        60
41.700        67
41.710        73
41.720       127
41.730        93
41.740       127
41.750        73
41.760        20
41.770        40
41.780        73
41.790        73
41.800        60
41.810        60
41.820        80
41.830        53
41.840        27
41.850        60
41.860        40
41.870        47
41.880        40
41.890        33
41.900        67
41.910        40
41.920        27
41.930        13
41.940        20
41.950         7
41.960        13
41.970        13
41.980         0
41.990        20
42.000         0
42.010        27
42.020        33
42.030        20
42.040        27
42.050        27
42.060        27
42.070        40
42.080        13
42.090        13
42.100        33
42.110        33
42.120        20
42.130        33
42.140        33
42.150         7
42.160        40
42.170        27
42.180        20
42.190        33
42.200        40
42.210        27
42.220        13
42.230         0
42.240        27
42.250        20
42.260        33
42.270        13
42.280        13
42.290         7
42.300         7
42.310        20
42.320        20
42.330        20
42.340        13
42.350        53
42.360        20
42.370        33
42.380        13
42.390        20
42.400         7
42.410        20
42.420        20
42.430        13
42.440        27
42.450        40
42.460        13
42.470        20
42.480        13
42.490        13
42.500        27
42.510        27
42.520         7
42.530         7
42.540        20
42.550        13
42.560        13
42.570        33
42.580        20
42.590        13
42.600        13
42.610        20
42.620        40
42.630        20
42.640        20
42.650        13
42.660        13
42.670         7
42.680        60
42.690        13
42.700        13
42.710         0
42.720         7
42.730        53
42.740        40
42.750        13
42.760        47
42.770        33
42.780        27
42.790         7
42.800         7
42.810        20
42.820        33
42.830        53
42.840        13
42.850        13
42.860        20
42.870        27
42.880        27
42.890        13
42.900        53
42.910        13
42.920        27
42.930        13
42.940        20
42.950        27
42.960        20
42.970         7
42.980        20
42.990        33
43.000        27
43.010        13
43.020        47
43.030        27
43.040        13
43.050        20
43.060         7
43.070        13
43.080         7
43.090        20
43.100        27
43.110        20
43.120        27
43.130        20
43.140         7
43.150         0
43.160        73
43.170        20
43.180        20
43.190        27
43.200         7
43.210        33
43.220        27
43.230        27
43.240        33
43.250        20
43.260        27
43.270        40
43.280        20
43.290        27
43.300        13
43.310        20
43.320        20
43.330        47
43.340        33
43.350        40
43.360        40
43.370        67
43.380        33
43.390        60
43.400        73
43.410        53
43.420        27
43.430        33
43.440        13
43.450         7
43.460        27
43.470        33
43.480        27
43.490        53
43.500        33
43.510        13
43.520        40
43.530        13
43.540        13
43.550        13
43.560         7
43.570        20
43.580        20
43.590        13
43.600        20
43.610        27
43.620        27
43.630         0
43.640         7
43.650        13
43.660        20
43.670         7
43.680        27
43.690        20
43.700         7
43.710        13
43.720         7
43.730        27
43.740        33
43.750        20
43.760        27
43.770        13
43.780         7
43.790        40
43.800        40
43.810        27
43.820        20
43.830        20
43.840        20
43.850        27
43.860         7
43.870        33
43.880        40
43.890         7
43.900        33
43.910        27
43.920         0
43.930        13
43.940        27
43.950        27
43.960        27
43.970        27
43.980        13
43.990        27
44.000        33
44.010        53
44.020        47
44.030        33
44.040        40
44.050        33
44.060        20
44.070        20
44.080        27
44.090        40
44.100        33
44.110        33
44.120        20
44.130        20
44.140        13
44.150        27
44.160        47
44.170        13
44.180        47
44.190        27
44.200        40
44.210        27
44.220        27
44.230        20
44.240        33
44.250        53
44.260        27
44.270        13
44.280        27
44.290        33
44.300        40
44.310         7
44.320        47
44.330        47
44.340        33
44.350        20
44.360        53
44.370        40
44.380        13
44.390        13
44.400        33
44.410        27
44.420        27
44.430        20
44.440        60
44.450        33
44.460        47
44.470        13
44.480        47
44.490        67
44.500        27
44.510        47
44.520        40
44.530        40
44.540        47
44.550        47
44.560        40
44.570        33
44.580        47
44.590        13
44.600        20
44.610        27
44.620        53
44.630         0
44.640        20
44.650        47
44.660        33
44.670        20
44.680        20
44.690        33
44.700        20
44.710        20
44.720        40
44.730         7
44.740        60
44.750         0
44.760        20
44.770        20
44.780        13
44.790        33
44.800        20
44.810        40
44.820        33
44.830        33
44.840        33
44.850        27
44.860        33
44.870        33
44.880        27
44.890         7
44.900        20
44.910        27
44.920        33
44.930        27
44.940        20
44.950         7
44.960        40
44.970        20
44.980        27
44.990         7
45.000        13
45.010        33
45.020        33
45.030        27
45.040        20
45.050        20
45.060        47
45.070        13
45.080        33
45.090        20
45.100        20
45.110        20
45.120        27
45.130        13
45.140        27
45.150        27
45.160        20
45.170        13
45.180         7
45.190        20
45.200         7
45.210        13
45.220        13
45.230        13
45.240        20
45.250        13
45.260        27
45.270        20
45.280         7
45.290        13
45.300        27
45.310        13
45.320         7
45.330        20
45.340        13
45.350        13
45.360        27
45.370        33
45.380        13
45.390        47
45.400         7
45.410        40
45.420        27
45.430        33
45.440        27
45.450        20
45.460        13
45.470         7
45.480        13
45.490        33
45.500        20
45.510        40
45.520         0
45.530        13
45.540         7
45.550        20
45.560        33
45.570         0
45.580        20
45.590         7
45.600        27
45.610        27
45.620        27
45.630        20
45.640        13
45.650        27
45.660        27
45.670        20
45.680        27
45.690         7
45.700        13
45.710        33
45.720         7
45.730        20
45.740        13
45.750        20
45.760        53
45.770        33
45.780        33
45.790        13
45.800        20
45.810         7
45.820        40
45.830         7
45.840        13
45.850        27
45.860        20
45.870        13
45.880         0
45.890        13
45.900        13
45.910         0
45.920        13
45.930        20
45.940        13
45.950        20
45.960        27
45.970         7
45.980         7
45.990        13
46.000        13
46.010         7
46.020         0
46.030        27
46.040         7
46.050        20
46.060        27
46.070        20
46.080        20
46.090        20
46.100        13
46.110        47
46.120        33
46.130         0
46.140        13
46.150         0
46.160         7
46.170        40
46.180         7
46.190        27
46.200        13
46.210        13
46.220        20
46.230         0
46.240        20
46.250        20
46.260         7
46.270        20
46.280        27
46.290        27
46.300        27
46.310         7
46.320        13
46.330        27
46.340         7
46.350        27
46.360        27
46.370        27
46.380        20
46.390        20
46.400         0
46.410        20
46.420        13
46.430         7
46.440        20
46.450         0
46.460        20
46.470        13
46.480        20
46.490         7
46.500         7
46.510        20
46.520        20
46.530        33
46.540        33
46.550        13
46.560        13
46.570        20
46.580        20
46.590        13
46.600        60
46.610        53
46.620         7
46.630        20
46.640        13
46.650         7
46.660        20
46.670        27
46.680        33
46.690         0
46.700        13
46.710         7
46.720        20
46.730        27
46.740        20
46.750        27
46.760         7
46.770        33
46.780        13
46.790        20
46.800         7
46.810        33
46.820        20
46.830        27
46.840        13
46.850        20
46.860        33
46.870        20
46.880        20
46.890        13
46.900        20
46.910        20
46.920        20
46.930        40
46.940         7
46.950         7
46.960        27
46.970        20
46.980        13
46.990        27
47.000        13
47.010         7
47.020        40
47.030         0
47.040        13
47.050        13
47.060        20
47.070        13
47.080         7
47.090        27
47.100        13
47.110        20
47.120        27
47.130        20
47.140        20
47.150        13
47.160        13
47.170        33
47.180        13
47.190        33
47.200        40
47.210         7
47.220        33
47.230        33
47.240        60
47.250        47
47.260        13
47.270        13
47.280         7
47.290        13
47.300        20
47.310         7
47.320        33
47.330        20
47.340        33
47.350         7
47.360        20
47.370        13
47.380        27
47.390         0
47.400        20
47.410        27
47.420        27
47.430        20
47.440        53
47.450        13
47.460        13
47.470        20
47.480        13
47.490        33
47.500        13
47.510         7
47.520        20
47.530        27
47.540        13
47.550        27
47.560         0
47.570         7
47.580        40
47.590        20
47.600        20
47.610        20
47.620        27
47.630        13
47.640        47
47.650        13
47.660        27
47.670         7
47.680         0
47.690        13
47.700         7
47.710        13
47.720         7
47.730        40
47.740        13
47.750         0
47.760         7
47.770        20
47.780        33
47.790        13
47.800        13
47.810        13
47.820         0
47.830        20
47.840        20
47.850        13
47.860         7
47.870        13
47.880        13
47.890        20
47.900        27
47.910         7
47.920        20
47.930        33
47.940        27
47.950        27
47.960        20
47.970         7
47.980        20
47.990        20
48.000        27
48.010        40
48.020         7
48.030        20
48.040         7
48.050        33
48.060         0
48.070        20
48.080        27
48.090        13
48.100         0
48.110        33
48.120        27
48.130         0
48.140        13
48.150        13
48.160        20
48.170        20
48.180        40
48.190         0
48.200        20
48.210        40
48.220        33
48.230        20
48.240         7
48.250        13
48.260        27
48.270        13
48.280        33
48.290        27
48.300        27
48.310        13
48.320        40
48.330         7
48.340        20
48.350        27
48.360        27
48.370        27
48.380        13
48.390        27
48.400        20
48.410        13
48.420        27
48.430        20
48.440        27
48.450        20
48.460         0
48.470        27
48.480         0
48.490        27
48.500        20
48.510        13
48.520        33
48.530         7
48.540        40
48.550        20
48.560        20
48.570         7
48.580        13
48.590        33
48.600        33
48.610         7
48.620        27
48.630         0
48.640        33
48.650         7
48.660        13
48.670        20
48.680        20
48.690        33
48.700         7
48.710        13
48.720        13
48.730         0
48.740         7
48.750        27
48.760         7
48.770        13
48.780        20
48.790         0
48.800         7
48.810        47
48.820        20
48.830        20
48.840        27
48.850         7
48.860        13
48.870        27
48.880        27
48.890        13
48.900        20
48.910        27
48.920        20
48.930        13
48.940        20
48.950        27
48.960        20
48.970        20
48.980        20
48.990         0
49.000         7
49.010         0
49.020         7
49.030        20
49.040         0
49.050        40
49.060         7
49.070        20
49.080         0
49.090        47
49.100        13
49.110        40
49.120        13
49.130         7
49.140         7
49.150        20
49.160        13
49.170        33
49.180        13
49.190        33
49.200        47
49.210        20
49.220         7
49.230        13
49.240        27
49.250        13
49.260        27
49.270        27
49.280         0
49.290        13
49.300        40
49.310        13
49.320        40
49.330         7
49.340        27
49.350         0
49.360        27
49.370        13
49.380        33
49.390        20
49.400         7
49.410        33
49.420        27
49.430        27
49.440        33
49.450        13
49.460        40
49.470        20
49.480        20
49.490        13
49.500        13
49.510        13
49.520         7
49.530         7
49.540        20
49.550        13
49.560        13
49.570        20
49.580         7
49.590         7
49.600         0
49.610        27
49.620        13
49.630        13
49.640        20
49.650        40
49.660        13
49.670        13
49.680         7
49.690        27
49.700        13
49.710         7
49.720        47
49.730         7
49.740        13
49.750         0
49.760         0
49.770        40
49.780        13
49.790        27
49.800         7
49.810         7
49.820         7
49.830        47
49.840         7
49.850        27
49.860        20
49.870        40
49.880        27
49.890        27
49.900        20
49.910        27
49.920         7
49.930        13
49.940        40
49.950         7
49.960        13
49.970        27
49.980        13
49.990         7
50.000         0
50.010        40
50.020        13
50.030        13
50.040        27
50.050        33
50.060        40
50.070        27
50.080         7
50.090        20
50.100        33
50.110        27
50.120        13
50.130         7
50.140         7
50.150        27
50.160        27
50.170        27
50.180        27
50.190         7
50.200        13
50.210        13
50.220        20
50.230        27
50.240         7
50.250         7
50.260        20
50.270         0
50.280        13
50.290        13
50.300        20
50.310        13
50.320         7
50.330        13
50.340        13
50.350         7
50.360        27
50.370        13
50.380        20
50.390        13
50.400        27
50.410         7
50.420         7
50.430         7
50.440        27
50.450        20
50.460        33
50.470        13
50.480        20
50.490         7
50.500        33
50.510        13
50.520        40
50.530        33
50.540         0
50.550        33
50.560         7
50.570        40
50.580         0
50.590         7
50.600        20
50.610        13
50.620        13
50.630        13
50.640         7
50.650         7
50.660        13
50.670        27
50.680        27
50.690        13
50.700         7
50.710        27
50.720         7
50.730        13
50.740        20
50.750         7
50.760        27
50.770        20
50.780        20
50.790         7
50.800        13
50.810        33
50.820        13
50.830        20
50.840        27
50.850        20
50.860        27
50.870         7
50.880        13
50.890        13
50.900        13
50.910         0
50.920        27
50.930        13
50.940        13
50.950        13
50.960        33
50.970         7
50.980        33
50.990        27
51.000         0
51.010        33
51.020        13
51.030        20
51.040        33
51.050         7
51.060        13
51.070         0
51.080        20
51.090        27
51.100        33
51.110        27
51.120         0
51.130        27
51.140        27
51.150        27
51.160        27
51.170        13
51.180        13
51.190        20
51.200        33
51.210        13
51.220         0
51.230        20
51.240        13
51.250        13
51.260        20
51.270        13
51.280        20
51.290        20
51.300        13
51.310        13
51.320        40
51.330        33
51.340        13
51.350        13
51.360        20
51.370        13
51.380        13
51.390        13
51.400        20
51.410        20
51.420        20
51.430        13
51.440         7
51.450        20
51.460         7
51.470         7
51.480         7
51.490        20
51.500        13
51.510         7
51.520        13
51.530         7
51.540        13
51.550        13
51.560         0
51.570         7
51.580        20
51.590        13
51.600         7
51.610        13
51.620        20
51.630        20
51.640         7
51.650         0
51.660        20
51.670        13
51.680        20
51.690        40
51.700        47
51.710         0
51.720        20
51.730        20
51.740        20
51.750        13
51.760        20
51.770        13
51.780        27
51.790        13
51.800        20
51.810        33
51.820         7
51.830        13
51.840        20
51.850        27
51.860        13
51.870        13
51.880        27
51.890        27
51.900        33
51.910         7
51.920        27
51.930        20
51.940        13
51.950        20
51.960        13
51.970        20
51.980        20
51.990        20
52.000        20
52.010         0
52.020        27
52.030         7
52.040        13
52.050        20
52.060        27
52.070        13
52.080         7
52.090         7
52.100        33
52.110         7
52.120        20
52.130        13
52.140        27
52.150         7
52.160        20
52.170         0
52.180        20
52.190         7
52.200        40
52.210        20
52.220        13
52.230        20
52.240         7
52.250        27
52.260        13
52.270        20
52.280         7
52.290        13
52.300         0
52.310        13
52.320        20
52.330         0
52.340        13
52.350         7
52.360         7
52.370        33
52.380        27
52.390        13
52.400        33
52.410        13
52.420        13
52.430        27
52.440         7
52.450        33
52.460        13
52.470        13
52.480         7
52.490        20
52.500        13
52.510        33
52.520         0
52.530        20
52.540        27
52.550        20
52.560        33
52.570        33
52.580        13
52.590        27
52.600        27
52.610        47
52.620        27
52.630        20
52.640        13
52.650        20
52.660        20
52.670       100
52.680        60
52.690         7
52.700        27
52.710         0
52.720        20
52.730        20
52.740         7
52.750        20
52.760        20
52.770        27
52.780         7
52.790        13
52.800        27
52.810        40
52.820         7
52.830         7
52.840        13
52.850         7
52.860        27
52.870        13
52.880        13
52.890        20
52.900        13
52.910        13
52.920        20
52.930         7
52.940        20
52.950        33
52.960        13
52.970        13
52.980         7
52.990         7
53.000        13
53.010        40
53.020        33
53.030         7
53.040        13
53.050        33
53.060         0
53.070        33
53.080         7
53.090         7
53.100        27
53.110         7
53.120        13
53.130        40
53.140        13
53.150        27
53.160         7
53.170        13
53.180        13
53.190        13
53.200        27
53.210         7
53.220         7
53.230        20
53.240        33
53.250        13
53.260        27
53.270        40
53.280        13
53.290         0
53.300        20
53.310        13
53.320        27
53.330        13
53.340        27
53.350        27
53.360        13
53.370         0
53.380        20
53.390        27
53.400        33
53.410         7
53.420        27
53.430        13
53.440        13
53.450        20
53.460        13
53.470        13
53.480         0
53.490        20
53.500        20
53.510        20
53.520         7
53.530         7
53.540         7
53.550        20
53.560        40
53.570        27
53.580        20
53.590        40
53.600        33
53.610         7
53.620         7
53.630         7
53.640        13
53.650        27
53.660        20
53.670        27
53.680        13
53.690        20
53.700        27
53.710        13
53.720        27
53.730         7
53.740        13
53.750        13
53.760        20
53.770        40
53.780         7
53.790        13
53.800        33
53.810        27
53.820        27
53.830        13
53.840        13
53.850        47
53.860         7
53.870         7
53.880        20
53.890        13
53.900        20
53.910         0
53.920        20
53.930        13
53.940        27
53.950        13
53.960        33
53.970        13
53.980        20
53.990        13
54.000        20
54.010        33
54.020        27
54.030        13
54.040        20
54.050        40
54.060        33
54.070        20
54.080        27
54.090         0
54.100         0
54.110        20
54.120         7
54.130        53
54.140        20
54.150        27
54.160         0
54.170         7
54.180        40
54.190        27
54.200        33
54.210         7
54.220         7
54.230        20
54.240        27
54.250        33
54.260         7
54.270        33
54.280        40
54.290        20
54.300         7
54.310        33
54.320        27
54.330        20
54.340        27
54.350        27
54.360        13
54.370        20
54.380        20
54.390        13
54.400         0
54.410        33
54.420        13
54.430        27
54.440        13
54.450        27
54.460         7
54.470        40
54.480        13
54.490         7
54.500         7
54.510        13
54.520        33
54.530        33
54.540        13
54.550        20
54.560        27
54.570        27
54.580         0
54.590        13
54.600        47
54.610        27
54.620        20
54.630        27
54.640        47
54.650        33
54.660        33
54.670         7
54.680        20
54.690        40
54.700        13
54.710        20
54.720        20
54.730        27
54.740        47
54.750        33
54.760        47
54.770        33
54.780        33
54.790        27
54.800        53
54.810        33
54.820        60
54.830        13
54.840        40
54.850         7
54.860        20
54.870        40
54.880        40
54.890        47
54.900        73
54.910        80
54.920        93
54.930        67
54.940        60
54.950        87
54.960       120
54.970        73
54.980       107
54.990        80
55.000       107
55.010       140
55.020       187
55.030       187
55.040       173
55.050       140
55.060       293
55.070       173
55.080       227
55.090       293
55.100       273
55.110       260
55.120       247
55.130       313
55.140       213
55.150       247
55.160       267
55.170       207
55.180       153
55.190       187
55.200       153
55.210       140
55.220       167
55.230       140
55.240       133
55.250       167
55.260       100
55.270       167
55.280       120
55.290        87
55.300       107
55.310       180
55.320        87
55.330        73
55.340        80
55.350       107
55.360       100
55.370        47
55.380        87
55.390        33
55.400        27
55.410        53
55.420        47
55.430        60
55.440        40
55.450        33
55.460        60
55.470         7
55.480        53
55.490        20
55.500        20
55.510         7
55.520        27
55.530        13
55.540        60
55.550        33
55.560        20
55.570        13
55.580        47
55.590        47
55.600        27
55.610        27
55.620        27
55.630        33
55.640        20
55.650        27
55.660         7
55.670        13
55.680        33
55.690        40
55.700        40
55.710        27
55.720        53
55.730        20
55.740        40
55.750        33
55.760         7
55.770         0
55.780        20
55.790        20
55.800        13
55.810        13
55.820        13
55.830        27
55.840        20
55.850        20
55.860         7
55.870        13
55.880         0
55.890        13
55.900        20
55.910         7
55.920         7
55.930        27
55.940         0
55.950        33
55.960        33
55.970        20
55.980        33
55.990        13
56.000        47
56.010        20
56.020        20
56.030        33
56.040        13
56.050        33
56.060        20
56.070        13
56.080        20
56.090         0
56.100        27
56.110        27
56.120         7
56.130         0
56.140        40
56.150        13
56.160         7
56.170         7
56.180        13
56.190        27
56.200         7
56.210        33
56.220        13
56.230        27
56.240        13
56.250         7
56.260         7
56.270        27
56.280         7
56.290        13
56.300        13
56.310        27
56.320        27
56.330        13
56.340        27
56.350        40
56.360        20
56.370         7
56.380        13
56.390        33
56.400        20
56.410        13
56.420        33
56.430        27
56.440         0
56.450        27
56.460        27
56.470        20
56.480        13
56.490        27
56.500        20
56.510         7
56.520        20
56.530        20
56.540        13
56.550        20
56.560        27
56.570        13
56.580         7
56.590         0
56.600        20
56.610        20
56.620        20
56.630        20
56.640        27
56.650        13
56.660        33
56.670        13
56.680        20
56.690        13
56.700        13
56.710        20
56.720        20
56.730        13
56.740        13
56.750         7
56.760        20
56.770         0
56.780         7
56.790        33
56.800         7
56.810         7
56.820        40
56.830        27
56.840         7
56.850        33
56.860        13
56.870        40
56.880        13
56.890         7
56.900        27
56.910        13
56.920        33
56.930         7
56.940         7
56.950        27
56.960         7
56.970        20
56.980         7
56.990        20
57.000         7
57.010        20
57.020         7
57.030        20
57.040        20
57.050         7
57.060        33
57.070        20
57.080        20
57.090         7
57.100        27
57.110        13
57.120         7
57.130         0
57.140        20
57.150        20
57.160        13
57.170         7
57.180        13
57.190        13
57.200        20
57.210        13
57.220        20
57.230        13
57.240         7
57.250        33
57.260        13
57.270         0
57.280         7
57.290        27
57.300         0
57.310        27
57.320        40
57.330        20
57.340         7
57.350         7
57.360        20
57.370        33
57.380        33
57.390        27
57.400         7
57.410        40
57.420        40
57.430        27
57.440        13
57.450        33
57.460        13
57.470        33
57.480        40
57.490        33
57.500        40
57.510        40
57.520        40
57.530        27
57.540        67
57.550        47
57.560         7
57.570        73
57.580        27
57.590        47
57.600        67
57.610        47
57.620         7
57.630        40
57.640        27
57.650        73
57.660        47
57.670        40
57.680         0
57.690         0
57.700        20
57.710        47
57.720        27
57.730        33
57.740        47
57.750        20
57.760        27
57.770         7
57.780         0
57.790        13
57.800        13
57.810        33
57.820        20
57.830        40
57.840        33
57.850        13
57.860        20
57.870        13
57.880         7
57.890         7
57.900        13
57.910         0
57.920        27
57.930        13
57.940        20
57.950         7
57.960         0
57.970         0
57.980        13
57.990         7
58.000        33
58.010        13
58.020        13
58.030         7
58.040        13
58.050        33
58.060         7
58.070        33
58.080         0
58.090        13
58.100        20
58.110        53
58.120        13
58.130         7
58.140        13
58.150        20
58.160        13
58.170        20
58.180         7
58.190         0
58.200         7
58.210         0
58.220        13
58.230         7
58.240         7
58.250        33
58.260        20
58.270        20
58.280        20
58.290        33
58.300        13
58.310         7
58.320         0
58.330        20
58.340        33
58.350        20
58.360         0
58.370         7
58.380         7
58.390        27
58.400         0
58.410        13
58.420         7
58.430         7
58.440         7
58.450        13
58.460        20
58.470        20
58.480        13
58.490         7
58.500        27
58.510        13
58.520        27
58.530        13
58.540         7
58.550        67
58.560        27
58.570         0
58.580        13
58.590        20
58.600         7
58.610         7
58.620         7
58.630        27
58.640         7
58.650         7
58.660         7
58.670        13
58.680        13
58.690        20
58.700         7
58.710         7
58.720        13
58.730        27
58.740         7
58.750        13
58.760         7
58.770         7
58.780         7
58.790         0
58.800        20
58.810         0
58.820         0
58.830         7
58.840        27
58.850         7
58.860         7
58.870        27
58.880        13
58.890        20
58.900        13
58.910        27
58.920        13
58.930        20
58.940        27
58.950        20
58.960        27
58.970        13
58.980        13
58.990        20
59.000        33
59.010        13
59.020        27
59.030        13
59.040        20
59.050        27
59.060        13
59.070         7
59.080        20
59.090        27
59.100        13
59.110        13
59.120        20
59.130        20
59.140         7
59.150        13
59.160        13
59.170        20
59.180        33
59.190        20
59.200        27
59.210        13
59.220         0
59.230         0
59.240        20
59.250        13
59.260        33
59.270        27
59.280        20
59.290         0
59.300        27
59.310         7
59.320         7
59.330         7
59.340        20
59.350        13
59.360        13
59.370        20
59.380        20
59.390        20
59.400        27
59.410        13
59.420         7
59.430         0
59.440        20
59.450        13
59.460         0
59.470        27
59.480        20
59.490         7
59.500         0
59.510         7
59.520        13
59.530        13
59.540        40
59.550        33
59.560         7
59.570        20
59.580        27
59.590        20
59.600        33
59.610         7
59.620        33
59.630         7
59.640        13
59.650        13
59.660        20
59.670        40
59.680         0
59.690        33
59.700         7
59.710        13
59.720        20
59.730        20
59.740         7
59.750         7
59.760        13
59.770        13
59.780        33
59.790         7
59.800        13
59.810        20
59.820         0
59.830        20
59.840         0
59.850        13
59.860         7
59.870        27
59.880        40
59.890         7
59.900         7
59.910        13
59.920        40
59.930        27
59.940         7
59.950         7
59.960        33
59.970        20
59.980         0
59.990        13
60.000        13
