20.000        80
20.010        80
20.020        93
20.030        40
20.040        80
20.050        87
20.060        87
20.070       107
20.080       113
20.090       127
20.100       113
20.110        93
20.120       120
20.130        80
20.140       107
20.150       113
20.160       120
20.170        93
20.180        87
20.190        80
20.200        73
20.210        80
20.220        67
20.230        27
20.240       113
20.250        53
20.260        73
20.270        67
20.280        80
20.290        53
20.300        67
20.310        53
20.320        13
20.330        40
20.340        53
20.350        20
20.360        40
20.370        33
20.380        33
20.390        27
20.400        67
20.410        20
20.420        40
20.430        60
20.440        27
20.450        73
20.460        67
20.470        40
20.480        53
20.490        53
20.500        60
20.510        67
20.520        20
20.530        33
20.540        53
20.550        27
20.560        33
20.570        27
20.580        67
20.590        33
20.600       100
20.610        47
20.620        67
20.630        33
20.640        27
20.650        53
20.660        47
20.670        47
20.680        33
20.690        47
20.700        53
20.710        87
20.720        40
20.730        40
20.740        60
20.750        47
20.760        13
20.770        67
20.780        47
20.790        33
20.800        27
20.810        47
20.820        60
20.830        40
20.840        27
20.850        20
20.860        47
20.870        27
20.880        53
20.890        33
20.900        53
20.910        60
20.920        20
20.930        60
20.940        53
20.950        40
20.960        33
20.970        13
20.980        40
20.990        47
21.000        33
21.010        47
21.020        47
21.030        67
21.040        67
21.050        47
21.060        80
21.070        13
21.080        33
21.090        47
21.100        87
21.110        53
21.120        27
21.130        27
21.140        33
21.150        73
21.160        67
21.170        60
21.180        27
21.190        33
21.200        47
21.210        27
21.220        40
21.230        33
21.240        40
21.250        40
21.260        67
21.270        13
21.280        20
21.290        27
21.300        47
21.310        33
21.320        47
21.330        40
21.340        47
21.350        27
21.360        47
21.370        40
21.380        13
21.390        40
21.400        47
21.410        33
21.420        27
21.430        47
21.440        40
21.450        47
21.460        20
21.470        27
21.480        27
21.490        87
21.500        27
21.510        40
21.520        13
21.530        20
21.540        13
21.550        20
21.560        13
21.570        20
21.580        33
21.590        40
21.600        67
21.610        40
21.620        53
21.630        40
21.640        60
21.650        33
21.660        47
21.670        27
21.680        47
21.690        27
21.700        67
21.710        67
21.720         7
21.730        33
21.740        60
21.750        40
21.760        33
21.770        40
21.780        33
21.790        67
21.800        27
21.810        53
21.820        33
21.830        33
21.840        27
21.850        20
21.860        20
21.870        20
21.880        53
21.890        60
21.900        27
21.910        53
21.920        40
21.930         7
21.940        27
21.950        53
21.960        47
21.970        40
21.980        47
21.990        27
22.000        33
22.010        40
22.020        20
22.030        53
22.040        73
22.050        40
22.060        53
22.070        33
22.080        53
22.090        53
22.100        60
22.110        67
22.120        40
22.130        47
22.140        40
22.150        53
22.160        67
22.170        27
22.180        60
22.190        40
22.200        60
22.210        80
22.220        53
22.230        53
22.240        73
22.250        53
22.260        40
22.270       100
22.280        80
22.290        67
22.300        80
22.310        73
22.320        80
22.330        53
22.340        93
22.350        93
22.360       147
22.370       133
22.380       127
22.390       140
22.400       173
22.410       220
22.420       173
22.430       193
22.440       207
22.450       240
22.460       320
22.470       280
22.480       293
22.490       300
22.500       433
22.510       486
22.520       267
22.530       387
22.540       313
22.550       267
22.560       400
22.570       400
22.580       300
22.590       373
22.600       333
22.610       287
22.620       293
22.630       227
22.640       267
22.650       247
22.660       213
22.670       173
22.680       193
22.690       160
22.700       120
22.710       173
22.720       100
22.730       107
22.740        80
22.750        87
22.760        80
22.770        60
22.780        80
22.790        53
22.800        47
22.810        33
22.820        47
22.830        40
22.840        60
22.850        53
22.860        27
22.870        53
22.880       100
22.890        47
22.900        53
22.910        40
22.920        53
22.930        47
22.940        27
22.950        60
22.960        60
22.970        13
22.980        13
22.990        53
23.000        40
23.010        60
23.020        33
23.030        73
23.040        67
23.050        60
23.060        33
23.070        27
23.080        73
23.090        53
23.100        60
23.110        20
23.120        40
23.130       107
23.140        33
23.150        33
23.160        67
23.170        40
23.180        47
23.190        33
23.200        60
23.210        33
23.220        27
23.230        53
23.240        73
23.250        27
23.260        67
23.270        33
23.280        20
23.290        33
23.300        67
23.310        67
23.320        60
23.330        40
23.340        47
23.350        47
23.360        67
23.370        87
23.380        33
23.390        40
23.400        27
23.410        27
23.420        27
23.430        40
23.440        40
23.450        27
23.460        47
23.470        53
23.480        33
23.490        20
23.500        60
23.510        20
23.520        27
23.530        27
23.540        47
23.550        33
23.560        40
23.570        27
23.580        53
23.590        47
23.600        60
23.610        20
23.620        40
23.630        33
23.640        33
23.650        33
23.660        40
23.670        33
23.680        13
23.690        27
23.700        53
23.710        87
23.720        40
23.730        33
23.740        27
23.750        47
23.760        40
23.770        27
23.780        40
23.790        33
23.800        47
23.810         7
23.820        27
23.830        80
23.840        27
23.850        27
23.860        67
23.870        33
23.880        27
23.890        33
23.900        13
23.910         0
23.920        33
23.930        27
23.940        60
23.950        53
23.960        33
23.970        53
23.980        27
23.990        47
24.000        53
24.010        40
24.020        80
24.030        40
24.040        20
24.050        20
24.060        47
24.070        33
24.080        33
24.090        20
24.100        33
24.110        13
24.120        40
24.130        13
24.140        40
24.150        13
24.160        80
24.170        53
24.180        33
24.190        40
24.200        27
24.210        27
24.220        33
24.230        53
24.240        33
24.250        40
24.260        47
24.270        53
24.280        40
24.290        40
24.300        60
24.310        60
24.320        73
24.330        27
24.340        13
24.350        40
24.360        47
24.370        33
24.380        33
24.390        47
24.400        40
24.410        47
24.420        47
24.430        53
24.440        33
24.450        40
24.460        60
24.470        47
24.480        40
24.490        27
24.500        53
24.510        27
24.520        40
24.530        20
24.540        33
24.550        47
24.560        40
24.570        53
24.580        40
24.590        33
24.600        60
24.610        53
24.620        27
24.630        27
24.640        47
24.650        67
24.660        20
24.670        27
24.680        53
24.690        47
24.700        80
24.710        33
24.720        73
24.730        60
24.740        27
24.750        33
24.760        53
24.770        40
24.780        47
24.790        53
24.800        33
24.810        20
24.820        60
24.830        47
24.840        33
24.850        27
24.860        60
24.870        67
24.880        47
24.890        73
24.900        40
24.910        40
24.920        20
24.930        47
24.940        27
24.950        47
24.960        80
24.970        73
24.980        33
24.990        60
25.000        20
25.010        60
25.020        33
25.030        40
25.040        73
25.050        53
25.060       100
25.070        80
25.080        67
25.090        33
25.100        60
25.110        27
25.120        33
25.130        93
25.140       107
25.150        53
25.160        33
25.170        47
25.180        73
25.190        93
25.200        47
25.210        60
25.220        73
25.230       107
25.240        47
25.250        73
25.260        20
25.270        40
25.280        73
25.290        87
25.300        40
25.310        67
25.320       100
25.330        80
25.340        67
25.350        87
25.360        33
25.370        27
25.380        80
25.390        20
25.400        47
25.410        47
25.420        47
25.430        40
25.440        40
25.450        67
25.460        60
25.470        93
25.480        60
25.490        73
25.500        67
25.510        40
25.520        47
25.530        93
25.540       100
25.550       107
25.560        93
25.570       107
25.580        93
25.590       147
25.600       100
25.610       133
25.620       140
25.630       227
25.640       233
25.650       267
25.660       267
25.670       260
25.680       313
25.690       380
25.700       506
25.710       367
25.720       426
25.730       426
25.740       453
25.750       493
25.760       626
25.770       526
25.780       493
25.790       586
25.800       473
25.810       486
25.820       446
25.830       313
25.840       293
25.850       413
25.860       287
25.870       253
25.880       193
25.890       187
25.900       153
25.910       187
25.920       147
25.930        80
25.940        93
25.950       120
25.960        73
25.970        93
25.980        67
25.990        47
26.000        47
26.010        67
26.020        53
26.030        47
26.040        40
26.050        33
26.060        67
26.070        80
26.080        40
26.090        67
26.100        60
26.110        27
26.120        13
26.130        33
26.140        20
26.150        47
26.160        40
26.170        13
26.180        33
26.190        33
26.200        60
26.210       100
26.220        67
26.230        53
26.240        53
26.250        67
26.260        40
26.270        60
26.280        27
26.290        80
26.300        40
26.310        27
26.320        27
26.330        40
26.340        73
26.350        27
26.360        60
26.370        47
26.380        40
26.390        27
26.400        60
26.410        47
26.420        47
26.430        33
26.440        27
26.450        27
26.460        47
26.470        47
26.480        47
26.490        53
26.500        40
26.510        20
26.520        27
26.530        33
26.540        60
26.550        40
26.560        60
26.570        60
26.580        20
26.590        60
26.600        47
26.610        67
26.620        20
26.630        40
26.640        40
26.650        27
26.660        33
26.670        27
26.680        40
26.690        47
26.700        67
26.710        33
26.720        33
26.730        53
26.740        60
26.750        27
26.760        33
26.770        53
26.780        20
26.790        20
26.800        47
26.810        13
26.820        40
26.830        40
26.840        27
26.850        20
26.860        13
26.870        20
26.880        40
26.890        27
26.900        40
26.910        40
26.920        53
26.930        40
26.940        60
26.950        13
26.960        27
26.970        40
26.980        47
26.990         0
27.000        27
27.010        20
27.020        27
27.030        13
27.040        13
27.050        20
27.060        27
27.070        33
27.080        27
27.090        47
27.100        47
27.110        47
27.120        27
27.130        27
27.140        13
27.150        40
27.160        13
27.170        27
27.180        40
27.190        13
27.200        33
27.210        20
27.220        20
27.230        40
27.240        33
27.250        60
27.260         7
27.270        40
27.280        27
27.290        40
27.300        27
27.310        33
27.320        27
27.330        27
27.340        33
27.350        60
27.360        80
27.370        13
27.380        40
27.390        60
27.400        33
27.410        13
27.420        47
27.430        47
27.440        33
27.450        40
27.460        47
27.470        33
27.480        40
27.490        27
27.500        47
27.510        47
27.520        53
27.530        40
27.540        33
27.550        13
27.560        40
27.570        40
27.580        40
27.590        60
27.600        53
27.610        60
27.620        27
27.630        67
27.640        40
27.650        27
27.660        73
27.670        40
27.680        60
27.690        27
27.700        40
27.710        47
27.720        47
27.730        47
27.740        40
27.750        53
27.760        20
27.770        40
27.780        40
27.790        87
27.800        20
27.810        47
27.820        53
27.830        20
27.840        27
27.850        13
27.860        13
27.870        27
27.880         7
27.890         7
27.900        33
27.910        20
27.920        40
27.930        13
27.940        67
27.950        33
27.960        27
27.970        53
27.980         7
27.990        20
28.000        20
28.010        47
28.020        27
28.030        40
28.040        40
28.050        40
28.060        40
28.070        40
28.080        60
28.090        40
28.100        40
28.110        40
28.120        47
28.130        27
28.140        87
28.150        53
28.160        47
28.170        33
28.180        47
28.190        53
28.200        60
28.210        40
28.220        20
28.230        40
28.240        40
28.250        27
28.260        53
28.270        27
28.280        33
28.290        73
28.300        33
28.310        13
28.320        27
28.330        33
28.340        87
28.350        40
28.360        20
28.370        47
28.380        60
28.390        27
28.400        60
28.410        80
28.420        60
28.430        27
28.440        27
28.450        33
28.460        33
28.470        20
28.480        33
28.490        87
28.500        40
28.510        53
28.520        40
28.530        60
28.540        67
28.550        27
28.560        53
28.570        67
28.580        67
28.590        47
28.600        87
28.610        33
28.620        60
28.630        60
28.640        53
28.650       127
28.660        20
28.670        33
28.680        53
28.690        60
28.700        47
28.710        60
28.720        80
28.730        67
28.740        73
28.750        67
28.760        80
28.770        27
28.780        40
28.790       100
28.800        93
28.810        87
28.820        87
28.830        93
28.840        80
28.850       147
28.860        80
28.870       113
28.880       147
28.890       133
28.900       240
28.910       247
28.920       160
28.930       227
28.940       233
28.950       280
28.960       220
28.970       300
28.980       313
28.990       327
29.000       353
29.010       400
29.020       360
29.030       593
29.040       566
29.050       700
29.060       886
29.070       880
29.080      1073
29.090      1120
29.100      1306
29.110      1279
29.120      1379
29.130      1439
29.140      1479
29.150      1566
29.160      1306
29.170      1366
29.180      1326
29.190      1259
29.200      1026
29.210       886
29.220       920
29.230       806
29.240       706
29.250       533
29.260       473
29.270       420
29.280       387
29.290       260
29.300       253
29.310       207
29.320       180
29.330       127
29.340       113
29.350       113
29.360       140
29.370       100
29.380       127
29.390       100
29.400        87
29.410       100
29.420       140
29.430       107
29.440       153
29.450       147
29.460       220
29.470       273
29.480       280
29.490       260
29.500       213
29.510       347
29.520       433
29.530       373
29.540       420
29.550       506
29.560       533
29.570       440
29.580       413
29.590       493
29.600       373
29.610       513
29.620       387
29.630       460
29.640       387
29.650       280
29.660       327
29.670       453
29.680       340
29.690       213
29.700       173
29.710       227
29.720       253
29.730       227
29.740       187
29.750       140
29.760        93
29.770       113
29.780       127
29.790        67
29.800        80
29.810        80
29.820        73
29.830        67
29.840        60
29.850       127
29.860        47
29.870        40
29.880        47
29.890        60
29.900        40
29.910        80
29.920        27
29.930        20
29.940        53
29.950        27
29.960        27
29.970        33
29.980        53
29.990        33
30.000        33
30.010        40
30.020        47
30.030        53
30.040        40
30.050        20
30.060        60
30.070        13
30.080        33
30.090        60
30.100        20
30.110        60
30.120        93
30.130        40
30.140        47
30.150        20
30.160        87
30.170       127
30.180        67
30.190        93
30.200        80
30.210        93
30.220       107
30.230        80
30.240       113
30.250       153
30.260       180
30.270       180
30.280       180
30.290       233
30.300       260
30.310       267
30.320       280
30.330       367
30.340       353
30.350       380
30.360       373
30.370       486
30.380       533
30.390       500
30.400       520
30.410       480
30.420       513
30.430       493
30.440       520
30.450       347
30.460       453
30.470       387
30.480       460
30.490       287
30.500       273
30.510       253
30.520       227
30.530       233
30.540       180
30.550       160
30.560       133
30.570       140
30.580       120
30.590        53
30.600        73
30.610        73
30.620       113
30.630        93
30.640       100
30.650        80
30.660       107
30.670        80
30.680        47
30.690        67
30.700        47
30.710        67
30.720        80
30.730        40
30.740        40
30.750        33
30.760        47
30.770        33
30.780        27
30.790        67
30.800        47
30.810        53
30.820        27
30.830        47
30.840        33
30.850        60
30.860        40
30.870        33
30.880        27
30.890        27
30.900        13
30.910        27
30.920        47
30.930        27
30.940        33
30.950        53
30.960        47
30.970        27
30.980        20
30.990        20
31.000        47
31.010        53
31.020        27
31.030        53
31.040        27
31.050        47
31.060        33
31.070        33
31.080        40
31.090        20
31.100        13
31.110        47
31.120        53
31.130        33
31.140        33
31.150        53
31.160        67
31.170        27
31.180        47
31.190        47
31.200        27
31.210        60
31.220        40
31.230        33
31.240        80
31.250        47
31.260        53
31.270        67
31.280        53
31.290        87
31.300        47
31.310        53
31.320        53
31.330        60
31.340        80
31.350        87
31.360        67
31.370        73
31.380        87
31.390       100
31.400       100
31.410        87
31.420       120
31.430       120
31.440       113
31.450        87
31.460       107
31.470       100
31.480       153
31.490       140
31.500        93
31.510       153
31.520       180
31.530        93
31.540       200
31.550       187
31.560       180
31.570       193
31.580       280
31.590       333
31.600       307
31.610       280
31.620       293
31.630       307
31.640       267
31.650       400
31.660       440
31.670       333
31.680       327
31.690       400
31.700       407
31.710       373
31.720       347
31.730       400
31.740       373
31.750       313
31.760       280
31.770       300
31.780       307
31.790       233
31.800       253
31.810       233
31.820       120
31.830       160
31.840       180
31.850       133
31.860       140
31.870       100
31.880        93
31.890       133
31.900        73
31.910       120
31.920       107
31.930        60
31.940        53
31.950        73
31.960        87
31.970       133
31.980       127
31.990       127
32.000       100
32.010       133
32.020       140
32.030       133
32.040       187
32.050       160
32.060       200
32.070       180
32.080       140
32.090       280
32.100       293
32.110       300
32.120       260
32.130       240
32.140       280
32.150       227
32.160       220
32.170       180
32.180       147
32.190       253
32.200       147
32.210       193
32.220       133
32.230       147
32.240       100
32.250       153
32.260       113
32.270        73
32.280        93
32.290        73
32.300        60
32.310        60
32.320        67
32.330        47
32.340        33
32.350        60
32.360        27
32.370        27
32.380       100
32.390        27
32.400        47
32.410        53
32.420        40
32.430        13
32.440         7
32.450        20
32.460        47
32.470        33
32.480        53
32.490        13
32.500        47
32.510        13
32.520        40
32.530        47
32.540        73
32.550        53
32.560        47
32.570        33
32.580        47
32.590        67
32.600        53
32.610        20
32.620        87
32.630       133
32.640       113
32.650        87
32.660        87
32.670       100
32.680       147
32.690       100
32.700       120
32.710       127
32.720        80
32.730       160
32.740       147
32.750        80
32.760       133
32.770        93
32.780        93
32.790       120
32.800        60
32.810        73
32.820        33
32.830        60
32.840        87
32.850        53
32.860        67
32.870        47
32.880        53
32.890        40
32.900        33
32.910        33
32.920        47
32.930        47
32.940        53
32.950        33
32.960        20
32.970        20
32.980        47
32.990        13
33.000        40
33.010        33
33.020        13
33.030        40
33.040        13
33.050        47
33.060        27
33.070        20
33.080        40
33.090        13
33.100        13
33.110        33
33.120         7
33.130        27
33.140        20
33.150        13
33.160        27
33.170        27
33.180        27
33.190         7
33.200        33
33.210        27
33.220        20
33.230        33
33.240        73
33.250        33
33.260        40
33.270        20
33.280        40
33.290         7
33.300        33
33.310        13
33.320        53
33.330        27
33.340        27
33.350        33
33.360        47
33.370        80
33.380        20
33.390        13
33.400        13
33.410        47
33.420        27
33.430        27
33.440        27
33.450        53
33.460        13
33.470        20
33.480        20
33.490        20
33.500        40
33.510        20
33.520        47
33.530        47
33.540        13
33.550        20
33.560        67
33.570        27
33.580        20
33.590        33
33.600        27
33.610         7
33.620        13
33.630         7
33.640        40
33.650        27
33.660        33
33.670        40
33.680        13
33.690        47
33.700        20
33.710        20
33.720        20
33.730        13
33.740        33
33.750         7
33.760        13
33.770        13
33.780        33
33.790         7
33.800        20
33.810        33
33.820        20
33.830        27
33.840        20
33.850        33
33.860        13
33.870        33
33.880        13
33.890        33
33.900        40
33.910         0
33.920        40
33.930        20
33.940        33
33.950        53
33.960        33
33.970         7
33.980        27
33.990        13
34.000        13
34.010        53
34.020        13
34.030         0
34.040        40
34.050         0
34.060         0
34.070        20
34.080        40
34.090        40
34.100        20
34.110        47
34.120        20
34.130        33
34.140        20
34.150         7
34.160        40
34.170        27
34.180        33
34.190         7
34.200        20
34.210        33
34.220        20
34.230        20
34.240        40
34.250         7
34.260        47
34.270        20
34.280        40
34.290        40
34.300         7
34.310         7
34.320        27
34.330        13
34.340        27
34.350        20
34.360        13
34.370        40
34.380        13
34.390        33
34.400        27
34.410        33
34.420        20
34.430        20
34.440        20
34.450        73
34.460        33
34.470        13
34.480        33
34.490        33
34.500        13
34.510        13
34.520        33
34.530        13
34.540        27
34.550        53
34.560        20
34.570        27
34.580        40
34.590        13
34.600        33
34.610        13
34.620        33
34.630        27
34.640        20
34.650         7
34.660        13
34.670        33
34.680        27
34.690        20
34.700        47
34.710        27
34.720        33
34.730         7
34.740        33
34.750        33
34.760        33
34.770        27
34.780        20
34.790        67
34.800        40
34.810         7
34.820        33
34.830        27
34.840        20
34.850        13
34.860        20
34.870         7
34.880        20
34.890        20
34.900        33
34.910         7
34.920        40
34.930        27
34.940        40
34.950        27
34.960         7
34.970        33
34.980        27
34.990        20
35.000        27
35.010        73
35.020        20
35.030        27
35.040        20
35.050        13
35.060        40
35.070        20
35.080        20
35.090        27
35.100        27
35.110        33
35.120        27
35.130        40
35.140        13
35.150        20
35.160        27
35.170        33
35.180        27
35.190        20
35.200        20
35.210        47
35.220        20
35.230        20
35.240        33
35.250        27
35.260        27
35.270        33
35.280        27
35.290        20
35.300         7
35.310        20
35.320        27
35.330        53
35.340        13
35.350        13
35.360        27
35.370        13
35.380        33
35.390        13
35.400        20
35.410        20
35.420        20
35.430        33
35.440        33
35.450        13
35.460        27
35.470        20
35.480        13
35.490         7
35.500        27
35.510        20
35.520        47
35.530        13
35.540        33
35.550        40
35.560        20
35.570        27
35.580        33
35.590        33
35.600        20
35.610        13
35.620        33
35.630         7
35.640        27
35.650        33
35.660        20
35.670        27
35.680        13
35.690        13
35.700        27
35.710        40
35.720        40
35.730        53
35.740        13
35.750        33
35.760        20
35.770        20
35.780        20
35.790        13
35.800        20
35.810        47
35.820        20
35.830        40
35.840        40
35.850        20
35.860        33
35.870        13
35.880         7
35.890        20
35.900        13
35.910         0
35.920        20
35.930        27
35.940         7
35.950         0
35.960        20
35.970        20
35.980        27
35.990        13
36.000        20
36.010        27
36.020        40
36.030        27
36.040        40
36.050        33
36.060        33
36.070        27
36.080        13
36.090        40
36.100        20
36.110        33
36.120        27
36.130        27
36.140        27
36.150        27
36.160        40
36.170        13
36.180        20
36.190        33
36.200        20
36.210        27
36.220        13
36.230        27
36.240        13
36.250        20
36.260        27
36.270        40
36.280        13
36.290        13
36.300        47
36.310        33
36.320        27
36.330        27
36.340        27
36.350        27
36.360        60
36.370        47
36.380        73
36.390        67
36.400        60
36.410        73
36.420        53
36.430        60
36.440        93
36.450        80
36.460        53
36.470        93
36.480        87
36.490        73
36.500        67
36.510       100
36.520        87
36.530        60
36.540        80
36.550        80
36.560        60
36.570        53
36.580        40
36.590       113
36.600       107
36.610        80
36.620        33
36.630        13
36.640        53
36.650        40
36.660        33
36.670        27
36.680        20
36.690        33
36.700        33
36.710        27
36.720        20
36.730        40
36.740         7
36.750        20
36.760        47
36.770        20
36.780        20
36.790        33
36.800        33
36.810        33
36.820        20
36.830        40
36.840        47
36.850        33
36.860        20
36.870        53
36.880        33
36.890         7
36.900        27
36.910        13
36.920        27
36.930        40
36.940        13
36.950        13
36.960        27
36.970        27
36.980        20
36.990        20
37.000        20
37.010        27
37.020         7
37.030        20
37.040        40
37.050        40
37.060        20
37.070        27
37.080         0
37.090        27
37.100        13
37.110        27
37.120        27
37.130        20
37.140        40
37.150        13
37.160        20
37.170        27
37.180         7
37.190         7
37.200        27
37.210        13
37.220        20
37.230         7
37.240        33
37.250        20
37.260        20
37.270         7
37.280        53
37.290        13
37.300         0
37.310        33
37.320        27
37.330         7
37.340        33
37.350         7
37.360        27
37.370        13
37.380        13
37.390        47
37.400        33
37.410        13
37.420        13
37.430        27
37.440        20
37.450        20
37.460        13
37.470        40
37.480        13
37.490        13
37.500        33
37.510        47
37.520        13
37.530        27
37.540        27
37.550        13
37.560        47
37.570        13
37.580        13
37.590        40
37.600        33
37.610         7
37.620        13
37.630        53
37.640        27
37.650        40
37.660        27
37.670        33
37.680        40
37.690        40
37.700        13
37.710        27
37.720         0
37.730         7
37.740        20
37.750        27
37.760        33
37.770        33
37.780        33
37.790        27
37.800        13
37.810         7
37.820        20
37.830        20
37.840        27
37.850        20
37.860        13
37.870         7
37.880        40
37.890         7
37.900        13
37.910         0
37.920        40
37.930         0
37.940         7
37.950        53
37.960        13
37.970        20
37.980       127
37.990        27
38.000        20
38.010         7
38.020         7
38.030        27
38.040        40
38.050        13
38.060        20
38.070         7
38.080        27
38.090         7
38.100        33
38.110        33
38.120        20
38.130        20
38.140         7
38.150         7
38.160        27
38.170        20
38.180        13
38.190        13
38.200         7
38.210        20
38.220        20
38.230        20
38.240        20
38.250        33
38.260        13
38.270        20
38.280        13
38.290        33
38.300        13
38.310        20
38.320        27
38.330        27
38.340        40
38.350        33
38.360         0
38.370        13
38.380        13
38.390         0
38.400         7
38.410        20
38.420        33
38.430        27
38.440        27
38.450        20
38.460        13
38.470        53
38.480        20
38.490        20
38.500        27
38.510        27
38.520         7
38.530        20
38.540         7
38.550        27
38.560        33
38.570        27
38.580        13
38.590        13
38.600        27
38.610        20
38.620        20
38.630        27
38.640        33
38.650        20
38.660        13
38.670        27
38.680         7
38.690         7
38.700        13
38.710        20
38.720        13
38.730        20
38.740         7
38.750         7
38.760        20
38.770        27
38.780        33
38.790        27
38.800         0
38.810        27
38.820        13
38.830        33
38.840        40
38.850        20
38.860        33
38.870        27
38.880        27
38.890        20
38.900        20
38.910        33
38.920        67
38.930        47
38.940        33
38.950        53
38.960        67
38.970        40
38.980        33
38.990        40
39.000        20
39.010        40
39.020        40
39.030        53
39.040        53
39.050        53
39.060        73
39.070        20
39.080        13
39.090        27
39.100        33
39.110        13
39.120        13
39.130        13
39.140        27
39.150        13
39.160        40
39.170        40
39.180        13
39.190        13
39.200         7
39.210        20
39.220        27
39.230         7
39.240        33
39.250         0
39.260        33
39.270        40
39.280        20
39.290        13
39.300        27
39.310         7
39.320        33
39.330        13
39.340        13
39.350         7
39.360        20
39.370        47
39.380        13
39.390        13
39.400        13
39.410        13
39.420        27
39.430        13
39.440        20
39.450        13
39.460         7
39.470        20
39.480        13
39.490         7
39.500         7
39.510        27
39.520         0
39.530        20
39.540        13
39.550        53
39.560        20
39.570        13
39.580        20
39.590        20
39.600         0
39.610        20
39.620         0
39.630         0
39.640        13
39.650        13
39.660        20
39.670         7
39.680        20
39.690        47
39.700        13
39.710        20
39.720        27
39.730         0
39.740        13
39.750        20
39.760        13
39.770        13
39.780        20
39.790        13
39.800        13
39.810         7
39.820         0
39.830         7
39.840        20
39.850        27
39.860        20
39.870         7
39.880        13
39.890        27
39.900        20
39.910        47
39.920        40
39.930        27
39.940        53
39.950        27
39.960        27
39.970         7
39.980        27
39.990         7
40.000        40
40.010        33
40.020        33
40.030        40
40.040        40
40.050        67
40.060         0
40.070        33
40.080         7
40.090         7
40.100        20
40.110        33
40.120        27
40.130        60
40.140         7
40.150        33
40.160        27
40.170        40
40.180        27
40.190        33
40.200        33
40.210        47
40.220        40
40.230        40
40.240        67
40.250        27
40.260        13
40.270        47
40.280        53
40.290        67
40.300        47
40.310        27
40.320        20
40.330        33
40.340        53
40.350        13
40.360        33
40.370        53
40.380        40
40.390        80
40.400        33
40.410        47
40.420        80
40.430        40
40.440        93
40.450        87
40.460        60
40.470        53
40.480        47
40.490        40
40.500        33
40.510        40
40.520        20
40.530        13
40.540        27
40.550        40
40.560        13
40.570        27
40.580        33
40.590        13
40.600        40
40.610        47
40.620         7
40.630        20
40.640        20
40.650        20
40.660         7
40.670        27
40.680        13
40.690        40
40.700         7
40.710         7
40.720        13
40.730        13
40.740        20
40.750         7
40.760         7
40.770        27
40.780        27
40.790        40
40.800         7
40.810        13
40.820        27
40.830        20
40.840        13
40.850        20
40.860        27
40.870        13
40.880        13
40.890        33
40.900         7
40.910        20
40.920         7
40.930        13
40.940        20
40.950         7
40.960        27
40.970         7
40.980        27
40.990         0
41.000        13
41.010        13
41.020        27
41.030        13
41.040        33
41.050         7
41.060        13
41.070        13
41.080         7
41.090        47
41.100         7
41.110         7
41.120        13
41.130        20
41.140        13
41.150        13
41.160        13
41.170        20
41.180        13
41.190        20
41.200        27
41.210         7
41.220        27
41.230         7
41.240        13
41.250        47
41.260         7
41.270        33
41.280        33
41.290        20
41.300        27
41.310        47
41.320        47
41.330        20
41.340        13
41.350        40
41.360         7
41.370        33
41.380        13
41.390        20
41.400        13
41.410        40
41.420         0
41.430        27
41.440        13
41.450        20
41.460         7
41.470        20
41.480        20
41.490        13
41.500        27
41.510        27
41.520        53
41.530        13
41.540         7
41.550        40
41.560        27
41.570         7
41.580        20
41.590        27
41.600        20
41.610        27
41.620        53
41.630        13
41.640        13
41.650        33
41.660        20
41.670        13
41.680        13
41.690        20
41.700        20
41.710        13
41.720        20
41.730        27
41.740        20
41.750         7
41.760        20
41.770        27
41.780        27
41.790        13
41.800        13
41.810         7
41.820        13
41.830        13
41.840        27
41.850        33
41.860        33
41.870         7
41.880        40
41.890        47
41.900        20
41.910        33
41.920        20
41.930        33
41.940        27
41.950        20
41.960        20
41.970        13
41.980        33
41.990        47
42.000        33
42.010        20
42.020        27
42.030        33
42.040        33
42.050        27
42.060        20
42.070        20
42.080        53
42.090        40
42.100        33
42.110        67
42.120        33
42.130        60
42.140        87
42.150        47
42.160        93
42.170        80
42.180       147
42.190        80
42.200        80
42.210       133
42.220       147
42.230       187
42.240       100
42.250       140
42.260       113
42.270        80
42.280       167
42.290        80
42.300       107
42.310        80
42.320        80
42.330        93
42.340        80
42.350        73
42.360        60
42.370        93
42.380        80
42.390        47
42.400        80
42.410        13
42.420       107
42.430        60
42.440        87
42.450        33
42.460        20
42.470        47
42.480        33
42.490        13
42.500        40
42.510        13
42.520        27
42.530        20
42.540        40
42.550        27
42.560        33
42.570        60
42.580        13
42.590        13
42.600        20
42.610        13
42.620        33
42.630        20
42.640        13
42.650        20
42.660        20
42.670        13
42.680        27
42.690        40
42.700        27
42.710        13
42.720        13
42.730        13
42.740        27
42.750        53
42.760         7
42.770         7
42.780        40
42.790        47
42.800        13
42.810        20
42.820         7
42.830        40
42.840        20
42.850        27
42.860        33
42.870        20
42.880        27
42.890        13
42.900        27
42.910        40
42.920        33
42.930        20
42.940        13
42.950        27
42.960        27
42.970        40
42.980        20
42.990        53
43.000        33
43.010        20
43.020        13
43.030        20
43.040        33
43.050        33
43.060        27
43.070        20
43.080        47
43.090        33
43.100        27
43.110        27
43.120        20
43.130        20
43.140        13
43.150        13
43.160         7
43.170        33
43.180        27
43.190         7
43.200        40
43.210         7
43.220        33
43.230        33
43.240        20
43.250        33
43.260        20
43.270        27
43.280        20
43.290        20
43.300        20
43.310        13
43.320        27
43.330        13
43.340        20
43.350        27
43.360        20
43.370        20
43.380        27
43.390        13
43.400         0
43.410        20
43.420         7
43.430        13
43.440         0
43.450        27
43.460        20
43.470        20
43.480        33
43.490        20
43.500        13
43.510        27
43.520        47
43.530        13
43.540        47
43.550        13
43.560        13
43.570        47
43.580        27
43.590         7
43.600        20
43.610        33
43.620        27
43.630        13
43.640        27
43.650        20
43.660        33
43.670        40
43.680        13
43.690        33
43.700        67
43.710        13
43.720        13
43.730         0
43.740         0
43.750         7
43.760        13
43.770        20
43.780        27
43.790        13
43.800        60
43.810         7
43.820         0
43.830        20
43.840        33
43.850        47
43.860         7
43.870        13
43.880        20
43.890        13
43.900        13
43.910        13
43.920        13
43.930        27
43.940        20
43.950        13
43.960         7
43.970         7
43.980        13
43.990        27
44.000        20
44.010        20
44.020        13
44.030        33
44.040         7
44.050        20
44.060        40
44.070        47
44.080         0
44.090        33
44.100        13
44.110        60
44.120        40
44.130        13
44.140        20
44.150        33
44.160        13
44.170        20
44.180        20
44.190        27
44.200        20
44.210        40
44.220        13
44.230        47
44.240        33
44.250        40
44.260        40
44.270        47
44.280        33
44.290        53
44.300       100
44.310        60
44.320       100
44.330        60
44.340        60
44.350        33
44.360        60
44.370        87
44.380        27
44.390        67
44.400        67
44.410        80
44.420        67
44.430        27
44.440        60
44.450        60
44.460        73
44.470        67
44.480        53
44.490        53
44.500        27
44.510        47
44.520        60
44.530        13
44.540        13
44.550        47
44.560        47
44.570        13
44.580        27
44.590        27
44.600        20
44.610        20
44.620        20
44.630        20
44.640        40
44.650        13
44.660        27
44.670        27
44.680        47
44.690        20
44.700         7
44.710         7
44.720        13
44.730        13
44.740        40
44.750        40
44.760        53
44.770        33
44.780        27
44.790         7
44.800        27
44.810        20
44.820        13
44.830        20
44.840         7
44.850         7
44.860         7
44.870        27
44.880        20
44.890         7
44.900        27
44.910        13
44.920        20
44.930         7
44.940        27
44.950        47
44.960        20
44.970        13
44.980        33
44.990        13
45.000        40
45.010        13
45.020        40
45.030        13
45.040        20
45.050        27
45.060        13
45.070        27
45.080        20
45.090        13
45.100        13
45.110        20
45.120        20
45.130         7
45.140         7
45.150        33
45.160        27
45.170         7
45.180         7
45.190         0
45.200        20
45.210        20
45.220         7
45.230        13
45.240        20
45.250        20
45.260        20
45.270        27
45.280        20
45.290         7
45.300        27
45.310        20
45.320        33
45.330        27
45.340        33
45.350        20
45.360        27
45.370         0
45.380        33
45.390         0
45.400         7
45.410        13
45.420        33
45.430        13
45.440        27
45.450        13
45.460        13
45.470        13
45.480        13
45.490        27
45.500        40
45.510        20
45.520        13
45.530        27
45.540        27
45.550        13
45.560        20
45.570         7
45.580        53
45.590        40
45.600        20
45.610        13
45.620        33
45.630        47
45.640        33
45.650        33
45.660        27
45.670        20
45.680        27
45.690        27
45.700        20
45.710        47
45.720        20
45.730        27
45.740        60
45.750        40
45.760        53
45.770        40
45.780        47
45.790        67
45.800        47
45.810        47
45.820        53
45.830        80
45.840        47
45.850       113
45.860       113
45.870        80
45.880        80
45.890       107
45.900        53
45.910       127
45.920        73
45.930        93
45.940       133
45.950       113
45.960       127
45.970        93
45.980       120
45.990       167
46.000       113
46.010       133
46.020       140
46.030       167
46.040       153
46.050       133
46.060       133
46.070       153
46.080       113
46.090       100
46.100       140
46.110       233
46.120       140
46.130       147
46.140       120
46.150       173
46.160       193
46.170       220
46.180       173
46.190        80
46.200       160
46.210       167
46.220       113
46.230       167
46.240       140
46.250        60
46.260       100
46.270       107
46.280       120
46.290        87
46.300       127
46.310        93
46.320        87
46.330        67
46.340        67
46.350        93
46.360        80
46.370        60
46.380        33
46.390        27
46.400        33
46.410        53
46.420        47
46.430        40
46.440        40
46.450        53
46.460        53
46.470        13
46.480        60
46.490        73
46.500        27
46.510        60
46.520        60
46.530        53
46.540        40
46.550        27
46.560        33
46.570        60
46.580        40
46.590        53
46.600        53
46.610        40
46.620        27
46.630        40
46.640        40
46.650        20
46.660        27
46.670        20
46.680         7
46.690        13
46.700        87
46.710        40
46.720        40
46.730        33
46.740        27
46.750        47
46.760        13
46.770        53
46.780        60
46.790        47
46.800        13
46.810         7
46.820        47
46.830        27
46.840        27
46.850        27
46.860        53
46.870        27
46.880        47
46.890        13
46.900        47
46.910        13
46.920        40
46.930        40
46.940        20
46.950        47
46.960        33
46.970        67
46.980        20
46.990        33
47.000        40
47.010        40
47.020        33
47.030        20
47.040        27
47.050        13
47.060        13
47.070        33
47.080        40
47.090        40
47.100        33
47.110        20
47.120        20
47.130        20
47.140        33
47.150        33
47.160        27
47.170        13
47.180        27
47.190        13
47.200        13
47.210        27
47.220        33
47.230         7
47.240        53
47.250         7
47.260        27
47.270        13
47.280        13
47.290         0
47.300        27
47.310        13
47.320        20
47.330         7
47.340        20
47.350        13
47.360         0
47.370        13
47.380        13
47.390        27
47.400        27
47.410         7
47.420        20
47.430        13
47.440        13
47.450        13
47.460        13
47.470        40
47.480        53
47.490        33
47.500        20
47.510        20
47.520        20
47.530        20
47.540        47
47.550        13
47.560        33
47.570        33
47.580        33
47.590         7
47.600        13
47.610         0
47.620         7
47.630         7
47.640        53
47.650        47
47.660        20
47.670        13
47.680        13
47.690       153
47.700        47
47.710        40
47.720        33
47.730        13
47.740         7
47.750        33
47.760        27
47.770        33
47.780        20
47.790        20
47.800        13
47.810        27
47.820        20
47.830        20
47.840        27
47.850        27
47.860         0
47.870         0
47.880        13
47.890        13
47.900        27
47.910        27
47.920        33
47.930        13
47.940        33
47.950        20
47.960        27
47.970        20
47.980         7
47.990        47
48.000         7
48.010        13
48.020        33
48.030         7
48.040        40
48.050         7
48.060         7
48.070         7
48.080        27
48.090        13
48.100        40
48.110        27
48.120         7
48.130        40
48.140        33
48.150        13
48.160         0
48.170        13
48.180         0
48.190        13
48.200        33
48.210         7
48.220         7
48.230        20
48.240        33
48.250        33
48.260        13
48.270         7
48.280         7
48.290        20
48.300         7
48.310        33
48.320        33
48.330        33
48.340        13
48.350        13
48.360        13
48.370        20
48.380        13
48.390        27
48.400        20
48.410        53
48.420         7
48.430        20
48.440         7
48.450         0
48.460        13
48.470         0
48.480        13
48.490        27
48.500        40
48.510        40
48.520        13
48.530        13
48.540        20
48.550        33
48.560        20
48.570        13
48.580        27
48.590        13
48.600        13
48.610        20
48.620        40
48.630        27
48.640        20
48.650        27
48.660        20
48.670        33
48.680        27
48.690        20
48.700        13
48.710        27
48.720         7
48.730        47
48.740        53
48.750         7
48.760        27
48.770        40
48.780        47
48.790        47
48.800        27
48.810        53
48.820        20
48.830        13
48.840        47
48.850        33
48.860        47
48.870        33
48.880        93
48.890        87
48.900        87
48.910        73
48.920        73
48.930       107
48.940       133
48.950        87
48.960        93
48.970        80
48.980        87
48.990       100
49.000       107
49.010        93
49.020       153
49.030       160
49.040       100
49.050       127
49.060        87
49.070       187
49.080        60
49.090       120
49.100       107
49.110        80
49.120       113
49.130        73
49.140       133
49.150        67
49.160        40
49.170        27
49.180        47
49.190       100
49.200        47
49.210        53
49.220        40
49.230        47
49.240        67
49.250        60
49.260        67
49.270        67
49.280        27
49.290        47
49.300        40
49.310        27
49.320        27
49.330        40
49.340        27
49.350        27
49.360        33
49.370        27
49.380        20
49.390        13
49.400         7
49.410        33
49.420        20
49.430        33
49.440        13
49.450        27
49.460        20
49.470        13
49.480        20
49.490        33
49.500        33
49.510         7
49.520         7
49.530        13
49.540        47
49.550        20
49.560        27
49.570        33
49.580        20
49.590        33
49.600        20
49.610        13
49.620        27
49.630         7
49.640        40
49.650        13
49.660        20
49.670        27
49.680        13
49.690        20
49.700        27
49.710        20
49.720        13
49.730        47
49.740        40
49.750        27
49.760        47
49.770        40
49.780        27
49.790        33
49.800        20
49.810        13
49.820        93
49.830        47
49.840        53
49.850        33
49.860        60
49.870        80
49.880        27
49.890        53
49.900        87
49.910        40
49.920        47
49.930        40
49.940        60
49.950        73
49.960        80
49.970        67
49.980        53
49.990        53
50.000       113
50.010        73
50.020        40
50.030        53
50.040        47
50.050        20
50.060        33
50.070        60
50.080        53
50.090        33
50.100        40
50.110        20
50.120        33
50.130        27
50.140        40
50.150        20
50.160        53
50.170         7
50.180        40
50.190        33
50.200        53
50.210        33
50.220        13
50.230        47
50.240        13
50.250        27
50.260        13
50.270        47
50.280        33
50.290        13
50.300        13
50.310        47
50.320        33
50.330        33
50.340        13
50.350        47
50.360        20
50.370        13
50.380        13
50.390        53
50.400        13
50.410        20
50.420        27
50.430        20
50.440        73
50.450         7
50.460        27
50.470        13
50.480        53
50.490        73
50.500        67
50.510        20
50.520        47
50.530        27
50.540        33
50.550        20
50.560        20
50.570        33
50.580        40
50.590        47
50.600        27
50.610        27
50.620        53
50.630        27
50.640        33
50.650        27
50.660        27
50.670        53
50.680        33
50.690        13
50.700        47
50.710        27
50.720        27
50.730        20
50.740        27
50.750        13
50.760        13
50.770        20
50.780        40
50.790        13
50.800        53
50.810        33
50.820        13
50.830        27
50.840        20
50.850        47
50.860        33
50.870        33
50.880         7
50.890        40
50.900        40
50.910         7
50.920        20
50.930        53
50.940        40
50.950        27
50.960        40
50.970        27
50.980        47
50.990        40
51.000        27
51.010        33
51.020         0
51.030        53
51.040        33
51.050        53
51.060        60
51.070        60
51.080        47
51.090        53
51.100        47
51.110        47
51.120        53
51.130        73
51.140        53
51.150        73
51.160        53
51.170        53
51.180        60
51.190        27
51.200        80
51.210        27
51.220        33
51.230        27
51.240        27
51.250        27
51.260        87
51.270        40
51.280        47
51.290        47
51.300        33
51.310       113
51.320        53
51.330        53
51.340        67
51.350        40
51.360        67
51.370        67
51.380        80
51.390        27
51.400        13
51.410        40
51.420        80
51.430        60
51.440        33
51.450        53
51.460        47
51.470        33
51.480        53
51.490        47
51.500        80
51.510        53
51.520        73
51.530        27
51.540        53
51.550        53
51.560        27
51.570        73
51.580        40
51.590        53
51.600        67
51.610        60
51.620        80
51.630        67
51.640        73
51.650       113
51.660       107
51.670       120
51.680        93
51.690        73
51.700       160
51.710       127
51.720       167
51.730        67
51.740       160
51.750       167
51.760       213
51.770       160
51.780       193
51.790       227
51.800       133
51.810       213
51.820       213
51.830       167
51.840       113
51.850       207
51.860       200
51.870       187
51.880       213
51.890       213
51.900       113
51.910       160
51.920       167
51.930       167
51.940       180
51.950       200
51.960       173
51.970       167
51.980       133
51.990       153
52.000       140
52.010       227
52.020       113
52.030       140
52.040       167
52.050       127
52.060       167
52.070       147
52.080        93
52.090       113
52.100       180
52.110       107
52.120       113
52.130       120
52.140       180
52.150       207
52.160       133
52.170       213
52.180       227
52.190       200
52.200       233
52.210       320
52.220       387
52.230       560
52.240       653
52.250       706
52.260       913
52.270      1086
52.280      1140
52.290      1499
52.300      2006
52.310      2079
52.320      2292
52.330      2652
52.340      2626
52.350      2766
52.360      2979
52.370      3152
52.380      2912
52.390      3079
52.400      2852
52.410      2886
52.420      2472
52.430      2326
52.440      1953
52.450      1879
52.460      1646
52.470      1699
52.480      1693
52.490      1766
52.500      1673
52.510      1546
52.520      1493
52.530      1513
52.540      1593
52.550       960
52.560       966
52.570       900
52.580       693
52.590       540
52.600       420
52.610       300
52.620       300
52.630       180
52.640       227
52.650       140
52.660       120
52.670       107
52.680       133
52.690       120
52.700        80
52.710       113
52.720        67
52.730        93
52.740        80
52.750       107
52.760        40
52.770        53
52.780       100
52.790       107
52.800        67
52.810       100
52.820        87
52.830        73
52.840        93
52.850        87
52.860       100
52.870       120
52.880        87
52.890        20
52.900        40
52.910        47
52.920        87
52.930        53
52.940        67
52.950        53
52.960        40
52.970        67
52.980        67
52.990        60
53.000        67
53.010        80
53.020        33
53.030        73
53.040        47
53.050        33
53.060        67
53.070        87
53.080        73
53.090        53
53.100        53
53.110        40
53.120        60
53.130        67
53.140        20
53.150        60
53.160        47
53.170        53
53.180        73
53.190        53
53.200        80
53.210        73
53.220        40
53.230        13
53.240        20
53.250        87
53.260        40
53.270        47
53.280        33
53.290         7
53.300        33
53.310        27
53.320        27
53.330        40
53.340        60
53.350        47
53.360        20
53.370       100
53.380        60
53.390        53
53.400        53
53.410        60
53.420        27
53.430        60
53.440        33
53.450        40
53.460        47
53.470        33
53.480        40
53.490        40
53.500        53
53.510        53
53.520        67
53.530        33
53.540        33
53.550        53
53.560        47
53.570        40
53.580        53
53.590        33
53.600        60
53.610        40
53.620        53
53.630        27
53.640        27
53.650        47
53.660        67
53.670        47
53.680        27
53.690        47
53.700        27
53.710        40
53.720        40
53.730        47
53.740        20
53.750        27
53.760        27
53.770        67
53.780        60
53.790        33
53.800        20
53.810        27
53.820        33
53.830         7
53.840        47
53.850        53
53.860        27
53.870        33
53.880        20
53.890        20
53.900        20
53.910        13
53.920        20
53.930        33
53.940        40
53.950        60
53.960        27
53.970        40
53.980        33
53.990        40
54.000        13
54.010        47
54.020        47
54.030        33
54.040        27
54.050        40
54.060        33
54.070        33
54.080        47
54.090        53
54.100        40
54.110        47
54.120         7
54.130        47
54.140        40
54.150        33
54.160        33
54.170        60
54.180         7
54.190        27
54.200        33
54.210        53
54.220        33
54.230         7
54.240        27
54.250        47
54.260        33
54.270        40
54.280         7
54.290        33
54.300        13
54.310        40
54.320        27
54.330        33
54.340        33
54.350        60
54.360         7
54.370        60
54.380        40
54.390        40
54.400        20
54.410        73
54.420        33
54.430        40
54.440        60
54.450        33
54.460        20
54.470        27
54.480        47
54.490        53
54.500         7
54.510        53
54.520        53
54.530        40
54.540        33
54.550        40
54.560        60
54.570        27
54.580        60
54.590        20
54.600        53
54.610        47
54.620        47
54.630       100
54.640        40
54.650        40
54.660        20
54.670        40
54.680        60
54.690        33
54.700        80
54.710        87
54.720        73
54.730        93
54.740        73
54.750        73
54.760       113
54.770        87
54.780       107
54.790        87
54.800        80
54.810       160
54.820       100
54.830       160
54.840       133
54.850        93
54.860       107
54.870       113
54.880        87
54.890       133
54.900       127
54.910        73
54.920       107
54.930       147
54.940       100
54.950        67
54.960        87
54.970       100
54.980        93
54.990        80
55.000       133
55.010       140
55.020        40
55.030       113
55.040        60
55.050        87
55.060        80
55.070        53
55.080        67
55.090        67
55.100        67
55.110        67
55.120        27
55.130        13
55.140        67
55.150        33
55.160        60
55.170        27
55.180        20
55.190        47
55.200        47
55.210        27
55.220        13
55.230        47
55.240        40
55.250        20
55.260        27
55.270        40
55.280         0
55.290        47
55.300        13
55.310        60
55.320        20
55.330        40
55.340         7
55.350        27
55.360        13
55.370        33
55.380        13
55.390        33
55.400        27
55.410         7
55.420        40
55.430        20
55.440        13
55.450        27
55.460        60
55.470        40
55.480        13
55.490        27
55.500        20
55.510        60
55.520        60
55.530        20
55.540        33
55.550        40
55.560        27
55.570        53
55.580        13
55.590        13
55.600        27
55.610        20
55.620        40
55.630        60
55.640        27
55.650        20
55.660        47
55.670        27
55.680        60
55.690        13
55.700        40
55.710         0
55.720        20
55.730        33
55.740        20
55.750        40
55.760        27
55.770        33
55.780         7
55.790        13
55.800        27
55.810        27
55.820         7
55.830        27
55.840        13
55.850        20
55.860        13
55.870        27
55.880         7
55.890        33
55.900        27
55.910        27
55.920        20
55.930        47
55.940        27
55.950        27
55.960        40
55.970        40
55.980        33
55.990        47
56.000        53
56.010        13
56.020        27
56.030        47
56.040        33
56.050        53
56.060        20
56.070        13
56.080        27
56.090        33
56.100        13
56.110        13
56.120        27
56.130        20
56.140        40
56.150        27
56.160        47
56.170         7
56.180        40
56.190        33
56.200        20
56.210        27
56.220        47
56.230        27
56.240        13
56.250        33
56.260        13
56.270        47
56.280        67
56.290        27
56.300        27
56.310         7
56.320        47
56.330        33
56.340        33
56.350        13
56.360        27
56.370        67
56.380        27
56.390        20
56.400        33
56.410        20
56.420        33
56.430        13
56.440        47
56.450        27
56.460        13
56.470        27
56.480        13
56.490        27
56.500        33
56.510        13
56.520        20
56.530        20
56.540        13
56.550        13
56.560        33
56.570        27
56.580        13
56.590        20
56.600        13
56.610        20
56.620        27
56.630        13
56.640         0
56.650        40
56.660        20
56.670        47
56.680         7
56.690        33
56.700        20
56.710        13
56.720        27
56.730        40
56.740        13
56.750        13
56.760         7
56.770        40
56.780        13
56.790        33
56.800        27
56.810        20
56.820        47
56.830         7
56.840        27
56.850        27
56.860        13
56.870        27
56.880        33
56.890        13
56.900        33
56.910        27
56.920         7
56.930        20
56.940        27
56.950        20
56.960        20
56.970        47
56.980        33
56.990        47
57.000        20
57.010        13
57.020        40
57.030        20
57.040        20
57.050        33
57.060        53
57.070        27
57.080        13
57.090        13
57.100         7
57.110        20
57.120        33
57.130        53
57.140        20
57.150        47
57.160        40
57.170        27
57.180        40
57.190        27
57.200        33
57.210         7
57.220        33
57.230         7
57.240        20
57.250        13
57.260        27
57.270        27
57.280        13
57.290        20
57.300         7
57.310        20
57.320        20
57.330         0
57.340        13
57.350        33
57.360        33
57.370        20
57.380        27
57.390         7
57.400        13
57.410        47
57.420        40
57.430        13
57.440         7
57.450        20
57.460        47
57.470        13
57.480         7
57.490         7
57.500        27
57.510        27
57.520        20
57.530        13
57.540        20
57.550         7
57.560        33
57.570        47
57.580        33
57.590        20
57.600         7
57.610        40
57.620        40
57.630        13
57.640        27
57.650        47
57.660        40
57.670        13
57.680        33
57.690        40
57.700        27
57.710        20
57.720        40
57.730        27
57.740        20
57.750        33
57.760        20
57.770        47
57.780        20
57.790        47
57.800        47
57.810        33
57.820        27
57.830        27
57.840        27
57.850        27
57.860        20
57.870        13
57.880        40
57.890        27
57.900        20
57.910        33
57.920         7
57.930        20
57.940        13
57.950        33
57.960        27
57.970        60
57.980        27
57.990        27
58.000        33
58.010        40
58.020        27
58.030         7
58.040        33
58.050        13
58.060        13
58.070        20
58.080        33
58.090        20
58.100        33
58.110        40
58.120        27
58.130        13
58.140        20
58.150        27
58.160        13
58.170        13
58.180        40
58.190        13
58.200        27
58.210        13
58.220        13
58.230        20
58.240        13
58.250        13
58.260         0
58.270        20
58.280        27
58.290         0
58.300        33
58.310        20
58.320        20
58.330        20
58.340        13
58.350        27
58.360        13
58.370        20
58.380        33
58.390         7
58.400        13
58.410         7
58.420        33
58.430        27
58.440         7
58.450        27
58.460        20
58.470        13
58.480        27
58.490        20
58.500        20
58.510        20
58.520        40
58.530        40
58.540        33
58.550        47
58.560         7
58.570        27
58.580        20
58.590        13
58.600         7
58.610         7
58.620        27
58.630        40
58.640        33
58.650         0
58.660        20
58.670        27
58.680        20
58.690        27
58.700        33
58.710        20
58.720        33
58.730        13
58.740        20
58.750        27
58.760        33
58.770        33
58.780        20
58.790        13
58.800         7
58.810        13
58.820        13
58.830        20
58.840        20
58.850        13
58.860        20
58.870        20
58.880        20
58.890        20
58.900         0
58.910        13
58.920        40
58.930         0
58.940        40
58.950        13
58.960        27
58.970        27
58.980        13
58.990        13
59.000        33
59.010         0
59.020        27
59.030        13
59.040        13
59.050        27
59.060         7
59.070        33
59.080         7
59.090        13
59.100        13
59.110        20
59.120        27
59.130        27
59.140         0
59.150         7
59.160        20
59.170         7
59.180         7
59.190        20
59.200        13
59.210         7
59.220        33
59.230        20
59.240        20
59.250        33
59.260         0
59.270         7
59.280         7
59.290        13
59.300        33
59.310        27
59.320        33
59.330        13
59.340        47
59.350         7
59.360        20
59.370        20
59.380        13
59.390        33
59.400        13
59.410        33
59.420        13
59.430        27
59.440        40
59.450        20
59.460        13
59.470        53
59.480        27
59.490        40
59.500        20
59.510        27
59.520        13
59.530        53
59.540        27
59.550        20
59.560        27
59.570        27
59.580        20
59.590        20
59.600        20
59.610        33
59.620        33
59.630        33
59.640        60
59.650        27
59.660        27
59.670        33
59.680        40
59.690        40
59.700        27
59.710        40
59.720        60
59.730        47
59.740        33
59.750        33
59.760        20
59.770        73
59.780        40
59.790        33
59.800        33
59.810        53
59.820        40
59.830        40
59.840        40
59.850        33
59.860        40
59.870        47
59.880        33
59.890        13
59.900        13
59.910        47
59.920        53
59.930        33
59.940        33
59.950        13
59.960        47
59.970        20
59.980        20
59.990        20
60.000        40
