20.000        33
20.010        33
20.020        47
20.030        67
20.040        80
20.050        67
20.060        93
20.070        87
20.080        53
20.090        93
20.100        40
20.110        20
20.120        53
20.130        33
20.140        60
20.150        87
20.160        73
20.170        87
20.180        47
20.190        67
20.200        53
20.210        60
20.220        33
20.230        47
20.240        87
20.250        60
20.260        47
20.270        40
20.280        33
20.290        33
20.300        53
20.310        40
20.320        87
20.330        60
20.340        40
20.350        40
20.360        87
20.370        20
20.380       100
20.390        47
20.400        40
20.410        80
20.420        47
20.430        53
20.440        53
20.450        60
20.460        33
20.470        47
20.480        53
20.490        60
20.500        47
20.510        33
20.520        47
20.530        27
20.540        53
20.550        93
20.560        60
20.570        33
20.580        47
20.590        53
20.600        27
20.610        40
20.620        40
20.630        13
20.640        47
20.650        47
20.660        40
20.670        67
20.680        47
20.690        67
20.700        47
20.710        27
20.720        33
20.730        33
20.740        40
20.750        33
20.760        27
20.770        33
20.780        67
20.790        67
20.800        60
20.810        47
20.820        27
20.830        27
20.840        53
20.850        60
20.860        13
20.870        47
20.880        13
20.890        47
20.900        67
20.910        40
20.920        40
20.930        53
20.940        27
20.950        47
20.960        20
20.970        67
20.980        53
20.990        40
21.000       100
21.010        40
21.020        33
21.030        33
21.040        27
21.050        47
21.060        40
21.070        80
21.080        40
21.090        47
21.100         7
21.110        47
21.120        33
21.130        53
21.140        40
21.150        67
21.160        60
21.170        93
21.180        60
21.190        60
21.200        60
21.210        33
21.220        53
21.230        47
21.240        40
21.250        33
21.260        40
21.270        47
21.280        20
21.290        47
21.300        33
21.310        67
21.320        33
21.330        33
21.340        27
21.350        53
21.360        53
21.370        60
21.380        40
21.390        27
21.400        33
21.410        40
21.420        40
21.430        33
21.440        80
21.450        33
21.460        73
21.470        53
21.480        40
21.490        73
21.500        53
21.510        20
21.520        47
21.530        33
21.540        20
21.550        47
21.560        53
21.570        40
21.580        40
21.590        33
21.600        33
21.610        47
21.620        53
21.630        27
21.640        20
21.650        20
21.660       107
21.670        60
21.680        60
21.690        53
21.700        40
21.710        27
21.720        47
21.730        40
21.740        53
21.750        27
21.760        33
21.770        27
21.780        33
21.790        73
21.800        53
21.810        40
21.820        53
21.830        27
21.840        60
21.850        87
21.860        67
21.870        47
21.880        13
21.890        60
21.900        60
21.910        40
21.920        53
21.930        33
21.940        60
21.950        53
21.960        47
21.970        40
21.980        53
21.990        73
22.000        47
22.010        80
22.020        73
22.030        27
22.040        47
22.050        33
22.060        40
22.070        27
22.080        60
22.090        27
22.100        47
22.110        60
22.120        40
22.130        60
22.140        87
22.150        87
22.160        60
22.170       120
22.180        93
22.190        67
22.200        40
22.210        80
22.220       100
22.230        80
22.240       140
22.250        73
22.260       120
22.270       107
22.280       160
22.290       127
22.300       180
22.310        80
22.320       227
22.330       200
22.340       133
22.350       133
22.360       273
22.370       233
22.380       267
22.390       347
22.400       293
22.410       287
22.420       347
22.430       340
22.440       446
22.450       586
22.460       367
22.470       413
22.480       480
22.490       533
22.500       546
22.510       400
22.520       393
22.530       340
22.540       360
22.550       247
22.560       227
22.570       233
22.580       207
22.590       147
22.600        80
22.610       167
22.620       120
22.630       120
22.640       113
22.650       120
22.660        60
22.670       107
22.680        53
22.690       100
22.700        53
22.710       120
22.720       107
22.730       153
22.740       100
22.750       113
22.760       100
22.770       127
22.780       133
22.790       180
22.800       173
22.810       147
22.820       227
22.830       113
22.840       307
22.850       240
22.860       227
22.870       193
22.880       273
22.890       213
22.900       220
22.910       253
22.920       307
22.930       267
22.940       213
22.950       207
22.960       200
22.970       280
22.980       200
22.990       173
23.000       227
23.010       187
23.020       127
23.030       113
23.040       167
23.050        73
23.060       147
23.070        80
23.080        47
23.090       147
23.100       120
23.110        80
23.120        33
23.130        47
23.140        67
23.150        40
23.160        27
23.170        73
23.180        53
23.190        53
23.200        67
23.210        67
23.220        60
23.230        47
23.240       293
23.250        53
23.260        33
23.270        40
23.280        47
23.290        47
23.300        47
23.310        27
23.320        87
23.330        87
23.340        60
23.350        67
23.360        40
23.370        20
23.380        27
23.390        33
23.400        53
23.410        53
23.420        27
23.430        47
23.440        60
23.450        53
23.460        27
23.470        40
23.480        40
23.490        40
23.500        47
23.510        53
23.520        47
23.530        60
23.540        40
23.550        73
23.560        20
23.570        47
23.580        53
23.590        87
23.600        60
23.610        20
23.620        40
23.630        53
23.640        60
23.650        40
23.660        67
23.670        53
23.680        27
23.690        53
23.700        67
23.710        53
23.720        20
23.730        33
23.740        33
23.750        40
23.760        33
23.770        40
23.780        60
23.790        60
23.800        40
23.810        27
23.820        20
23.830        40
23.840        13
23.850        53
23.860        27
23.870        20
23.880        47
23.890        40
23.900        40
23.910        33
23.920        53
23.930        53
23.940        33
23.950        60
23.960        53
23.970        13
23.980        27
23.990        80
24.000        33
24.010        13
24.020        33
24.030        47
24.040        40
24.050        53
24.060        40
24.070        47
24.080        73
24.090        47
24.100        53
24.110        20
24.120        47
24.130        47
24.140        27
24.150        73
24.160        60
24.170        33
24.180        13
24.190        47
24.200        47
24.210         7
24.220        47
24.230        53
24.240        47
24.250        47
24.260        27
24.270        53
24.280        60
24.290        60
24.300        33
24.310        40
24.320        40
24.330        60
24.340        73
24.350        27
24.360        33
24.370        60
24.380        27
24.390        27
24.400        47
24.410        60
24.420        20
24.430        53
24.440        33
24.450        60
24.460        20
24.470        27
24.480         7
24.490        27
24.500        47
24.510        40
24.520        40
24.530        40
24.540        67
24.550        53
24.560        53
24.570        80
24.580        47
24.590        13
24.600        47
24.610        33
24.620        67
24.630        67
24.640        60
24.650        40
24.660        33
24.670        40
24.680        20
24.690        73
24.700        27
24.710        73
24.720        47
24.730        47
24.740         0
24.750        60
24.760        40
24.770        60
24.780        53
24.790        33
24.800        53
24.810        80
24.820       107
24.830        27
24.840        40
24.850        33
24.860        13
24.870        47
24.880        27
24.890        40
24.900        60
24.910        47
24.920        60
24.930        33
24.940        60
24.950        47
24.960        33
24.970        67
24.980        80
24.990       127
25.000        60
25.010        47
25.020        40
25.030        60
25.040        53
25.050        47
25.060        53
25.070        33
25.080        53
25.090        67
25.100        33
25.110        40
25.120        53
25.130        47
25.140        40
25.150        60
25.160        60
25.170        27
25.180        40
25.190        40
25.200        53
25.210        80
25.220        33
25.230        27
25.240        27
25.250        27
25.260        27
25.270        67
25.280        47
25.290        73
25.300        53
25.310        47
25.320        27
25.330        60
25.340       100
25.350        20
25.360        87
25.370        67
25.380        53
25.390        93
25.400        67
25.410        53
25.420        93
25.430        67
25.440        40
25.450        60
25.460        60
25.470        47
25.480        47
25.490        67
25.500        73
25.510        53
25.520        53
25.530        53
25.540        93
25.550       120
25.560       153
25.570       133
25.580        93
25.590       140
25.600       127
25.610       100
25.620       140
25.630       127
25.640       147
25.650       140
25.660       173
25.670       113
25.680       180
25.690       160
25.700       213
25.710       207
25.720       187
25.730       180
25.740       167
25.750       160
25.760       187
25.770       167
25.780       173
25.790       160
25.800       127
25.810       147
25.820       107
25.830       107
25.840       113
25.850       100
25.860       113
25.870        93
25.880        53
25.890        60
25.900        53
25.910        47
25.920        60
25.930        80
25.940        53
25.950        53
25.960         7
25.970        13
25.980        13
25.990        73
26.000        47
26.010        33
26.020        47
26.030        33
26.040        13
26.050        27
26.060        53
26.070        13
26.080        53
26.090        40
26.100        53
26.110        13
26.120        53
26.130        27
26.140        60
26.150        53
26.160        53
26.170        40
26.180        13
26.190        27
26.200        40
26.210        40
26.220        27
26.230        80
26.240        40
26.250        27
26.260        20
26.270        33
26.280        60
26.290        33
26.300        27
26.310        27
26.320        40
26.330        53
26.340        27
26.350        27
26.360        53
26.370        47
26.380        40
26.390        33
26.400        53
26.410        40
26.420        20
26.430        47
26.440        33
26.450        53
26.460        40
26.470        47
26.480        20
26.490        33
26.500        53
26.510        80
26.520        20
26.530        60
26.540        27
26.550        13
26.560        40
26.570        13
26.580        40
26.590        40
26.600        53
26.610        40
26.620        47
26.630        27
26.640        40
26.650        40
26.660        47
26.670        40
26.680        53
26.690        40
26.700        53
26.710        33
26.720        13
26.730        40
26.740        33
26.750        33
26.760        20
26.770        20
26.780        40
26.790        13
26.800        53
26.810        20
26.820        27
26.830        33
26.840        33
26.850        20
26.860        47
26.870        40
26.880        67
26.890        27
26.900        40
26.910        47
26.920        20
26.930        27
26.940        53
26.950        27
26.960        20
26.970        33
26.980        53
26.990        27
27.000        20
27.010        53
27.020        60
27.030        27
27.040        40
27.050        47
27.060        40
27.070        40
27.080        27
27.090        13
27.100        40
27.110        47
27.120        60
27.130        20
27.140        40
27.150        60
27.160        20
27.170        47
27.180        13
27.190        27
27.200        53
27.210        47
27.220        60
27.230         7
27.240        40
27.250        20
27.260        20
27.270        67
27.280        33
27.290        27
27.300        40
27.310        47
27.320        13
27.330        27
27.340        20
27.350        40
27.360        40
27.370        13
27.380        60
27.390         7
27.400        47
27.410        27
27.420        47
27.430        73
27.440        33
27.450        27
27.460        60
27.470        40
27.480        60
27.490        47
27.500        27
27.510        27
27.520        33
27.530        20
27.540        33
27.550        20
27.560        40
27.570        33
27.580        20
27.590        67
27.600        33
27.610        40
27.620        67
27.630        40
27.640        27
27.650        60
27.660        53
27.670        40
27.680        27
27.690        67
27.700        27
27.710        73
27.720        33
27.730        33
27.740        60
27.750        47
27.760        13
27.770        47
27.780        20
27.790        60
27.800        67
27.810        40
27.820        53
27.830        33
27.840        53
27.850        40
27.860        27
27.870        60
27.880        40
27.890        20
27.900        47
27.910        60
27.920        40
27.930        13
27.940        67
27.950        47
27.960        73
27.970        27
27.980        47
27.990        27
28.000        67
28.010       100
28.020        40
28.030        67
28.040       100
28.050        33
28.060        67
28.070        60
28.080       120
28.090        47
28.100        93
28.110        47
28.120        67
28.130       113
28.140       113
28.150       107
28.160        93
28.170        87
28.180       173
28.190        93
28.200       147
28.210        80
28.220        73
28.230        93
28.240       147
28.250       147
28.260       147
28.270        87
28.280       113
28.290       133
28.300       133
28.310       120
28.320       107
28.330       133
28.340       120
28.350       100
28.360        73
28.370       100
28.380       147
28.390       120
28.400        67
28.410        87
28.420        60
28.430        80
28.440        73
28.450        93
28.460        73
28.470        67
28.480        73
28.490        53
28.500        53
28.510        40
28.520        13
28.530        40
28.540        40
28.550        20
28.560        47
28.570        53
28.580        47
28.590        80
28.600        93
28.610        47
28.620        73
28.630        80
28.640        40
28.650        40
28.660       107
28.670        67
28.680        53
28.690        20
28.700        80
28.710        73
28.720        80
28.730       107
28.740        33
28.750        60
28.760        33
28.770        47
28.780       120
28.790        53
28.800        93
28.810       133
28.820       107
28.830       140
28.840       120
28.850        80
28.860       127
28.870       147
28.880       120
28.890       147
28.900       167
28.910       140
28.920       173
28.930       140
28.940       140
28.950       207
28.960       260
28.970       287
28.980       207
28.990       207
29.000       213
29.010       213
29.020       213
29.030       207
29.040       200
29.050       220
29.060       167
29.070       220
29.080       127
29.090       173
29.100       180
29.110       227
29.120       233
29.130       120
29.140       133
29.150       167
29.160       120
29.170       127
29.180       127
29.190       107
29.200        80
29.210        80
29.220       120
29.230        67
29.240        73
29.250        67
29.260        80
29.270        87
29.280        53
29.290       100
29.300        87
29.310        80
29.320        40
29.330        60
29.340        53
29.350       113
29.360       113
29.370       127
29.380        80
29.390        80
29.400        80
29.410        60
29.420       100
29.430        87
29.440       160
29.450       113
29.460       180
29.470       153
29.480       160
29.490       167
29.500       113
29.510       227
29.520       187
29.530       133
29.540       127
29.550       200
29.560       133
29.570       213
29.580       207
29.590       140
29.600       113
29.610       120
29.620       153
29.630       153
29.640       147
29.650       100
29.660       120
29.670       107
29.680       113
29.690        93
29.700        60
29.710        80
29.720        53
29.730        87
29.740        53
29.750        13
29.760        47
29.770        20
29.780        40
29.790        13
29.800        60
29.810        40
29.820        20
29.830        27
29.840        40
29.850        53
29.860        47
29.870        53
29.880        33
29.890        60
29.900        27
29.910        27
29.920        47
29.930        27
29.940        47
29.950        20
29.960        47
29.970        47
29.980        20
29.990        33
30.000        40
30.010        53
30.020        33
30.030        27
30.040        20
30.050        13
30.060        47
30.070        27
30.080        47
30.090        53
30.100        13
30.110        47
30.120        20
30.130        47
30.140        47
30.150        47
30.160        67
30.170        73
30.180        60
30.190        53
30.200        33
30.210        67
30.220        53
30.230        87
30.240        80
30.250        93
30.260        87
30.270       100
30.280       113
30.290       120
30.300       113
30.310       147
30.320       173
30.330       167
30.340       120
30.350       180
30.360       113
30.370       127
30.380       107
30.390       127
30.400       187
30.410       133
30.420       120
30.430       127
30.440       133
30.450        80
30.460       107
30.470        87
30.480        93
30.490        67
30.500        40
30.510        47
30.520        73
30.530        47
30.540        80
30.550        33
30.560        33
30.570        40
30.580        47
30.590        27
30.600        40
30.610        20
30.620        60
30.630        67
30.640        67
30.650         7
30.660        47
30.670        20
30.680        20
30.690        33
30.700        27
30.710        53
30.720        47
30.730        53
30.740        40
30.750        20
30.760        40
30.770        40
30.780        33
30.790        40
30.800        53
30.810        33
30.820        33
30.830        33
30.840        13
30.850        47
30.860        33
30.870        27
30.880        73
30.890        27
30.900        33
30.910        27
30.920        20
30.930        60
30.940        33
30.950        60
30.960        40
30.970        27
30.980        27
30.990        20
31.000         7
31.010        47
31.020         7
31.030        60
31.040        47
31.050        33
31.060        33
31.070        20
31.080        20
31.090        20
31.100        67
31.110        20
31.120        20
31.130        33
31.140        87
31.150        27
31.160        60
31.170         7
31.180        20
31.190        47
31.200        20
31.210        27
31.220        47
31.230        27
31.240        27
31.250        20
31.260        33
31.270        33
31.280        40
31.290        20
31.300        33
31.310        27
31.320        13
31.330        53
31.340        53
31.350        40
31.360        67
31.370        40
31.380        33
31.390        20
31.400        40
31.410        27
31.420        20
31.430        67
31.440        53
31.450        27
31.460         7
31.470        20
31.480        40
31.490        47
31.500        33
31.510        27
31.520        33
31.530        87
31.540        33
31.550        40
31.560        27
31.570        33
31.580        33
31.590        27
31.600        33
31.610        47
31.620        20
31.630        80
31.640        20
31.650        20
31.660        13
31.670        20
31.680        20
31.690        67
31.700        40
31.710        40
31.720        60
31.730        47
31.740        47
31.750        60
31.760        47
31.770        60
31.780        20
31.790        20
31.800        40
31.810        13
31.820        27
31.830        80
31.840        27
31.850        40
31.860        53
31.870        47
31.880        27
31.890        93
31.900        40
31.910        27
31.920        53
31.930        47
31.940        27
31.950        40
31.960        47
31.970        47
31.980        67
31.990        67
32.000        53
32.010       120
32.020       107
32.030       100
32.040       107
32.050       120
32.060        73
32.070       133
32.080       120
32.090       113
32.100       107
32.110       107
32.120        67
32.130       140
32.140        80
32.150        73
32.160        80
32.170        60
32.180        73
32.190        73
32.200        73
32.210        73
32.220        73
32.230        47
32.240        33
32.250        80
32.260        67
32.270        13
32.280        27
32.290        40
32.300        33
32.310        33
32.320        13
32.330        27
32.340        60
32.350        60
32.360        67
32.370        40
32.380        20
32.390        20
32.400        87
32.410        33
32.420        53
32.430        27
32.440        33
32.450        20
32.460        33
32.470        33
32.480        33
32.490        27
32.500        40
32.510        27
32.520        93
32.530        47
32.540        47
32.550        33
32.560        67
32.570        13
32.580        40
32.590        47
32.600        67
32.610        80
32.620        87
32.630        67
32.640        53
32.650        47
32.660        67
32.670        53
32.680        53
32.690        60
32.700        40
32.710        87
32.720        53
32.730        93
32.740        33
32.750        47
32.760        60
32.770        67
32.780        53
32.790        40
32.800        47
32.810        27
32.820        20
32.830        40
32.840        40
32.850        47
32.860        47
32.870        47
32.880        80
32.890        47
32.900        53
32.910        27
32.920        47
32.930        33
32.940        40
32.950        13
32.960        27
32.970         0
32.980        27
32.990        33
33.000        47
33.010        27
33.020        20
33.030        27
33.040        60
33.050        40
33.060        33
33.070        20
33.080        13
33.090        60
33.100        20
33.110         7
33.120        40
33.130        20
33.140         7
33.150         7
33.160        40
33.170        13
33.180        33
33.190        13
33.200        20
33.210        20
33.220        27
33.230        47
33.240        33
33.250        20
33.260        60
33.270        27
33.280        13
33.290        40
33.300        13
33.310        20
33.320        67
33.330        53
33.340        27
33.350         0
33.360         7
33.370        33
33.380        33
33.390        20
33.400        53
33.410        53
33.420        27
33.430        27
33.440        73
33.450        13
33.460        13
33.470        13
33.480        20
33.490        47
33.500        47
33.510        13
33.520         7
33.530        13
33.540        27
33.550        20
33.560        20
33.570        33
33.580        20
33.590        47
33.600        13
33.610        27
33.620        13
33.630        20
33.640        20
33.650        27
33.660        27
33.670        33
33.680        33
33.690        27
33.700        27
33.710        87
33.720        20
33.730        13
33.740        40
33.750        13
33.760        33
33.770        33
33.780        20
33.790        40
33.800        60
33.810        13
33.820        40
33.830        27
33.840        27
33.850        33
33.860        53
33.870        20
33.880        60
33.890        33
33.900         7
33.910        33
33.920        20
33.930        33
33.940        20
33.950        20
33.960        40
33.970        27
33.980        13
33.990        13
34.000        53
34.010        27
34.020        33
34.030        20
34.040        47
34.050        40
34.060        60
34.070        27
34.080        33
34.090        20
34.100        27
34.110        40
34.120        33
34.130        27
34.140        47
34.150         7
34.160        40
34.170        27
34.180        33
34.190        13
34.200        20
34.210        27
34.220        27
34.230        47
34.240        13
34.250        20
34.260        40
34.270        33
34.280        13
34.290        13
34.300        53
34.310        40
34.320        13
34.330        13
34.340        13
34.350        13
34.360        33
34.370        27
34.380        53
34.390        33
34.400        13
34.410        20
34.420        27
34.430        33
34.440        47
34.450        47
34.460        27
34.470        20
34.480        53
34.490        20
34.500        40
34.510        33
34.520        53
34.530        13
34.540        20
34.550         7
34.560        60
34.570        13
34.580         7
34.590         0
34.600        27
34.610        33
34.620        27
34.630        20
34.640        33
34.650        20
34.660        27
34.670        27
34.680        13
34.690        20
34.700        33
34.710        20
34.720        47
34.730        33
34.740        33
34.750        33
34.760        40
34.770        27
34.780        40
34.790        40
34.800        13
34.810        20
34.820        40
34.830        20
34.840        40
34.850        60
34.860         7
34.870        13
34.880        80
34.890        40
34.900        60
34.910        40
34.920        47
34.930        40
34.940        40
34.950        73
34.960        67
34.970        60
34.980        73
34.990        93
35.000        73
35.010        80
35.020        67
35.030       140
35.040       107
35.050       113
35.060       160
35.070       153
35.080       173
35.090       300
35.100       367
35.110       426
35.120       600
35.130       606
35.140       766
35.150       833
35.160       840
35.170       786
35.180       633
35.190       600
35.200       606
35.210       560
35.220       526
35.230       460
35.240       473
35.250       460
35.260       380
35.270       400
35.280       327
35.290       193
35.300       233
35.310       120
35.320        93
35.330        87
35.340        73
35.350        60
35.360        47
35.370        47
35.380        33
35.390        33
35.400        33
35.410        53
35.420        13
35.430        27
35.440        13
35.450        13
35.460        27
35.470        33
35.480        33
35.490        40
35.500         0
35.510        47
35.520        20
35.530        27
35.540         7
35.550        27
35.560        33
35.570        27
35.580        47
35.590        20
35.600        27
35.610        27
35.620        53
35.630        47
35.640        47
35.650        40
35.660        33
35.670        40
35.680        13
35.690        20
35.700        20
35.710        13
35.720        20
35.730         7
35.740        20
35.750        20
35.760        53
35.770        20
35.780        27
35.790        27
35.800        33
35.810        47
35.820        20
35.830        33
35.840        40
35.850        13
35.860        27
35.870        40
35.880        27
35.890        20
35.900         7
35.910         7
35.920        20
35.930         7
35.940        20
35.950        47
35.960        40
35.970        33
35.980        20
35.990        20
36.000        47
36.010        27
36.020        27
36.030        20
36.040        20
36.050        27
36.060        27
36.070        27
36.080        27
36.090         7
36.100        53
36.110        33
36.120        27
36.130        13
36.140        20
36.150        33
36.160        33
36.170        20
36.180        47
36.190        20
36.200        27
36.210        33
36.220        33
36.230        27
36.240        13
36.250        13
36.260        13
36.270        33
36.280        13
36.290        27
36.300        27
36.310        20
36.320        53
36.330        33
36.340        13
36.350        27
36.360        20
36.370         7
36.380        40
36.390        20
36.400         7
36.410        40
36.420        27
36.430        53
36.440        27
36.450        27
36.460        33
36.470        47
36.480        33
36.490        20
36.500        13
36.510        27
36.520        27
36.530         7
36.540        20
36.550        40
36.560        27
36.570        20
36.580        20
36.590        20
36.600        47
36.610        13
36.620        47
36.630         7
36.640        60
36.650        33
36.660        27
36.670        53
36.680        53
36.690        20
36.700        13
36.710        13
36.720         7
36.730        20
36.740         0
36.750        27
36.760        40
36.770        13
36.780        40
36.790        13
36.800        13
36.810        20
36.820        20
36.830        47
36.840        40
36.850        33
36.860        27
36.870        27
36.880        33
36.890        60
36.900        40
36.910        33
36.920         7
36.930        20
36.940        67
36.950        53
36.960        33
36.970        13
36.980        13
36.990        40
37.000        20
37.010        27
37.020        20
37.030        13
37.040         7
37.050        13
37.060        33
37.070        27
37.080        27
37.090        27
37.100        13
37.110        33
37.120        27
37.130        33
37.140        33
37.150        33
37.160        20
37.170        33
37.180        13
37.190        27
37.200        13
37.210        53
37.220        13
37.230        13
37.240        40
37.250        27
37.260        40
37.270        47
37.280        33
37.290        13
37.300         0
37.310        20
37.320        60
37.330        20
37.340         7
37.350        60
37.360        20
37.370        20
37.380         7
37.390        20
37.400        33
37.410        40
37.420        40
37.430         7
37.440        40
37.450        13
37.460        33
37.470        33
37.480        27
37.490        40
37.500        20
37.510        20
37.520        20
37.530        20
37.540        33
37.550        13
37.560        13
37.570        20
37.580        40
37.590        33
37.600        60
37.610        27
37.620        40
37.630         7
37.640        27
37.650        27
37.660        27
37.670        40
37.680        47
37.690        27
37.700        20
37.710        13
37.720        33
37.730        40
37.740        20
37.750        67
37.760        93
37.770        87
37.780        73
37.790        93
37.800       173
37.810       120
37.820        87
37.830        67
37.840        47
37.850        53
37.860        60
37.870        67
37.880        60
37.890        67
37.900        73
37.910        73
37.920        40
37.930        33
37.940        20
37.950        40
37.960        20
37.970        20
37.980         7
37.990        27
38.000        33
38.010        40
38.020        60
38.030        20
38.040        27
38.050        40
38.060        20
38.070        40
38.080        40
38.090        53
38.100        13
38.110        27
38.120        40
38.130        47
38.140        40
38.150        53
38.160        13
38.170        47
38.180        40
38.190        47
38.200        53
38.210        47
38.220        27
38.230        27
38.240        47
38.250        53
38.260        40
38.270        47
38.280        33
38.290        67
38.300        33
38.310        27
38.320        53
38.330        40
38.340        33
38.350        60
38.360        67
38.370        53
38.380        20
38.390        53
38.400        33
38.410        40
38.420        27
38.430        40
38.440        40
38.450        33
38.460        40
38.470        53
38.480        27
38.490        27
38.500        47
38.510        27
38.520        33
38.530        53
38.540        20
38.550        40
38.560        40
38.570        47
38.580        27
38.590        27
38.600        47
38.610        20
38.620        47
38.630        40
38.640        33
38.650        27
38.660        20
38.670        27
38.680        33
38.690        47
38.700        13
38.710        40
38.720        13
38.730        20
38.740        33
38.750         7
38.760        40
38.770        27
38.780        27
38.790        20
38.800        20
38.810        33
38.820        13
38.830        27
38.840        47
38.850        20
38.860        27
38.870        20
38.880        47
38.890        20
38.900         7
38.910        40
38.920        27
38.930        40
38.940        27
38.950        13
38.960        40
38.970        13
38.980        33
38.990        13
39.000        27
39.010        27
39.020        27
39.030        13
39.040        47
39.050        13
39.060        20
39.070        40
39.080         7
39.090        13
39.100         0
39.110        13
39.120        13
39.130         0
39.140        27
39.150        40
39.160        27
39.170        27
39.180        13
39.190        13
39.200        33
39.210        33
39.220         7
39.230        13
39.240        33
39.250        13
39.260        27
39.270        27
39.280        47
39.290        27
39.300        20
39.310        27
39.320        20
39.330        27
39.340         0
39.350        33
39.360        60
39.370        20
39.380         7
39.390        33
39.400        40
39.410        33
39.420        20
39.430        20
39.440        27
39.450        13
39.460        13
39.470         0
39.480        27
39.490        40
39.500        20
39.510        20
39.520        20
39.530        13
39.540        13
39.550         7
39.560        33
39.570        40
39.580        40
39.590        27
39.600        13
39.610        13
39.620        20
39.630         0
39.640        40
39.650        40
39.660        27
39.670        53
39.680        20
39.690        20
39.700        20
39.710        13
39.720        20
39.730        20
39.740        40
39.750         7
39.760        20
39.770        27
39.780        13
39.790        20
39.800        33
39.810        13
39.820        47
39.830         7
39.840        20
39.850        20
39.860         7
39.870        47
39.880        13
39.890        40
39.900        27
39.910        33
39.920        27
39.930        40
39.940        47
39.950        13
39.960        20
39.970        13
39.980        33
39.990        27
40.000        13
40.010        13
40.020        33
40.030        20
40.040        33
40.050        33
40.060        13
40.070        20
40.080        47
40.090        27
40.100        40
40.110        20
40.120        40
40.130         7
40.140        40
40.150        33
40.160        40
40.170        20
40.180        60
40.190        40
40.200        53
40.210        60
40.220        53
40.230        40
40.240        53
40.250        33
40.260        27
40.270        33
40.280        40
40.290        20
40.300        20
40.310        27
40.320        47
40.330        20
40.340        40
40.350        47
40.360        20
40.370        40
40.380        20
40.390        60
40.400        40
40.410        20
40.420        47
40.430        40
40.440        47
40.450        27
40.460        33
40.470        27
40.480        20
40.490        47
40.500        47
40.510        27
40.520        27
40.530        40
40.540        20
40.550        27
40.560         7
40.570        27
40.580        40
40.590        40
40.600        13
40.610        13
40.620        53
40.630        33
40.640        13
40.650         7
40.660        27
40.670        47
40.680        47
40.690        20
40.700        27
40.710        13
40.720        47
40.730        33
40.740        40
40.750        33
40.760        13
40.770        33
40.780        20
40.790        47
40.800        13
40.810        20
40.820        40
40.830        53
40.840        13
40.850        20
40.860        20
40.870        47
40.880        13
40.890        27
40.900        13
40.910        13
40.920        13
40.930        27
40.940        13
40.950        13
40.960        13
40.970        27
40.980        13
40.990        20
41.000        20
41.010         7
41.020        20
41.030        20
41.040        13
41.050        13
41.060        33
41.070        13
41.080        13
41.090        20
41.100        20
41.110        20
41.120        27
41.130        33
41.140        27
41.150        20
41.160         0
41.170        33
41.180        20
41.190        20
41.200        20
41.210        27
41.220         0
41.230        33
41.240        27
41.250        13
41.260        27
41.270        47
41.280         7
41.290        20
41.300         7
41.310        33
41.320        13
41.330        13
41.340        53
41.350        47
41.360        27
41.370        20
41.380        20
41.390        33
41.400        27
41.410         7
41.420        40
41.430        13
41.440        13
41.450        27
41.460         7
41.470        40
41.480        13
41.490        20
41.500        27
41.510        33
41.520        33
41.530         0
41.540        47
41.550        20
41.560        47
41.570        27
41.580        20
41.590        47
41.600        67
41.610        40
41.620        80
41.630        60
41.640        80
41.650        93
41.660       173
41.670        93
41.680       127
41.690       100
41.700       127
41.710       133
41.720        93
41.730        87
41.740        93
41.750       113
41.760       107
41.770        80
41.780       107
41.790        93
41.800        47
41.810        60
41.820        87
41.830        60
41.840        53
41.850        40
41.860        33
41.870        47
41.880        13
41.890        20
41.900        47
41.910        13
41.920        40
41.930        33
41.940        20
41.950        40
41.960        20
41.970        20
41.980        40
41.990        33
42.000        27
42.010        27
42.020         0
42.030        40
42.040        40
42.050        20
42.060        40
42.070        33
42.080        47
42.090        13
42.100        20
42.110        27
42.120        33
42.130        33
42.140        27
42.150        73
42.160        80
42.170        40
42.180        47
42.190        53
42.200        87
42.210        73
42.220        93
42.230        40
42.240        27
42.250        13
42.260        60
42.270        60
42.280        40
42.290        27
42.300        53
42.310        33
42.320        20
42.330        73
42.340        33
42.350        47
42.360        47
42.370        40
42.380        53
42.390        33
42.400        47
42.410         0
42.420        27
42.430        20
42.440        20
42.450        20
42.460        33
42.470        67
42.480        20
42.490         7
42.500        13
42.510        13
42.520         0
42.530        13
42.540        13
42.550        47
42.560         7
42.570        20
42.580        33
42.590        13
42.600        13
42.610        27
42.620        27
42.630        40
42.640         0
42.650        20
42.660        20
42.670        40
42.680        20
42.690         7
42.700        20
42.710        20
42.720        13
42.730        33
42.740        13
42.750        20
42.760         0
42.770        13
42.780        20
42.790        40
42.800        40
42.810        20
42.820        13
42.830        33
42.840        20
42.850        20
42.860        13
42.870        27
42.880        20
42.890        40
42.900        27
42.910         7
42.920        33
42.930        27
42.940        20
42.950        13
42.960        27
42.970        27
42.980        33
42.990        13
43.000        53
43.010        13
43.020        20
43.030        27
43.040        67
43.050        27
43.060        13
43.070         7
43.080        20
43.090        20
43.100        20
43.110        27
43.120         0
43.130        40
43.140        27
43.150        27
43.160        27
43.170        73
43.180        40
43.190        67
43.200       100
43.210        53
43.220        40
43.230        33
43.240        60
43.250        73
43.260        73
43.270        60
43.280        73
43.290        80
43.300        80
43.310       113
43.320       173
43.330       127
43.340       220
43.350       267
43.360       260
43.370       213
43.380       273
43.390       180
43.400       107
43.410       133
43.420       120
43.430       133
43.440       107
43.450       133
43.460       133
43.470       107
43.480       140
43.490       147
43.500       147
43.510       107
43.520        73
43.530        53
43.540        67
43.550        27
43.560         7
43.570        40
43.580        40
43.590        47
43.600         7
43.610        53
43.620        33
43.630        33
43.640        20
43.650        27
43.660        53
43.670        33
43.680        27
43.690        20
43.700        33
43.710         7
43.720        33
43.730        47
43.740        27
43.750        27
43.760        40
43.770         7
43.780        27
43.790        33
43.800        20
43.810        13
43.820        33
43.830        20
43.840        33
43.850        27
43.860        20
43.870         7
43.880        27
43.890        13
43.900        27
43.910        20
43.920         0
43.930        33
43.940         7
43.950        27
43.960        20
43.970        33
43.980         7
43.990         7
44.000        13
44.010        20
44.020        33
44.030        27
44.040        13
44.050        27
44.060        20
44.070        13
44.080        33
44.090        27
44.100        33
44.110        33
44.120         7
44.130         7
44.140         0
44.150        13
44.160        33
44.170        27
44.180        40
44.190        13
44.200         7
44.210        33
44.220        20
44.230        13
44.240        20
44.250         7
44.260         0
44.270        13
44.280        33
44.290        13
44.300        27
44.310        60
44.320        20
44.330        20
44.340        33
44.350        13
44.360        40
44.370        20
44.380         7
44.390        33
44.400        40
44.410        27
44.420        27
44.430        27
44.440        40
44.450        13
44.460        27
44.470        13
44.480        60
44.490        47
44.500         7
44.510        53
44.520        27
44.530        40
44.540        27
44.550        47
44.560         7
44.570        27
44.580        20
44.590        27
44.600        20
44.610        13
44.620        20
44.630        20
44.640        20
44.650        20
44.660        13
44.670        33
44.680        33
44.690        33
44.700        33
44.710        40
44.720        27
44.730        40
44.740         0
44.750         7
44.760        27
44.770        67
44.780        33
44.790        27
44.800         0
44.810        33
44.820        13
44.830        13
44.840        20
44.850        53
44.860        53
44.870        27
44.880        53
44.890        13
44.900        33
44.910        33
44.920        20
44.930        27
44.940         7
44.950        20
44.960        13
44.970        67
44.980        13
44.990        53
45.000        20
45.010        47
45.020        73
45.030        33
45.040        13
45.050         7
45.060        20
45.070         7
45.080        20
45.090        20
45.100        33
45.110        40
45.120        20
45.130        33
45.140        40
45.150        27
45.160        20
45.170        40
45.180        13
45.190        20
45.200        13
45.210        13
45.220        27
45.230        20
45.240         7
45.250        33
45.260         7
45.270        27
45.280        20
45.290        27
45.300        13
45.310        40
45.320        33
45.330        20
45.340        40
45.350        47
45.360        27
45.370        40
45.380        13
45.390        27
45.400        33
45.410         7
45.420        13
45.430        13
45.440        20
45.450        27
45.460         7
45.470        47
45.480        40
45.490         0
45.500        33
45.510        20
45.520        33
45.530        20
45.540        27
45.550        33
45.560         0
45.570        20
45.580        13
45.590        53
45.600        40
45.610        40
45.620         7
45.630        53
45.640        47
45.650        27
45.660        73
45.670        40
45.680        67
45.690        20
45.700        93
45.710        80
45.720        53
45.730        53
45.740       107
45.750       160
45.760       140
45.770       140
45.780       133
45.790       153
45.800       133
45.810       147
45.820       180
45.830       167
45.840       147
45.850       167
45.860       213
45.870        67
45.880       193
45.890       100
45.900       173
45.910       120
45.920       100
45.930       273
45.940       227
45.950       133
45.960       180
45.970       127
45.980       153
45.990        93
46.000       120
46.010        87
46.020       100
46.030        67
46.040        73
46.050        53
46.060       127
46.070        67
46.080        67
46.090        53
46.100        67
46.110        53
46.120        53
46.130        47
46.140       100
46.150        13
46.160        47
46.170        40
46.180        27
46.190        40
46.200        33
46.210        33
46.220        40
46.230        33
46.240        33
46.250        27
46.260        13
46.270        13
46.280        27
46.290        27
46.300        33
46.310        40
46.320        40
46.330        20
46.340         7
46.350        20
46.360        47
46.370        40
46.380        27
46.390        67
46.400        33
46.410        13
46.420        27
46.430        33
46.440        40
46.450        33
46.460        47
46.470        47
46.480        20
46.490        33
46.500        20
46.510        47
46.520        73
46.530        93
46.540        27
46.550        60
46.560        33
46.570        80
46.580        73
46.590       100
46.600        60
46.610        73
46.620       100
46.630        67
46.640       100
46.650       120
46.660       120
46.670       127
46.680       120
46.690        60
46.700       113
46.710       140
46.720       153
46.730       100
46.740       153
46.750       153
46.760       193
46.770       160
46.780       213
46.790       147
46.800       120
46.810       147
46.820       147
46.830       120
46.840       140
46.850       140
46.860       193
46.870       133
46.880       167
46.890       120
46.900       140
46.910        67
46.920       127
46.930       100
46.940        87
46.950       120
46.960        87
46.970       100
46.980        87
46.990        93
47.000       100
47.010        87
47.020        27
47.030        60
47.040        60
47.050        47
47.060        20
47.070        60
47.080        67
47.090        40
47.100        53
47.110        80
47.120        33
47.130        27
47.140        27
47.150        67
47.160        33
47.170        67
47.180        33
47.190        27
47.200        20
47.210        13
47.220        33
47.230        47
47.240        27
47.250        33
47.260        20
47.270        20
47.280         7
47.290         7
47.300         0
47.310        40
47.320        13
47.330        20
47.340        40
47.350        20
47.360         7
47.370         7
47.380        13
47.390         7
47.400        53
47.410        20
47.420        27
47.430        13
47.440        60
47.450        20
47.460        13
47.470        27
47.480         7
47.490         0
47.500        53
47.510        27
47.520        13
47.530         7
47.540        13
47.550        27
47.560        33
47.570        27
47.580        13
47.590        13
47.600        20
47.610        20
47.620        13
47.630        27
47.640        33
47.650         7
47.660         7
47.670         7
47.680        13
47.690         0
47.700        20
47.710         0
47.720        13
47.730        13
47.740        13
47.750        27
47.760        33
47.770        13
47.780        20
47.790        20
47.800         7
47.810        27
47.820        13
47.830        20
47.840         0
47.850        27
47.860        13
47.870        33
47.880        20
47.890        20
47.900        47
47.910        20
47.920        33
47.930        13
47.940        13
47.950         7
47.960        20
47.970        20
47.980        33
47.990        13
48.000        13
48.010        47
48.020        20
48.030        27
48.040        40
48.050        13
48.060        27
48.070        27
48.080         7
48.090        20
48.100         7
48.110         7
48.120        13
48.130        13
48.140        47
48.150        13
48.160        33
48.170        47
48.180        20
48.190        20
48.200         7
48.210        20
48.220        13
48.230        20
48.240        27
48.250        27
48.260        53
48.270         7
48.280        20
48.290        33
48.300        93
48.310        33
48.320        40
48.330        20
48.340        40
48.350         0
48.360        27
48.370        20
48.380        27
48.390        33
48.400        13
48.410         7
48.420        27
48.430         0
48.440        27
48.450        13
48.460        33
48.470        27
48.480        27
48.490         7
48.500        47
48.510         0
48.520         7
48.530        27
48.540        27
48.550         7
48.560         7
48.570        13
48.580        40
48.590        20
48.600        40
48.610        33
48.620        47
48.630        13
48.640        47
48.650        47
48.660        27
48.670        20
48.680        20
48.690        33
48.700        27
48.710         7
48.720        27
48.730        47
48.740        27
48.750        27
48.760        27
48.770        27
48.780        20
48.790        47
48.800        53
48.810        33
48.820        53
48.830        40
48.840        40
48.850        33
48.860        33
48.870        60
48.880        73
48.890        47
48.900        33
48.910        33
48.920        40
48.930        47
48.940        67
48.950        33
48.960        27
48.970        13
48.980        40
48.990        53
49.000        47
49.010        33
49.020        47
49.030        33
49.040        33
49.050        33
49.060        20
49.070        53
49.080        33
49.090        60
49.100        13
49.110        20
49.120         7
49.130        40
49.140        20
49.150        27
49.160        20
49.170        20
49.180        27
49.190        27
49.200        20
49.210        13
49.220        33
49.230        13
49.240         0
49.250        27
49.260        33
49.270        27
49.280        20
49.290        13
49.300        27
49.310        27
49.320        13
49.330        27
49.340        13
49.350        40
49.360        40
49.370        40
49.380        33
49.390        20
49.400        27
49.410        27
49.420        27
49.430        27
49.440        13
49.450        20
49.460        27
49.470        47
49.480        40
49.490        47
49.500        40
49.510        27
49.520        47
49.530         7
49.540        27
49.550        47
49.560        73
49.570        27
49.580        33
49.590        47
49.600        40
49.610        27
49.620        53
49.630        67
49.640        47
49.650        93
49.660        47
49.670        47
49.680        40
49.690        20
49.700        73
49.710        47
49.720        27
49.730        47
49.740        47
49.750        73
49.760        80
49.770        40
49.780        87
49.790        40
49.800        33
49.810        40
49.820        87
49.830        40
49.840        40
49.850        47
49.860        87
49.870        20
49.880        73
49.890        40
49.900        60
49.910        33
49.920        33
49.930        80
49.940        87
49.950        53
49.960        20
49.970        47
49.980        40
49.990        67
50.000        53
50.010        53
50.020        20
50.030        33
50.040        27
50.050        40
50.060        33
50.070        40
50.080        33
50.090        27
50.100        47
50.110         7
50.120        60
50.130        60
50.140        47
50.150        20
50.160        40
50.170        27
50.180        40
50.190        27
50.200        27
50.210        53
50.220        20
50.230        27
50.240        27
50.250        27
50.260        20
50.270        47
50.280        40
50.290        60
50.300        20
50.310        20
50.320        40
50.330        40
50.340        53
50.350        20
50.360        20
50.370        13
50.380        53
50.390         7
50.400        40
50.410         7
50.420        13
50.430        40
50.440        13
50.450        13
50.460         0
50.470        27
50.480        33
50.490        60
50.500        20
50.510        13
50.520        33
50.530        20
50.540        40
50.550         7
50.560        27
50.570        27
50.580        27
50.590        27
50.600        33
50.610        20
50.620        20
50.630        13
50.640         0
50.650         0
50.660        27
50.670         0
50.680        20
50.690        13
50.700        13
50.710        20
50.720        13
50.730         7
50.740        20
50.750         7
50.760         7
50.770         7
50.780        40
50.790        40
50.800        27
50.810        27
50.820        33
50.830        13
50.840        27
50.850        33
50.860        40
50.870        40
50.880         7
50.890        27
50.900        20
50.910        13
50.920        20
50.930        27
50.940        20
50.950        20
50.960        40
50.970        13
50.980         7
50.990        20
51.000        33
51.010         0
51.020         7
51.030         7
51.040        27
51.050        27
51.060        13
51.070         0
51.080        33
51.090        20
51.100         7
51.110        13
51.120        33
51.130        13
51.140        27
51.150         0
51.160        27
51.170        13
51.180        20
51.190        27
51.200        40
51.210         7
51.220        13
51.230         7
51.240        13
51.250        13
51.260        40
51.270        20
51.280        13
51.290        33
51.300        33
51.310        40
51.320        13
51.330        13
51.340        20
51.350        13
51.360        20
51.370        40
51.380        13
51.390        13
51.400        27
51.410        20
51.420        13
51.430        13
51.440        20
51.450        27
51.460        27
51.470        20
51.480        20
51.490        40
51.500        40
51.510        13
51.520        13
51.530        33
51.540        40
51.550        40
51.560        33
51.570        53
51.580        47
51.590         7
51.600        33
51.610        27
51.620        40
51.630        67
51.640        53
51.650        60
51.660        47
51.670        73
51.680        53
51.690        67
51.700        47
51.710        47
51.720        53
51.730        33
51.740        53
51.750        60
51.760        60
51.770       100
51.780        60
51.790        87
51.800        53
51.810        33
51.820        47
51.830        47
51.840        60
51.850        67
51.860        53
51.870        73
51.880        93
51.890        13
51.900        47
51.910        53
51.920        53
51.930        27
51.940        73
51.950        60
51.960        27
51.970        27
51.980        27
51.990         7
52.000        27
52.010        20
52.020        20
52.030        20
52.040         7
52.050        33
52.060        40
52.070        27
52.080        13
52.090        13
52.100        13
52.110        53
52.120        27
52.130         7
52.140        60
52.150         7
52.160        20
52.170        33
52.180        20
52.190        20
52.200        13
52.210        13
52.220        20
52.230        20
52.240        47
52.250        27
52.260         0
52.270        20
52.280        13
52.290         7
52.300         7
52.310        27
52.320        13
52.330        13
52.340        33
52.350         7
52.360        27
52.370        20
52.380        47
52.390        20
52.400         7
52.410        20
52.420        27
52.430        20
52.440        20
52.450        40
52.460        33
52.470        27
52.480        27
52.490        27
52.500        60
52.510        20
52.520        40
52.530        53
52.540        33
52.550        67
52.560       100
52.570        80
52.580       173
52.590       147
52.600       207
52.610       167
52.620       133
52.630       127
52.640       113
52.650        27
52.660        27
52.670        33
52.680        60
52.690        67
52.700        60
52.710        53
52.720        80
52.730        80
52.740        80
52.750        60
52.760       107
52.770        60
52.780        87
52.790        20
52.800        13
52.810        33
52.820        47
52.830         7
52.840        20
52.850        20
52.860        27
52.870        27
52.880        20
52.890        27
52.900        20
52.910        13
52.920        13
52.930        13
52.940        13
52.950         0
52.960        13
52.970        20
52.980         7
52.990         7
53.000         7
53.010        20
53.020        20
53.030        27
53.040        20
53.050        20
53.060        20
53.070        27
53.080        40
53.090        13
53.100        13
53.110        13
53.120         7
53.130        20
53.140        27
53.150        13
53.160         0
53.170        20
53.180        33
53.190         7
53.200        33
53.210        20
53.220         7
53.230        33
53.240        47
53.250        27
53.260        13
53.270        33
53.280        20
53.290        20
53.300        40
53.310        27
53.320        27
53.330        13
53.340        20
53.350        27
53.360        27
53.370        27
53.380        13
53.390        13
53.400        33
53.410         7
53.420        33
53.430        33
53.440        27
53.450        20
53.460         7
53.470        20
53.480        27
53.490         7
53.500        47
53.510        13
53.520        27
53.530        13
53.540        13
53.550        40
53.560        20
53.570        13
53.580        13
53.590         0
53.600        33
53.610        13
53.620         7
53.630        33
53.640        27
53.650        20
53.660        20
53.670        20
53.680        13
53.690         0
53.700         7
53.710        20
53.720         7
53.730        13
53.740         0
53.750        13
53.760         7
53.770         7
53.780         7
53.790        20
53.800        20
53.810        13
53.820         7
53.830        20
53.840         0
53.850        20
53.860        13
53.870         0
53.880        20
53.890         0
53.900         7
53.910         7
53.920        20
53.930        27
53.940        40
53.950        20
53.960        13
53.970        20
53.980        20
53.990         0
54.000         0
54.010        20
54.020        27
54.030        13
54.040         0
54.050        20
54.060        13
54.070        33
54.080        20
54.090        13
54.100        20
54.110         7
54.120         7
54.130        13
54.140        13
54.150         0
54.160         7
54.170        13
54.180        20
54.190        20
54.200        20
54.210         0
54.220        13
54.230        13
54.240        20
54.250         7
54.260         7
54.270        13
54.280        33
54.290        33
54.300        20
54.310        40
54.320        20
54.330        13
54.340        20
54.350        13
54.360        20
54.370        40
54.380        13
54.390        27
54.400        20
54.410        13
54.420        27
54.430         7
54.440        20
54.450        13
54.460        27
54.470         7
54.480        13
54.490        20
54.500        33
54.510        13
54.520        13
54.530        27
54.540         7
54.550         0
54.560         7
54.570        13
54.580        20
54.590        33
54.600         7
54.610        13
54.620        13
54.630         7
54.640        20
54.650        27
54.660        33
54.670        20
54.680        13
54.690        20
54.700        13
54.710        20
54.720        33
54.730        13
54.740        33
54.750        13
54.760        27
54.770        33
54.780        47
54.790        20
54.800        13
54.810         7
54.820        13
54.830        13
54.840        27
54.850         7
54.860        20
54.870        27
54.880        33
54.890        20
54.900        13
54.910        20
54.920        13
54.930        33
54.940         7
54.950        27
54.960        13
54.970        27
54.980        13
54.990        20
55.000         7
55.010         7
55.020        27
55.030         0
55.040         7
55.050        33
55.060        13
55.070        33
55.080        20
55.090         0
55.100        20
55.110        13
55.120         0
55.130        27
55.140        47
55.150        13
55.160         7
55.170        20
55.180         7
55.190        20
55.200         7
55.210        13
55.220        13
55.230        27
55.240        13
55.250        20
55.260        33
55.270         0
55.280         0
55.290        40
55.300        40
55.310        40
55.320        33
55.330        13
55.340        13
55.350         7
55.360        40
55.370        27
55.380        20
55.390        13
55.400        27
55.410         7
55.420        13
55.430        13
55.440        20
55.450        33
55.460        27
55.470        53
55.480        13
55.490         0
55.500        33
55.510        33
55.520        20
55.530        47
55.540        27
55.550         7
55.560        27
55.570        27
55.580        13
55.590        20
55.600        13
55.610        40
55.620        27
55.630        53
55.640        27
55.650        13
55.660        33
55.670        27
55.680        27
55.690        53
55.700        33
55.710        47
55.720        47
55.730        53
55.740        53
55.750        27
55.760        20
55.770        13
55.780        20
55.790        60
55.800        13
55.810        40
55.820         7
55.830        33
55.840        60
55.850        20
55.860         7
55.870        47
55.880        27
55.890        33
55.900        13
55.910        20
55.920        33
55.930        40
55.940        33
55.950        40
55.960        20
55.970        27
55.980        27
55.990        27
56.000        40
56.010        20
56.020        47
56.030        27
56.040        20
56.050        33
56.060         7
56.070        27
56.080        20
56.090        33
56.100         7
56.110        73
56.120        33
56.130        33
56.140        20
56.150        33
56.160        27
56.170        60
56.180        47
56.190        40
56.200        47
56.210        20
56.220        13
56.230        40
56.240        40
56.250        40
56.260        20
56.270        27
56.280         7
56.290        27
56.300        40
56.310        47
56.320        13
56.330        20
56.340        27
56.350         0
56.360        20
56.370        33
56.380        27
56.390        33
56.400        60
56.410        47
56.420        20
56.430        13
56.440         7
56.450        53
56.460        20
56.470        27
56.480        33
56.490         0
56.500        13
56.510        20
56.520        40
56.530        20
56.540         0
56.550        27
56.560        13
56.570        27
56.580        13
56.590        27
56.600        40
56.610        20
56.620        20
56.630         7
56.640         7
56.650        27
56.660         7
56.670        13
56.680        13
56.690         7
56.700        13
56.710        13
56.720        40
56.730        33
56.740        20
56.750        20
56.760         7
56.770        13
56.780         0
56.790        13
56.800        27
56.810        13
56.820        27
56.830        20
56.840        13
56.850         7
56.860        13
56.870        20
56.880        13
56.890        20
56.900         7
56.910        13
56.920        13
56.930        40
56.940         0
56.950         7
56.960         7
56.970        13
56.980        27
56.990        20
57.000         0
57.010         7
57.020        13
57.030        20
57.040        27
57.050        20
57.060        13
57.070        20
57.080        13
57.090        13
57.100        13
57.110         0
57.120        27
57.130        20
57.140        20
57.150        20
57.160        33
57.170        33
57.180        27
57.190        13
57.200        13
57.210        60
57.220        60
57.230        40
57.240        40
57.250        93
57.260        27
57.270        60
57.280        67
57.290        47
57.300        33
57.310        60
57.320        20
57.330        67
57.340        73
57.350        60
57.360        67
57.370        73
57.380        93
57.390        93
57.400       153
57.410       113
57.420       153
57.430        87
57.440       153
57.450       147
57.460       280
57.470       380
57.480       613
57.490       666
57.500      1080
57.510      1286
57.520      1073
57.530      1073
57.540       986
57.550       873
57.560       686
57.570       500
57.580       400
57.590       247
57.600       200
57.610       300
57.620       273
57.630       293
57.640       433
57.650       446
57.660       387
57.670       660
57.680       680
57.690       560
57.700       533
57.710       360
57.720       320
57.730       200
57.740       213
57.750       140
57.760       113
57.770       107
57.780        80
57.790        80
57.800        47
57.810        33
57.820        47
57.830        33
57.840        60
57.850        33
57.860        27
57.870        53
57.880        47
57.890        13
57.900        40
57.910        53
57.920        47
57.930        20
57.940        27
57.950        33
57.960        20
57.970         7
57.980         7
57.990        33
58.000        47
58.010        33
58.020        47
58.030        40
58.040        27
58.050        33
58.060        13
58.070        13
58.080        27
58.090        13
58.100        47
58.110        20
58.120        27
58.130        33
58.140        33
58.150        13
58.160        40
58.170        20
58.180        33
58.190        33
58.200        13
58.210        33
58.220        13
58.230         0
58.240        13
58.250        13
58.260        20
58.270        27
58.280        20
58.290        13
58.300        47
58.310        33
58.320        27
58.330         7
58.340        20
58.350        47
58.360        13
58.370        33
58.380         7
58.390         7
58.400        47
58.410        27
58.420        40
58.430        40
58.440        27
58.450         7
58.460        33
58.470        20
58.480         0
58.490         7
58.500        20
58.510        20
58.520        13
58.530         7
58.540        13
58.550        13
58.560         7
58.570         0
58.580        20
58.590        27
58.600         7
58.610        13
58.620        20
58.630        13
58.640        33
58.650         7
58.660        20
58.670        20
58.680        27
58.690        13
58.700        20
58.710        33
58.720         0
58.730        40
58.740         7
58.750         7
58.760        40
58.770         0
58.780        27
58.790        13
58.800        33
58.810         7
58.820        27
58.830        13
58.840        20
58.850        13
58.860         7
58.870         7
58.880        20
58.890        13
58.900        40
58.910        47
58.920        40
58.930        13
58.940        13
58.950        20
58.960        13
58.970        20
58.980        20
58.990        13
59.000         0
59.010        27
59.020        20
59.030        13
59.040         7
59.050        13
59.060        13
59.070        13
59.080        20
59.090        13
59.100        33
59.110        13
59.120        27
59.130        13
59.140        13
59.150         7
59.160        20
59.170        13
59.180         7
59.190         7
59.200        20
59.210         0
59.220        47
59.230         7
59.240        20
59.250        13
59.260        20
59.270        20
59.280        33
59.290        20
59.300        13
59.310        27
59.320         7
59.330        27
59.340        40
59.350        13
59.360         7
59.370        20
59.380         7
59.390        13
59.400         7
59.410        20
59.420        20
59.430        27
59.440         7
59.450        33
59.460        13
59.470         7
59.480         0
59.490         7
59.500        33
59.510        20
59.520         7
59.530         7
59.540        13
59.550        13
59.560        13
59.570        20
59.580         7
59.590        13
59.600        20
59.610        13
59.620        20
59.630        40
59.640        33
59.650        13
59.660        20
59.670        20
59.680        27
59.690         7
59.700        13
59.710         0
59.720        13
59.730        47
59.740        27
59.750        27
59.760        27
59.770        47
59.780        33
59.790        33
59.800         7
59.810         7
59.820        20
59.830        20
59.840        27
59.850         7
59.860        13
59.870        33
59.880        13
59.890        47
59.900        27
59.910        53
59.920        27
59.930        20
59.940        33
59.950        27
59.960        13
59.970        27
59.980        40
59.990        27
60.000         0
