20.000        47
20.010        47
20.020        60
20.030        67
20.040        87
20.050       107
20.060        80
20.070        80
20.080        47
20.090        67
20.100        33
20.110        60
20.120        73
20.130        53
20.140        73
20.150       140
20.160        13
20.170        33
20.180        47
20.190        80
20.200        33
20.210        53
20.220        53
20.230        87
20.240        67
20.250        60
20.260        40
20.270        53
20.280        40
20.290        87
20.300        60
20.310        87
20.320        53
20.330        27
20.340        67
20.350        47
20.360        33
20.370        27
20.380        80
20.390        73
20.400        47
20.410        27
20.420        60
20.430        53
20.440        33
20.450       100
20.460        40
20.470        67
20.480        40
20.490        73
20.500        87
20.510       113
20.520        67
20.530        60
20.540        67
20.550        87
20.560        67
20.570       100
20.580        73
20.590        53
20.600        13
20.610        60
20.620        67
20.630       107
20.640        87
20.650        93
20.660        60
20.670        47
20.680        47
20.690        53
20.700        33
20.710       113
20.720        53
20.730        47
20.740        27
20.750        60
20.760        60
20.770        27
20.780        67
20.790        47
20.800        27
20.810        60
20.820        53
20.830        40
20.840        80
20.850        20
20.860        60
20.870        53
20.880        80
20.890        87
20.900        60
20.910        80
20.920        33
20.930        40
20.940        47
20.950        67
20.960        53
20.970        40
20.980        47
20.990        67
21.000        73
21.010        67
21.020        60
21.030         7
21.040        53
21.050        27
21.060        87
21.070        60
21.080        53
21.090        67
21.100         7
21.110        87
21.120        33
21.130        47
21.140        60
21.150        53
21.160        53
21.170        73
21.180        53
21.190        47
21.200        73
21.210        87
21.220        47
21.230        73
21.240        60
21.250        40
21.260        80
21.270        53
21.280        73
21.290        60
21.300        60
21.310        73
21.320        60
21.330        60
21.340        60
21.350        53
21.360        33
21.370        80
21.380        87
21.390        60
21.400        80
21.410        67
21.420        67
21.430        20
21.440        80
21.450        40
21.460        73
21.470        67
21.480       100
21.490        53
21.500        60
21.510        67
21.520        27
21.530       113
21.540        40
21.550        53
21.560        80
21.570        60
21.580        60
21.590        80
21.600       100
21.610        60
21.620       107
21.630        73
21.640        93
21.650        60
21.660        13
21.670        60
21.680       100
21.690        67
21.700        93
21.710        53
21.720        53
21.730        60
21.740        67
21.750        53
21.760        80
21.770        60
21.780        87
21.790        87
21.800        47
21.810        47
21.820        53
21.830        73
21.840        67
21.850        33
21.860        53
21.870       107
21.880        80
21.890        60
21.900        40
21.910        87
21.920        40
21.930        80
21.940       100
21.950        53
21.960       107
21.970        73
21.980        40
21.990       107
22.000        73
22.010        33
22.020        67
22.030        87
22.040        80
22.050        60
22.060        33
22.070        60
22.080        87
22.090        53
22.100        53
22.110        53
22.120        87
22.130        93
22.140        40
22.150        80
22.160        60
22.170        87
22.180        73
22.190        60
22.200        80
22.210       107
22.220       100
22.230        53
22.240        93
22.250        47
22.260       113
22.270       107
22.280        60
22.290        53
22.300        53
22.310        67
22.320        93
22.330        93
22.340        80
22.350        67
22.360        73
22.370       113
22.380        47
22.390       107
22.400       160
22.410       100
22.420        60
22.430        73
22.440       127
22.450       107
22.460       187
22.470       140
22.480       167
22.490       100
22.500       153
22.510       120
22.520       220
22.530       180
22.540       227
22.550       227
22.560       280
22.570       380
22.580       213
22.590       373
22.600       373
22.610       340
22.620       500
22.630       526
22.640       613
22.650       713
22.660       860
22.670       926
22.680      1106
22.690      1146
22.700      1193
22.710      1233
22.720      1333
22.730      1599
22.740      1706
22.750      1559
22.760      1479
22.770      1506
22.780      1639
22.790      1533
22.800      1593
22.810      1513
22.820      1479
22.830      1160
22.840       926
22.850       966
22.860       846
22.870       726
22.880       720
22.890       486
22.900       493
22.910       486
22.920       446
22.930       247
22.940       313
22.950       293
22.960       280
22.970       227
22.980       233
22.990       167
23.000       207
23.010       240
23.020       153
23.030       167
23.040       127
23.050       140
23.060       187
23.070        67
23.080        87
23.090       113
23.100        87
23.110        80
23.120       100
23.130       100
23.140       120
23.150       113
23.160       153
23.170       140
23.180        87
23.190       173
23.200        60
23.210       100
23.220       100
23.230        93
23.240        67
23.250        73
23.260       100
23.270        60
23.280       113
23.290        93
23.300        53
23.310        80
23.320        53
23.330       100
23.340        93
23.350        73
23.360        80
23.370        47
23.380        80
23.390        27
23.400        80
23.410       113
23.420        47
23.430        87
23.440        73
23.450        87
23.460       113
23.470        73
23.480       107
23.490        53
23.500        40
23.510        67
23.520       120
23.530        67
23.540        60
23.550        80
23.560        40
23.570       153
23.580        87
23.590        93
23.600        20
23.610        40
23.620        80
23.630       113
23.640        67
23.650        93
23.660        93
23.670        60
23.680        87
23.690        87
23.700       100
23.710        60
23.720        87
23.730        47
23.740        67
23.750       107
23.760        73
23.770        53
23.780        80
23.790        80
23.800        60
23.810        87
23.820        60
23.830        80
23.840        53
23.850        53
23.860        80
23.870        80
23.880       127
23.890        93
23.900        93
23.910        60
23.920        87
23.930        60
23.940       113
23.950        67
23.960       107
23.970        53
23.980        60
23.990       100
24.000        80
24.010       107
24.020        60
24.030       113
24.040        47
24.050        87
24.060        27
24.070        20
24.080        53
24.090        80
24.100        93
24.110        27
24.120        73
24.130        27
24.140        93
24.150        27
24.160        67
24.170        67
24.180       100
24.190        47
24.200        67
24.210        40
24.220        53
24.230        80
24.240        80
24.250        80
24.260        20
24.270       100
24.280        73
24.290        40
24.300        53
24.310       113
24.320        67
24.330        53
24.340        67
24.350        93
24.360        67
24.370        47
24.380        60
24.390        93
24.400        93
24.410        60
24.420        73
24.430        40
24.440        93
24.450        67
24.460        80
24.470        93
24.480        67
24.490        73
24.500        93
24.510        60
24.520        93
24.530        40
24.540        60
24.550        73
24.560       100
24.570        80
24.580        60
24.590        40
24.600        60
24.610        67
24.620       100
24.630        40
24.640        87
24.650        87
24.660        27
24.670        73
24.680       100
24.690        53
24.700        73
24.710        20
24.720        73
24.730        53
24.740        53
24.750        80
24.760        87
24.770       100
24.780        73
24.790        87
24.800        93
24.810        60
24.820        60
24.830        73
24.840        60
24.850        93
24.860        60
24.870        53
24.880        40
24.890        67
24.900        80
24.910        87
24.920        67
24.930        87
24.940        27
24.950        73
24.960        53
24.970        53
24.980        53
24.990        67
25.000        73
25.010        73
25.020        87
25.030        60
25.040        87
25.050        53
25.060        67
25.070        33
25.080        67
25.090        33
25.100        87
25.110        47
25.120        53
25.130        47
25.140        80
25.150        60
25.160       127
25.170        73
25.180        47
25.190        67
25.200        53
25.210       100
25.220        93
25.230        67
25.240        53
25.250        67
25.260        47
25.270        73
25.280        73
25.290        60
25.300        33
25.310        93
25.320        93
25.330        40
25.340        80
25.350        93
25.360        27
25.370        33
25.380        53
25.390        60
25.400        47
25.410        67
25.420       107
25.430        73
25.440       100
25.450       100
25.460        60
25.470        80
25.480        80
25.490       107
25.500        87
25.510        87
25.520       140
25.530        93
25.540        93
25.550        80
25.560        93
25.570        87
25.580        87
25.590        87
25.600       133
25.610       167
25.620        87
25.630       167
25.640       113
25.650        53
25.660        87
25.670        93
25.680       147
25.690        80
25.700        73
25.710        67
25.720        47
25.730        67
25.740        67
25.750        53
25.760        80
25.770       107
25.780        53
25.790       107
25.800        87
25.810        47
25.820        60
25.830        67
25.840        60
25.850        67
25.860        73
25.870        93
25.880        47
25.890        33
25.900        67
25.910        67
25.920        67
25.930        53
25.940        67
25.950        93
25.960        53
25.970        40
25.980       107
25.990        60
26.000        60
26.010        40
26.020        67
26.030        33
26.040        40
26.050        33
26.060        47
26.070        60
26.080        67
26.090        73
26.100        40
26.110        40
26.120        80
26.130        33
26.140        80
26.150        33
26.160        73
26.170        73
26.180        80
26.190        73
26.200        73
26.210        33
26.220        33
26.230        53
26.240        87
26.250        47
26.260        47
26.270        40
26.280        40
26.290       113
26.300        60
26.310        47
26.320        67
26.330        67
26.340        47
26.350        40
26.360        73
26.370        40
26.380        40
26.390        80
26.400        40
26.410        73
26.420        87
26.430        73
26.440        33
26.450        80
26.460        53
26.470        20
26.480        33
26.490        33
26.500        47
26.510        87
26.520        53
26.530        67
26.540        40
26.550        47
26.560        60
26.570        53
26.580        87
26.590        80
26.600        87
26.610        53
26.620        60
26.630        60
26.640       100
26.650        53
26.660        47
26.670        47
26.680       107
26.690        73
26.700        93
26.710        40
26.720        67
26.730        53
26.740        40
26.750        47
26.760        73
26.770        40
26.780        53
26.790        40
26.800        53
26.810        73
26.820        60
26.830        60
26.840       127
26.850        87
26.860        60
26.870        40
26.880        47
26.890        47
26.900        60
26.910        73
26.920        67
26.930        67
26.940        87
26.950        60
26.960        53
26.970        67
26.980        27
26.990        73
27.000        73
27.010        67
27.020        53
27.030        53
27.040        60
27.050       107
27.060        40
27.070        73
27.080        60
27.090        67
27.100        60
27.110        80
27.120        40
27.130        47
27.140        53
27.150        87
27.160        67
27.170        67
27.180        53
27.190        67
27.200        40
27.210        73
27.220        47
27.230        60
27.240        73
27.250        60
27.260        60
27.270        53
27.280        20
27.290        73
27.300        60
27.310        60
27.320        93
27.330        27
27.340        87
27.350        60
27.360        47
27.370        80
27.380        60
27.390        73
27.400        40
27.410        47
27.420        60
27.430        27
27.440        47
27.450        53
27.460        47
27.470        73
27.480        73
27.490        80
27.500        60
27.510       100
27.520        60
27.530        33
27.540        87
27.550        40
27.560        33
27.570        73
27.580        80
27.590        27
27.600        80
27.610        53
27.620        40
27.630        67
27.640        73
27.650        80
27.660        60
27.670        60
27.680        40
27.690        93
27.700        47
27.710        73
27.720        40
27.730        47
27.740        33
27.750        33
27.760       100
27.770        60
27.780        93
27.790        47
27.800        53
27.810        47
27.820        13
27.830        53
27.840        33
27.850        33
27.860        67
27.870        53
27.880        27
27.890        20
27.900        67
27.910        80
27.920        53
27.930        47
27.940        27
27.950        67
27.960        53
27.970        40
27.980        47
27.990        60
28.000        40
28.010        47
28.020        60
28.030        33
28.040        73
28.050        27
28.060        27
28.070        40
28.080        33
28.090        33
28.100        47
28.110        60
28.120        47
28.130        27
28.140        33
28.150        47
28.160        53
28.170        47
28.180        60
28.190        60
28.200        60
28.210        33
28.220        33
28.230        80
28.240        73
28.250        47
28.260        40
28.270        53
28.280        47
28.290        80
28.300        47
28.310       113
28.320        47
28.330        47
28.340        40
28.350        53
28.360        33
28.370        47
28.380         7
28.390        40
28.400        47
28.410        47
28.420        40
28.430        60
28.440        60
28.450        47
28.460        60
28.470        73
28.480        33
28.490        93
28.500        67
28.510        67
28.520        47
28.530        47
28.540        53
28.550        47
28.560        53
28.570        87
28.580        33
28.590        87
28.600        60
28.610        53
28.620        27
28.630        73
28.640        53
28.650        67
28.660        40
28.670        67
28.680        47
28.690        53
28.700        27
28.710        87
28.720        33
28.730        40
28.740        40
28.750        47
28.760        40
28.770        47
28.780        60
28.790        67
28.800        87
28.810        67
28.820        53
28.830        87
28.840        67
28.850        67
28.860        60
28.870        40
28.880        73
28.890        80
28.900        33
28.910        60
28.920        20
28.930        60
28.940        40
28.950        67
28.960        53
28.970        67
28.980        40
28.990        73
29.000        47
29.010        60
29.020        33
29.030        40
29.040        73
29.050        33
29.060        60
29.070        53
29.080        67
29.090        40
29.100        40
29.110        40
29.120        47
29.130        27
29.140        53
29.150        47
29.160        67
29.170        53
29.180        33
29.190        73
29.200        33
29.210        53
29.220        40
29.230        67
29.240        27
29.250        27
29.260        33
29.270        40
29.280        47
29.290        33
29.300        27
29.310        73
29.320        67
29.330        40
29.340        47
29.350        13
29.360        60
29.370        53
29.380        27
29.390        80
29.400        60
29.410        33
29.420        73
29.430        40
29.440        47
29.450        53
29.460        80
29.470        60
29.480        40
29.490        33
29.500        33
29.510        60
29.520        33
29.530        60
29.540        53
29.550        33
29.560        53
29.570        60
29.580        67
29.590        67
29.600        60
29.610        47
29.620        73
29.630        47
29.640        40
29.650        53
29.660        33
29.670        93
29.680        67
29.690        53
29.700        53
29.710        80
29.720        33
29.730        60
29.740        93
29.750        93
29.760        53
29.770        27
29.780        53
29.790        47
29.800        53
29.810        67
29.820        60
29.830        60
29.840        27
29.850        60
29.860        60
29.870        53
29.880        33
29.890        20
29.900        40
29.910        40
29.920        60
29.930        60
29.940        80
29.950        47
29.960        53
29.970        40
29.980       100
29.990        53
30.000        60
30.010        80
30.020        40
30.030        40
30.040        27
30.050        33
30.060        40
30.070        20
30.080       100
30.090        60
30.100        53
30.110        67
30.120        60
30.130        67
30.140        27
30.150        53
30.160        47
30.170        33
30.180        20
30.190        33
30.200        47
30.210        33
30.220        60
30.230        40
30.240        13
30.250        20
30.260        60
30.270        47
30.280        27
30.290        60
30.300        60
30.310        53
30.320        87
30.330        60
30.340        27
30.350        40
30.360        40
30.370        40
30.380        33
30.390        60
30.400        60
30.410        47
30.420        40
30.430        27
30.440        80
30.450        33
30.460        67
30.470        53
30.480        47
30.490        73
30.500        67
30.510        33
30.520        73
30.530        53
30.540        33
30.550        87
30.560        13
30.570        47
30.580        27
30.590        47
30.600        47
30.610        27
30.620        33
30.630        20
30.640        53
30.650        47
30.660        60
30.670        40
30.680        47
30.690        27
30.700        47
30.710        60
30.720        60
30.730        27
30.740        47
30.750        33
30.760        13
30.770        67
30.780        33
30.790        73
30.800        53
30.810        33
30.820         7
30.830        20
30.840        40
30.850        33
30.860        67
30.870        53
30.880        60
30.890        33
30.900        60
30.910        33
30.920        47
30.930        47
30.940        67
30.950        67
30.960        33
30.970        47
30.980        27
30.990        40
31.000        53
31.010        47
31.020        40
31.030        47
31.040        33
31.050        53
31.060        53
31.070        47
31.080        60
31.090        87
31.100        47
31.110        53
31.120        53
31.130        33
31.140        87
31.150        40
31.160        60
31.170        27
31.180        33
31.190        73
31.200        60
31.210        33
31.220        73
31.230        53
31.240        20
31.250        60
31.260        60
31.270        47
31.280        47
31.290        33
31.300        47
31.310        33
31.320        27
31.330        53
31.340        53
31.350        20
31.360        13
31.370        47
31.380        47
31.390        40
31.400        33
31.410        40
31.420        60
31.430        73
31.440        47
31.450        33
31.460        60
31.470        27
31.480        33
31.490        33
31.500        47
31.510        40
31.520        53
31.530        67
31.540        20
31.550        53
31.560        47
31.570        40
31.580        20
31.590        53
31.600        33
31.610         7
31.620        53
31.630        53
31.640        73
31.650        47
31.660        40
31.670        27
31.680        53
31.690        67
31.700        20
31.710        33
31.720        73
31.730        27
31.740        47
31.750        20
31.760        47
31.770        13
31.780        20
31.790        33
31.800        33
31.810        47
31.820        47
31.830        33
31.840        53
31.850        40
31.860        40
31.870        27
31.880        73
31.890        40
31.900        87
31.910        20
31.920        53
31.930        20
31.940        73
31.950        73
31.960        80
31.970        53
31.980        47
31.990        33
32.000        40
32.010        67
32.020        53
32.030        33
32.040        67
32.050        93
32.060        60
32.070        93
32.080        87
32.090        27
32.100        40
32.110        53
32.120        33
32.130        53
32.140        20
32.150        47
32.160        53
32.170        67
32.180        67
32.190        47
32.200        53
32.210        80
32.220        67
32.230        73
32.240       133
32.250        93
32.260        60
32.270       100
32.280       113
32.290        80
32.300       133
32.310       127
32.320       100
32.330       107
32.340       120
32.350       127
32.360       147
32.370       207
32.380       207
32.390       200
32.400       173
32.410       227
32.420       267
32.430       247
32.440       280
32.450       220
32.460       147
32.470       200
32.480       280
32.490       227
32.500       207
32.510       213
32.520       153
32.530       160
32.540       193
32.550       187
32.560       160
32.570        93
32.580        80
32.590       140
32.600        67
32.610        67
32.620       120
32.630        80
32.640        67
32.650        53
32.660        53
32.670        47
32.680        47
32.690        53
32.700        47
32.710        27
32.720       127
32.730        33
32.740        60
32.750        33
32.760        33
32.770        27
32.780        20
32.790        33
32.800        67
32.810        80
32.820        67
32.830         7
32.840        53
32.850        27
32.860        47
32.870        20
32.880        40
32.890        67
32.900        13
32.910        27
32.920        60
32.930        60
32.940        33
32.950        13
32.960        33
32.970        47
32.980        53
32.990        27
33.000        53
33.010        13
33.020        93
33.030        67
33.040        53
33.050        40
33.060        33
33.070        40
33.080        33
33.090        27
33.100        40
33.110        20
33.120        27
33.130        33
33.140        27
33.150        60
33.160        53
33.170        33
33.180        53
33.190        53
33.200        53
33.210        53
33.220        67
33.230        33
33.240        60
33.250        13
33.260        20
33.270        47
33.280        47
33.290        20
33.300        20
33.310        20
33.320        60
33.330        33
33.340        33
33.350        27
33.360        33
33.370        20
33.380        53
33.390        40
33.400        27
33.410        20
33.420        40
33.430        67
33.440        20
33.450        27
33.460        47
33.470        20
33.480        47
33.490        47
33.500        60
33.510        27
33.520        27
33.530        40
33.540        40
33.550         7
33.560        27
33.570        20
33.580        33
33.590        73
33.600        47
33.610        47
33.620        47
33.630        47
33.640        60
33.650        20
33.660        73
33.670        67
33.680        67
33.690        40
33.700        40
33.710        53
33.720        60
33.730        53
33.740        20
33.750        33
33.760        33
33.770        53
33.780        13
33.790        20
33.800        27
33.810        13
33.820        27
33.830        40
33.840        20
33.850        33
33.860        40
33.870        13
33.880        20
33.890        27
33.900        40
33.910        67
33.920        47
33.930        13
33.940        80
33.950        40
33.960        33
33.970        33
33.980        33
33.990        27
34.000        40
34.010        20
34.020        27
34.030        13
34.040        60
34.050        33
34.060        40
34.070        27
34.080        53
34.090        20
34.100        40
34.110        33
34.120        13
34.130        40
34.140        33
34.150        40
34.160        27
34.170        33
34.180        33
34.190        27
34.200        47
34.210        20
34.220        33
34.230        60
34.240        53
34.250        67
34.260        13
34.270        33
34.280        27
34.290        40
34.300        60
34.310        60
34.320        47
34.330        33
34.340        53
34.350        33
34.360        53
34.370        27
34.380        20
34.390        47
34.400        33
34.410        47
34.420        53
34.430        33
34.440        33
34.450        53
34.460        13
34.470        13
34.480        20
34.490        47
34.500        40
34.510        87
34.520        33
34.530        13
34.540        20
34.550        40
34.560        60
34.570        40
34.580        40
34.590        40
34.600        40
34.610        40
34.620        13
34.630        67
34.640        13
34.650        13
34.660        47
34.670        27
34.680        53
34.690        20
34.700        27
34.710        47
34.720         0
34.730        47
34.740        33
34.750        33
34.760        47
34.770        33
34.780        27
34.790        33
34.800        33
34.810        27
34.820        40
34.830        27
34.840        20
34.850        27
34.860        20
34.870        40
34.880        67
34.890        73
34.900        33
34.910        47
34.920        53
34.930        33
34.940        33
34.950        20
34.960        33
34.970        27
34.980        53
34.990        47
35.000        60
35.010        27
35.020        40
35.030        53
35.040        47
35.050        67
35.060       107
35.070        47
35.080       127
35.090        73
35.100        93
35.110        93
35.120       127
35.130       140
35.140        80
35.150       147
35.160       180
35.170       213
35.180       120
35.190       200
35.200       113
35.210       147
35.220       120
35.230        80
35.240        80
35.250        87
35.260       120
35.270        93
35.280       107
35.290       113
35.300        93
35.310        67
35.320        67
35.330        27
35.340        40
35.350        60
35.360        53
35.370        67
35.380         0
35.390        60
35.400        53
35.410        40
35.420        13
35.430        27
35.440        20
35.450        33
35.460        40
35.470        40
35.480        40
35.490        87
35.500        60
35.510        60
35.520        27
35.530        20
35.540         7
35.550        33
35.560        33
35.570         0
35.580        27
35.590        20
35.600        33
35.610        20
35.620        27
35.630        40
35.640        27
35.650        33
35.660        33
35.670        27
35.680        53
35.690        53
35.700        20
35.710        67
35.720        27
35.730        20
35.740        47
35.750        53
35.760        27
35.770        20
35.780        33
35.790        13
35.800        20
35.810        20
35.820        27
35.830        33
35.840        27
35.850        27
35.860        60
35.870        40
35.880        33
35.890        13
35.900        53
35.910        53
35.920        33
35.930        13
35.940        27
35.950        47
35.960        33
35.970        53
35.980        20
35.990        27
36.000        33
36.010        60
36.020        40
36.030        27
36.040        33
36.050        80
36.060        13
36.070        53
36.080        53
36.090        27
36.100        40
36.110        53
36.120         7
36.130        33
36.140        33
36.150        33
36.160        27
36.170        53
36.180        27
36.190        27
36.200         7
36.210        20
36.220        33
36.230        40
36.240        40
36.250        27
36.260        33
36.270        53
36.280         7
36.290        20
36.300        33
36.310        27
36.320        13
36.330        13
36.340        27
36.350        47
36.360        27
36.370        40
36.380        40
36.390        53
36.400        33
36.410        27
36.420        40
36.430        27
36.440        27
36.450        33
36.460        13
36.470         7
36.480        27
36.490        27
36.500        33
36.510        33
36.520        20
36.530        53
36.540        33
36.550        47
36.560        27
36.570        47
36.580        20
36.590        13
36.600        53
36.610        33
36.620        20
36.630        20
36.640        27
36.650        20
36.660        60
36.670        33
36.680        47
36.690        53
36.700        53
36.710        47
36.720        20
36.730        27
36.740        40
36.750        40
36.760        47
36.770        20
36.780        20
36.790        47
36.800        27
36.810        27
36.820        33
36.830        27
36.840        47
36.850        47
36.860        33
36.870        20
36.880        20
36.890        20
36.900        27
36.910        33
36.920        40
36.930        40
36.940        20
36.950        33
36.960        13
36.970        27
36.980         7
36.990        33
37.000        40
37.010        40
37.020        27
37.030        33
37.040        33
37.050        33
37.060        33
37.070        20
37.080        33
37.090        20
37.100        20
37.110        40
37.120        40
37.130        33
37.140        40
37.150        53
37.160        53
37.170        33
37.180        20
37.190        13
37.200        47
37.210        33
37.220        53
37.230        27
37.240        13
37.250        53
37.260        33
37.270        27
37.280        20
37.290        47
37.300        20
37.310        53
37.320        27
37.330        13
37.340        40
37.350        27
37.360        47
37.370        20
37.380        47
37.390        27
37.400        13
37.410        47
37.420        27
37.430        27
37.440         7
37.450        60
37.460         0
37.470        27
37.480        20
37.490        13
37.500        20
37.510        33
37.520        27
37.530        13
37.540        33
37.550        67
37.560        40
37.570        33
37.580        40
37.590        27
37.600        20
37.610        80
37.620        33
37.630        67
37.640        13
37.650        67
37.660        27
37.670        27
37.680        33
37.690        47
37.700        47
37.710        33
37.720        60
37.730        20
37.740        33
37.750        60
37.760        47
37.770        60
37.780        73
37.790        40
37.800        47
37.810        80
37.820        47
37.830        53
37.840        73
37.850        40
37.860        47
37.870        60
37.880        27
37.890        33
37.900        33
37.910        13
37.920        40
37.930        33
37.940        40
37.950        33
37.960        53
37.970        27
37.980        13
37.990        27
38.000        20
38.010        33
38.020        20
38.030        20
38.040        20
38.050        27
38.060        53
38.070        20
38.080        40
38.090        20
38.100        20
38.110        27
38.120        33
38.130        27
38.140        20
38.150        33
38.160        40
38.170        40
38.180        27
38.190        27
38.200        47
38.210         7
38.220        13
38.230        20
38.240        60
38.250        40
38.260        40
38.270        33
38.280        13
38.290        20
38.300        20
38.310        13
38.320        20
38.330        27
38.340        67
38.350        40
38.360        20
38.370        27
38.380        53
38.390        47
38.400        47
38.410        20
38.420        13
38.430        20
38.440        27
38.450        33
38.460        27
38.470         0
38.480        27
38.490        33
38.500        67
38.510         7
38.520        67
38.530        33
38.540        20
38.550        27
38.560        13
38.570        13
38.580        80
38.590        27
38.600        47
38.610        60
38.620         7
38.630        20
38.640        53
38.650         7
38.660        33
38.670        67
38.680        47
38.690        40
38.700        40
38.710        33
38.720        27
38.730        13
38.740        40
38.750        27
38.760        27
38.770        27
38.780        27
38.790        20
38.800        53
38.810        60
38.820        20
38.830        13
38.840        13
38.850        33
38.860        40
38.870        47
38.880        33
38.890        33
38.900        13
38.910        27
38.920         7
38.930        27
38.940        60
38.950        40
38.960        27
38.970        13
38.980        47
38.990        40
39.000        33
39.010        13
39.020        40
39.030        27
39.040        53
39.050        40
39.060        13
39.070        27
39.080        13
39.090        20
39.100        67
39.110        47
39.120        47
39.130        27
39.140        27
39.150        40
39.160        40
39.170        40
39.180        60
39.190        47
39.200        60
39.210        20
39.220        40
39.230        33
39.240        47
39.250        47
39.260        27
39.270        20
39.280        47
39.290         7
39.300        40
39.310        47
39.320        13
39.330         7
39.340        33
39.350       100
39.360        20
39.370         7
39.380        27
39.390        40
39.400        20
39.410        53
39.420         7
39.430        40
39.440        40
39.450        20
39.460        27
39.470        47
39.480        20
39.490        27
39.500        47
39.510        13
39.520        27
39.530        40
39.540        27
39.550        13
39.560        33
39.570        53
39.580        60
39.590        27
39.600        20
39.610        53
39.620        60
39.630        47
39.640        47
39.650        40
39.660        27
39.670        73
39.680        53
39.690        27
39.700        67
39.710        73
39.720        60
39.730        67
39.740        40
39.750       120
39.760       120
39.770       100
39.780        80
39.790       120
39.800        80
39.810       113
39.820       153
39.830       147
39.840       180
39.850       173
39.860       293
39.870       327
39.880       300
39.890       307
39.900       420
39.910       473
39.920       480
39.930       513
39.940       566
39.950       546
39.960       646
39.970       726
39.980       726
39.990       806
40.000       753
40.010       746
40.020       806
40.030       713
40.040       586
40.050       580
40.060       666
40.070       646
40.080       660
40.090       446
40.100       586
40.110       493
40.120       513
40.130       506
40.140       373
40.150       433
40.160       313
40.170       300
40.180       373
40.190       240
40.200       180
40.210       180
40.220       187
40.230       120
40.240       180
40.250       120
40.260        73
40.270        93
40.280       127
40.290        60
40.300        80
40.310        93
40.320        53
40.330        40
40.340        40
40.350        87
40.360        53
40.370        47
40.380        33
40.390        27
40.400        40
40.410        40
40.420        40
40.430        40
40.440        20
40.450        27
40.460        33
40.470        67
40.480        47
40.490        33
40.500        13
40.510        27
40.520        33
40.530        47
40.540        27
40.550        33
40.560        27
40.570        67
40.580        33
40.590        27
40.600        53
40.610        40
40.620        33
40.630        27
40.640        27
40.650        27
40.660        13
40.670        47
40.680        20
40.690         7
40.700        27
40.710        53
40.720        40
40.730        27
40.740        47
40.750        53
40.760        20
40.770        20
40.780        13
40.790        53
40.800        27
40.810         7
40.820        33
40.830        20
40.840        53
40.850        20
40.860        40
40.870         7
40.880        13
40.890        13
40.900        40
40.910        33
40.920        47
40.930        33
40.940         7
40.950        27
40.960        13
40.970        47
40.980        20
40.990        33
41.000        27
41.010        40
41.020        53
41.030        13
41.040        27
41.050        47
41.060        47
41.070        33
41.080        33
41.090        27
41.100        33
41.110        33
41.120        33
41.130        47
41.140        27
41.150        27
41.160        33
41.170        20
41.180        40
41.190        40
41.200        40
41.210        60
41.220        40
41.230        27
41.240        27
41.250        20
41.260        27
41.270        53
41.280        47
41.290        20
41.300        27
41.310        20
41.320        27
41.330        27
41.340        40
41.350        13
41.360        20
41.370        27
41.380        27
41.390        33
41.400        80
41.410        53
41.420        33
41.430        47
41.440        60
41.450        47
41.460        40
41.470        87
41.480        73
41.490        67
41.500        67
41.510        67
41.520        80
41.530        27
41.540        60
41.550        87
41.560        73
41.570        93
41.580        47
41.590        87
41.600        47
41.610        93
41.620        67
41.630        93
41.640       100
41.650       140
41.660       173
41.670       140
41.680       173
41.690       227
41.700       240
41.710       200
41.720       240
41.730       193
41.740       313
41.750       200
41.760       127
41.770       133
41.780       147
41.790       100
41.800       120
41.810       160
41.820       173
41.830       187
41.840       180
41.850       173
41.860       113
41.870       107
41.880       120
41.890        73
41.900        87
41.910        80
41.920        67
41.930        47
41.940        60
41.950        27
41.960        27
41.970        53
41.980        73
41.990        33
42.000        33
42.010        33
42.020        47
42.030        40
42.040        20
42.050        47
42.060        47
42.070        53
42.080        33
42.090        60
42.100        33
42.110        47
42.120        40
42.130        40
42.140        40
42.150        20
42.160        20
42.170        47
42.180        53
42.190        33
42.200        33
42.210        40
42.220        53
42.230        20
42.240        33
42.250        80
42.260        33
42.270         7
42.280        67
42.290         7
42.300        33
42.310        53
42.320        47
42.330        53
42.340        20
42.350        80
42.360        47
42.370        27
42.380        20
42.390        20
42.400        47
42.410        27
42.420        53
42.430         7
42.440        13
42.450        33
42.460        47
42.470        13
42.480        33
42.490        40
42.500        53
42.510        40
42.520        27
42.530        27
42.540        27
42.550        47
42.560        40
42.570        13
42.580        60
42.590        40
42.600        53
42.610        40
42.620        33
42.630         7
42.640        47
42.650        20
42.660        27
42.670        27
42.680        13
42.690        40
42.700        60
42.710        47
42.720        53
42.730        20
42.740        60
42.750        27
42.760        33
42.770        20
42.780        20
42.790        20
42.800        20
42.810        33
42.820        47
42.830        40
42.840        33
42.850        20
42.860        13
42.870        20
42.880        27
42.890        40
42.900        60
42.910        40
42.920        13
42.930         7
42.940        27
42.950        27
42.960        20
42.970        27
42.980        33
42.990        33
43.000         7
43.010        27
43.020        27
43.030        47
43.040        27
43.050        20
43.060        67
43.070        33
43.080        53
43.090        53
43.100        33
43.110        53
43.120        27
43.130        13
43.140        27
43.150        33
43.160        20
43.170        33
43.180        47
43.190        73
43.200        67
43.210        47
43.220        33
43.230        73
43.240        27
43.250        73
43.260        60
43.270        53
43.280        53
43.290        87
43.300        67
43.310        93
43.320        80
43.330        67
43.340       213
43.350       227
43.360       233
43.370       233
43.380       180
43.390       227
43.400       107
43.410       153
43.420       120
43.430        73
43.440       133
43.450       127
43.460       100
43.470       147
43.480       193
43.490        87
43.500       113
43.510        80
43.520        67
43.530       107
43.540        67
43.550        33
43.560        67
43.570        40
43.580        33
43.590        40
43.600        60
43.610        27
43.620        47
43.630        40
43.640        20
43.650        20
43.660        20
43.670         7
43.680        47
43.690        20
43.700        27
43.710        33
43.720        33
43.730        67
43.740        20
43.750        13
43.760        27
43.770        13
43.780        47
43.790        47
43.800        47
43.810        13
43.820        13
43.830        33
43.840        47
43.850        33
43.860        67
43.870        53
43.880        13
43.890        27
43.900        53
43.910        13
43.920        40
43.930        13
43.940        47
43.950        27
43.960        67
43.970        27
43.980        40
43.990        53
44.000         7
44.010        13
44.020        20
44.030        27
44.040         7
44.050        47
44.060        47
44.070        13
44.080        27
44.090        33
44.100        33
44.110        47
44.120        20
44.130        53
44.140        40
44.150        47
44.160        67
44.170        40
44.180        13
44.190        47
44.200        33
44.210        33
44.220        20
44.230        40
44.240        60
44.250        33
44.260        73
44.270        20
44.280        13
44.290        13
44.300        33
44.310        47
44.320        47
44.330        53
44.340        40
44.350        20
44.360        33
44.370        53
44.380        40
44.390        47
44.400        53
44.410        47
44.420        40
44.430        13
44.440        33
44.450        33
44.460        40
44.470        53
44.480        53
44.490        27
44.500        47
44.510        40
44.520        20
44.530        33
44.540        40
44.550        47
44.560        40
44.570        73
44.580        60
44.590        67
44.600        60
44.610        93
44.620        40
44.630        53
44.640        33
44.650        47
44.660        47
44.670        27
44.680        60
44.690        40
44.700        67
44.710        33
44.720        60
44.730        27
44.740        80
44.750        60
44.760        87
44.770        47
44.780        73
44.790        93
44.800        73
44.810       107
44.820        80
44.830        93
44.840        67
44.850       100
44.860        80
44.870       153
44.880        67
44.890       127
44.900        93
44.910       140
44.920       127
44.930        80
44.940       140
44.950        67
44.960       133
44.970       140
44.980       200
44.990       113
45.000       113
45.010        87
45.020       107
45.030       147
45.040       100
45.050       173
45.060       127
45.070       120
45.080       147
45.090       100
45.100       127
45.110       113
45.120       100
45.130       127
45.140       113
45.150       120
45.160       127
45.170       120
45.180       187
45.190       153
45.200       153
45.210       153
45.220       113
45.230       140
45.240       107
45.250       160
45.260       147
45.270        93
45.280       147
45.290       140
45.300       140
45.310       107
45.320       147
45.330        80
45.340       147
45.350       153
45.360       160
45.370       133
45.380       193
45.390       160
45.400       127
45.410       120
45.420       153
45.430       173
45.440       160
45.450       120
45.460       147
45.470       167
45.480       220
45.490       200
45.500       173
45.510       133
45.520       233
45.530       153
45.540       227
45.550       207
45.560       193
45.570       180
45.580       160
45.590       120
45.600       280
45.610       207
45.620       213
45.630       207
45.640       220
45.650       173
45.660       293
45.670       200
45.680       253
45.690       253
45.700       240
45.710       253
45.720       273
45.730       313
45.740       327
45.750       267
45.760       253
45.770       173
45.780       333
45.790       333
45.800       333
45.810       340
45.820       360
45.830       373
45.840       347
45.850       413
45.860       333
45.870       393
45.880       526
45.890       420
45.900       453
45.910       580
45.920       580
45.930       533
45.940       533
45.950       606
45.960       706
45.970       646
45.980       693
45.990       920
46.000       766
46.010       866
46.020       933
46.030      1040
46.040      1053
46.050      1180
46.060      1273
46.070      1386
46.080      1379
46.090      1499
46.100      1479
46.110      1633
46.120      1773
46.130      1933
46.140      2319
46.150      2326
46.160      2232
46.170      2659
46.180      3039
46.190      3065
46.200      3232
46.210      3679
46.220      3725
46.230      4085
46.240      4412
46.250      4731
46.260      4791
46.270      5251
46.280      5798
46.290      5804
46.300      6671
46.310      6824
46.320      7510
46.330      7697
46.340      8003
46.350      8330
46.360      8530
46.370      9323
46.380      9936
46.390     10203
46.400     10436
46.410     10263
46.420     10729
46.430     11389
46.440     11682
46.450     11689
46.460     11829
46.470     11389
46.480     10909
46.490     11435
46.500     11122
46.510     11735
46.520     10589
46.530     10462
46.540     10243
46.550     10016
46.560      9809
46.570      9589
46.580      9456
46.590      8543
46.600      8217
46.610      7904
46.620      7497
46.630      7090
46.640      6324
46.650      6024
46.660      6111
46.670      5451
46.680      5058
46.690      4885
46.700      4385
46.710      4365
46.720      3972
46.730      3699
46.740      3279
46.750      3132
46.760      3139
46.770      2646
46.780      2406
46.790      2272
46.800      2013
46.810      2013
46.820      1699
46.830      1773
46.840      1373
46.850      1653
46.860      1459
46.870      1266
46.880      1220
46.890      1140
46.900      1073
46.910       993
46.920       993
46.930       993
46.940      1000
46.950       960
46.960       740
46.970       693
46.980       666
46.990       666
47.000       726
47.010       480
47.020       693
47.030       486
47.040       493
47.050       580
47.060       553
47.070       540
47.080       620
47.090       520
47.100       473
47.110       433
47.120       426
47.130       340
47.140       313
47.150       400
47.160       373
47.170       393
47.180       273
47.190       227
47.200       407
47.210       280
47.220       380
47.230       373
47.240       320
47.250       300
47.260       200
47.270       293
47.280       213
47.290       327
47.300       227
47.310       173
47.320       273
47.330       240
47.340       240
47.350       200
47.360       147
47.370       167
47.380       180
47.390       160
47.400       240
47.410       193
47.420       180
47.430       253
47.440       207
47.450       160
47.460       227
47.470       220
47.480       207
47.490       240
47.500       173
47.510       173
47.520       187
47.530       167
47.540       220
47.550       160
47.560       180
47.570       200
47.580       193
47.590        80
47.600       180
47.610       160
47.620       180
47.630       113
47.640       140
47.650       160
47.660       167
47.670       173
47.680       180
47.690       147
47.700       227
47.710       120
47.720       140
47.730       200
47.740       127
47.750       120
47.760        93
47.770       153
47.780       140
47.790       127
47.800       127
47.810       133
47.820       153
47.830       120
47.840       107
47.850       153
47.860       147
47.870       153
47.880       127
47.890        87
47.900       147
47.910        67
47.920        47
47.930       127
47.940       113
47.950       187
47.960       100
47.970        73
47.980        87
47.990       133
48.000        93
48.010       113
48.020        87
48.030       140
48.040        73
48.050        80
48.060       107
48.070        73
48.080        93
48.090        93
48.100        93
48.110       153
48.120        73
48.130        87
48.140        47
48.150       113
48.160        27
48.170       113
48.180        93
48.190        47
48.200       113
48.210       113
48.220       113
48.230        93
48.240       100
48.250       113
48.260       100
48.270        80
48.280        93
48.290       107
48.300        87
48.310        60
48.320       113
48.330        80
48.340        87
48.350        80
48.360       100
48.370        73
48.380        53
48.390       100
48.400        93
48.410       120
48.420       107
48.430        87
48.440        40
48.450        93
48.460        20
48.470       113
48.480        53
48.490       113
48.500        87
48.510        73
48.520        93
48.530        67
48.540        87
48.550        80
48.560        80
48.570       120
48.580        73
48.590        53
48.600        73
48.610        73
48.620        60
48.630        47
48.640       100
48.650        53
48.660        93
48.670        53
48.680        80
48.690        67
48.700        73
48.710        87
48.720        53
48.730        87
48.740        73
48.750        93
48.760        60
48.770        80
48.780       100
48.790        40
48.800        60
48.810        80
48.820        47
48.830       100
48.840        60
48.850       107
48.860        27
48.870        80
48.880        60
48.890        87
48.900        60
48.910        93
48.920       113
48.930        67
48.940        47
48.950        53
48.960        87
48.970        73
48.980        53
48.990       120
49.000        60
49.010        47
49.020        53
49.030        60
49.040        87
49.050        53
49.060        40
49.070        33
49.080        53
49.090        67
49.100        87
49.110        33
49.120        73
49.130        67
49.140        40
49.150        67
49.160        20
49.170        60
49.180        47
49.190        67
49.200        93
49.210        53
49.220        87
49.230       100
49.240        73
49.250        40
49.260        87
49.270        47
49.280        60
49.290        40
49.300        73
49.310        53
49.320        60
49.330        47
49.340        53
49.350        80
49.360        60
49.370        33
49.380        67
49.390        40
49.400        67
49.410        73
49.420        53
49.430        87
49.440       100
49.450        73
49.460        80
49.470        87
49.480        53
49.490        67
49.500        93
49.510        33
49.520        60
49.530        80
49.540        33
49.550        80
49.560        80
49.570        73
49.580        80
49.590        53
49.600        53
49.610        53
49.620        73
49.630        80
49.640        67
49.650        60
49.660        87
49.670        67
49.680        60
49.690        67
49.700        67
49.710        27
49.720        53
49.730        60
49.740        93
49.750        53
49.760        53
49.770        47
49.780        33
49.790        27
49.800        47
49.810        67
49.820        20
49.830        53
49.840        73
49.850        67
49.860        47
49.870        47
49.880        60
49.890        67
49.900        67
49.910        33
49.920        40
49.930       120
49.940        47
49.950        60
49.960        40
49.970        67
49.980        80
49.990        40
50.000        60
50.010        53
50.020        87
50.030        73
50.040        53
50.050        87
50.060        80
50.070        53
50.080        47
50.090        40
50.100        53
50.110        73
50.120        40
50.130        40
50.140         7
50.150        47
50.160        53
50.170        47
50.180        47
50.190        47
50.200        53
50.210        27
50.220        40
50.230        40
50.240        33
50.250       100
50.260        67
50.270        47
50.280        73
50.290        33
50.300        27
50.310        47
50.320        53
50.330        47
50.340        60
50.350        40
50.360        40
50.370        40
50.380        33
50.390        93
50.400        67
50.410        20
50.420        47
50.430        33
50.440        20
50.450        27
50.460        60
50.470        53
50.480        33
50.490        40
50.500        67
50.510        80
50.520        40
50.530        33
50.540        33
50.550        27
50.560        33
50.570        40
50.580        53
50.590        40
50.600        73
50.610        40
50.620        60
50.630        53
50.640        60
50.650        47
50.660        40
50.670        60
50.680        73
50.690        47
50.700        53
50.710        20
50.720        53
50.730        87
50.740        80
50.750        40
50.760        67
50.770        73
50.780        33
50.790        67
50.800        40
50.810        27
50.820        53
50.830        20
50.840        40
50.850        67
50.860        47
50.870        27
50.880        53
50.890        33
50.900        67
50.910        33
50.920        47
50.930        80
50.940        67
50.950        53
50.960        73
50.970        73
50.980        80
50.990        27
51.000        33
51.010        40
51.020        33
51.030       100
51.040        60
51.050        27
51.060        67
51.070        67
51.080        47
51.090        67
51.100        67
51.110        53
51.120        80
51.130        13
51.140        47
51.150        27
51.160        60
51.170        40
51.180        60
51.190        33
51.200        33
51.210        33
51.220        40
51.230        47
51.240        33
51.250        47
51.260        27
51.270        60
51.280        20
51.290        47
51.300        87
51.310        33
51.320        60
51.330        33
51.340        27
51.350        47
51.360        40
51.370        67
51.380        33
51.390        20
51.400        67
51.410        20
51.420        33
51.430        67
51.440        33
51.450        20
51.460        53
51.470        27
51.480        27
51.490        40
51.500        67
51.510        47
51.520        47
51.530        20
51.540        53
51.550        33
51.560        47
51.570        33
51.580        33
51.590        20
51.600        47
51.610         7
51.620        67
51.630        33
51.640        33
51.650        20
51.660        47
51.670        40
51.680        53
51.690        73
51.700        40
51.710        53
51.720        27
51.730        53
51.740        47
51.750        60
51.760        27
51.770        13
51.780        73
51.790        47
51.800        40
51.810        93
51.820        53
51.830        33
51.840        40
51.850        60
51.860        47
51.870        33
51.880        80
51.890        73
51.900        27
51.910        20
51.920        40
51.930        53
51.940        33
51.950        27
51.960        33
51.970        53
51.980        40
51.990        60
52.000        27
52.010        80
52.020        13
52.030        93
52.040        20
52.050        40
52.060        13
52.070        60
52.080        40
52.090        67
52.100        40
52.110        40
52.120        20
52.130        60
52.140        33
52.150        20
52.160        20
52.170        13
52.180        33
52.190        33
52.200        13
52.210        40
52.220        93
52.230        40
52.240        47
52.250        53
52.260        73
52.270        33
52.280        33
52.290        33
52.300        40
52.310        47
52.320        40
52.330        27
52.340        13
52.350        53
52.360        47
52.370        53
52.380        53
52.390        53
52.400        53
52.410        40
52.420        47
52.430        40
52.440        33
52.450        53
52.460        47
52.470        47
52.480        40
52.490        53
52.500        73
52.510        47
52.520        53
52.530        47
52.540        60
52.550        40
52.560        53
52.570        60
52.580        33
52.590        53
52.600        40
52.610        53
52.620        80
52.630        47
52.640        20
52.650        53
52.660        67
52.670        47
52.680        87
52.690        73
52.700        27
52.710        60
52.720        20
52.730        53
52.740        33
52.750        40
52.760        13
52.770        40
52.780        20
52.790        20
52.800        27
52.810        60
52.820        47
52.830        53
52.840        20
52.850        20
52.860        40
52.870        60
52.880        27
52.890        47
52.900        20
52.910        40
52.920        53
52.930        60
52.940        27
52.950        53
52.960        27
52.970        47
52.980        27
52.990        20
53.000        53
53.010        60
53.020        33
53.030        40
53.040        27
53.050        20
53.060        40
53.070        47
53.080        13
53.090        27
53.100        47
53.110        60
53.120        53
53.130        47
53.140        33
53.150        27
53.160        13
53.170        47
53.180        27
53.190        20
53.200        27
53.210        20
53.220        33
53.230        73
53.240        13
53.250        27
53.260        27
53.270        40
53.280        33
53.290        20
53.300        40
53.310        27
53.320        40
53.330        60
53.340        20
53.350        47
53.360        40
53.370        53
53.380        53
53.390        47
53.400        40
53.410        60
53.420        20
53.430        60
53.440        60
53.450        13
53.460        27
53.470        13
53.480        33
53.490        20
53.500        40
53.510        47
53.520        20
53.530        47
53.540        60
53.550         7
53.560        40
53.570        33
53.580        53
53.590        27
53.600        20
53.610        20
53.620        60
53.630         7
53.640        33
53.650        27
53.660        40
53.670        13
53.680        47
53.690        53
53.700        53
53.710        47
53.720        47
53.730        27
53.740        20
53.750        27
53.760        27
53.770        53
53.780        33
53.790        20
53.800        27
53.810        53
53.820        27
53.830        47
53.840        40
53.850        60
53.860        20
53.870        47
53.880        33
53.890        20
53.900        27
53.910        47
53.920        33
53.930        27
53.940        33
53.950        33
53.960        47
53.970        33
53.980        53
53.990        40
54.000        20
54.010        40
54.020        40
54.030        27
54.040        20
54.050        27
54.060        27
54.070        40
54.080        60
54.090        20
54.100        40
54.110        33
54.120        20
54.130        40
54.140        33
54.150        27
54.160        40
54.170        73
54.180        33
54.190        33
54.200        20
54.210        33
54.220        33
54.230        33
54.240        47
54.250        33
54.260        60
54.270        33
54.280        47
54.290        33
54.300        20
54.310        60
54.320        40
54.330        33
54.340        33
54.350        27
54.360        53
54.370         0
54.380        40
54.390        27
54.400        20
54.410        13
54.420        20
54.430        33
54.440        20
54.450        33
54.460        47
54.470        27
54.480        33
54.490        27
54.500        20
54.510        13
54.520         7
54.530        60
54.540        40
54.550        47
54.560        47
54.570        47
54.580        40
54.590        20
54.600        40
54.610        27
54.620        27
54.630        73
54.640        33
54.650        47
54.660        27
54.670        60
54.680        60
54.690        27
54.700        20
54.710        13
54.720        33
54.730        33
54.740        20
54.750        33
54.760        60
54.770        20
54.780        13
54.790         7
54.800        33
54.810        20
54.820        33
54.830        27
54.840        47
54.850        40
54.860        20
54.870        27
54.880        20
54.890        40
54.900        53
54.910        47
54.920        27
54.930        67
54.940        33
54.950        27
54.960        40
54.970        47
54.980        53
54.990        33
55.000        40
55.010        27
55.020        13
55.030        33
55.040        27
55.050        20
55.060        33
55.070        40
55.080        53
55.090        47
55.100        33
55.110         7
55.120        60
55.130        27
55.140        27
55.150        33
55.160        40
55.170        13
55.180        40
55.190        20
55.200        13
55.210        47
55.220        27
55.230        33
55.240        27
55.250        33
55.260        47
55.270        47
55.280        27
55.290        40
55.300        80
55.310        33
55.320        40
55.330        27
55.340        27
55.350        33
55.360        40
55.370        47
55.380        13
55.390        40
55.400        40
55.410        27
55.420        13
55.430        27
55.440        40
55.450        53
55.460        27
55.470        40
55.480        33
55.490        27
55.500        27
55.510        27
55.520        40
55.530        40
55.540        13
55.550         7
55.560        27
55.570        13
55.580        33
55.590        40
55.600        27
55.610        13
55.620        40
55.630        27
55.640        40
55.650        27
55.660        40
55.670        40
55.680        53
55.690        40
55.700        33
55.710        20
55.720        20
55.730        33
55.740        13
55.750        27
55.760        20
55.770        33
55.780        33
55.790        40
55.800        40
55.810        20
55.820        40
55.830         7
55.840        47
55.850        40
55.860        20
55.870        47
55.880        60
55.890        60
55.900        33
55.910        40
55.920        27
55.930        33
55.940        27
55.950        40
55.960        27
55.970        27
55.980        40
55.990        27
56.000         7
56.010         7
56.020        33
56.030        47
56.040        40
56.050        33
56.060        40
56.070        33
56.080        20
56.090        33
56.100        60
56.110        40
56.120        13
56.130        13
56.140        27
56.150        33
56.160        40
56.170        47
56.180        13
56.190        40
56.200        27
56.210        27
56.220        33
56.230        20
56.240        47
56.250        60
56.260        13
56.270        40
56.280        53
56.290        13
56.300        20
56.310        20
56.320        33
56.330        53
56.340        27
56.350        20
56.360        33
56.370        13
56.380        20
56.390        40
56.400        33
56.410        33
56.420        13
56.430        20
56.440        27
56.450        20
56.460        33
56.470        27
56.480        60
56.490        20
56.500        20
56.510        27
56.520        53
56.530        13
56.540        20
56.550        47
56.560        33
56.570        47
56.580         7
56.590        40
56.600        20
56.610        20
56.620        33
56.630        33
56.640        13
56.650        20
56.660        27
56.670        27
56.680         0
56.690        27
56.700        40
56.710        20
56.720        47
56.730        27
56.740        27
56.750         7
56.760        13
56.770        47
56.780        47
56.790        53
56.800        47
56.810        33
56.820        20
56.830        27
56.840        33
56.850        20
56.860        40
56.870        27
56.880        20
56.890        80
56.900        13
56.910        47
56.920        53
56.930        20
56.940        27
56.950        20
56.960        13
56.970        20
56.980        13
56.990        27
57.000        60
57.010         7
57.020        20
57.030        20
57.040        13
57.050        20
57.060        33
57.070         7
57.080        20
57.090        27
57.100        20
57.110        20
57.120        53
57.130        33
57.140        20
57.150        20
57.160        33
57.170        47
57.180        40
57.190         7
57.200        47
57.210        47
57.220        33
57.230        67
57.240        33
57.250        13
57.260        33
57.270        40
57.280        33
57.290        40
57.300        47
57.310        13
57.320        47
57.330        67
57.340        47
57.350        53
57.360        60
57.370        33
57.380       100
57.390        13
57.400        73
57.410        33
57.420        40
57.430        47
57.440        73
57.450        60
57.460        67
57.470       120
57.480       167
57.490       247
57.500       293
57.510       420
57.520       460
57.530       526
57.540       740
57.550       753
57.560       553
57.570       520
57.580       520
57.590       293
57.600       220
57.610       173
57.620       147
57.630        80
57.640       140
57.650       160
57.660       187
57.670       233
57.680       307
57.690       313
57.700       300
57.710       300
57.720       300
57.730       207
57.740       213
57.750       153
57.760       173
57.770       107
57.780        53
57.790        87
57.800        93
57.810        93
57.820        67
57.830        87
57.840        67
57.850        73
57.860        40
57.870        47
57.880        27
57.890        40
57.900        27
57.910        47
57.920        33
57.930        60
57.940        33
57.950        33
57.960        67
57.970        53
57.980        53
57.990        53
58.000        53
58.010        40
58.020        27
58.030        33
58.040        80
58.050        27
58.060        53
58.070        47
58.080        33
58.090        20
58.100        53
58.110        93
58.120        20
58.130        27
58.140        27
58.150        40
58.160        20
58.170        27
58.180        80
58.190        47
58.200        13
58.210        33
58.220        33
58.230        60
58.240        47
58.250        33
58.260        27
58.270        20
58.280         7
58.290        27
58.300        33
58.310        40
58.320        20
58.330        40
58.340         7
58.350        27
58.360        40
58.370        20
58.380        40
58.390        27
58.400        27
58.410        27
58.420         7
58.430        27
58.440        13
58.450         7
58.460        20
58.470        13
58.480        33
58.490        20
58.500        20
58.510        33
58.520        13
58.530        27
58.540        27
58.550        20
58.560         7
58.570        20
58.580         7
58.590        20
58.600        27
58.610        20
58.620        13
58.630        20
58.640        53
58.650         0
58.660        60
58.670        27
58.680         7
58.690        53
58.700        40
58.710        27
58.720        33
58.730        33
58.740         7
58.750        13
58.760        40
58.770         7
58.780        20
58.790        20
58.800        40
58.810        27
58.820        13
58.830        33
58.840        20
58.850        20
58.860        20
58.870         7
58.880        20
58.890        20
58.900        13
58.910        20
58.920        33
58.930         7
58.940        20
58.950        13
58.960        13
58.970        20
58.980        13
58.990        33
59.000        20
59.010        13
59.020        20
59.030        20
59.040        13
59.050        40
59.060        13
59.070        27
59.080        40
59.090        40
59.100        13
59.110        20
59.120        20
59.130        33
59.140        40
59.150        20
59.160        13
59.170        53
59.180        27
59.190        27
59.200        40
59.210        33
59.220        20
59.230         7
59.240        33
59.250         0
59.260        40
59.270         7
59.280        27
59.290        20
59.300        13
59.310        27
59.320        20
59.330        13
59.340         7
59.350        13
59.360        40
59.370        13
59.380        13
59.390        13
59.400        13
59.410        13
59.420        20
59.430        20
59.440        13
59.450        13
59.460        33
59.470        40
59.480        40
59.490        27
59.500        13
59.510        27
59.520        33
59.530        27
59.540        40
59.550        20
59.560        33
59.570        27
59.580        67
59.590        13
59.600        27
59.610        47
59.620         0
59.630        13
59.640        47
59.650        13
59.660        27
59.670         7
59.680        27
59.690        47
59.700        47
59.710         7
59.720        13
59.730        33
59.740        13
59.750        47
59.760        40
59.770        13
59.780        20
59.790        67
59.800        33
59.810        13
59.820        47
59.830        27
59.840        20
59.850        20
59.860         7
59.870        27
59.880        13
59.890        13
59.900        53
59.910        13
59.920        20
59.930         0
59.940        13
59.950        20
59.960        33
59.970        13
59.980        27
59.990        27
60.000        27
