20.000         0
20.010         0
20.020         0
20.030         0
20.040         0
20.050         0
20.060         0
20.070         0
20.080         0
20.090         0
20.100         0
20.110         0
20.120         0
20.130         0
20.140         0
20.150         0
20.160         0
20.170         0
20.180         0
20.190         0
20.200         0
20.210         0
20.220         0
20.230         0
20.240         0
20.250         0
20.260         0
20.270         0
20.280         0
20.290         0
20.300         0
20.310         0
20.320         0
20.330         0
20.340         0
20.350         0
20.360         7
20.370         0
20.380         0
20.390        53
20.400        47
20.410        27
20.420        33
20.430        80
20.440        47
20.450        53
20.460        20
20.470        27
20.480        27
20.490        47
20.500        40
20.510        27
20.520        33
20.530        27
20.540        73
20.550        33
20.560        27
20.570        40
20.580        27
20.590        40
20.600        47
20.610        27
20.620        13
20.630        87
20.640        67
20.650        33
20.660        27
20.670        33
20.680        20
20.690        47
20.700        80
20.710        47
20.720        20
20.730        53
20.740        60
20.750        93
20.760        73
20.770        47
20.780        40
20.790        33
20.800        27
20.810        27
20.820        53
20.830        60
20.840        60
20.850        93
20.860        60
20.870        53
20.880        33
20.890        80
20.900        60
20.910        33
20.920        67
20.930        27
20.940        33
20.950        33
20.960        40
20.970        20
20.980        73
20.990        33
21.000        60
21.010        33
21.020        67
21.030        20
21.040        40
21.050        53
21.060        47
21.070        20
21.080        40
21.090        27
21.100        60
21.110        27
21.120        67
21.130        20
21.140        33
21.150        47
21.160        27
21.170        53
21.180        40
21.190        33
21.200        53
21.210        13
21.220        20
21.230        47
21.240        33
21.250        40
21.260        20
21.270        40
21.280        60
21.290        40
21.300        33
21.310        33
21.320        53
21.330        13
21.340        27
21.350        73
21.360        13
21.370        40
21.380        60
21.390        20
21.400        33
21.410        47
21.420        20
21.430        20
21.440        60
21.450        93
21.460        33
21.470        53
21.480        53
21.490        47
21.500        27
21.510        73
21.520        27
21.530        47
21.540        27
21.550        20
21.560        20
21.570        33
21.580        47
21.590        60
21.600        27
21.610        53
21.620        53
21.630        47
21.640        40
21.650        53
21.660        27
21.670        27
21.680        33
21.690        33
21.700        47
21.710        60
21.720        40
21.730        60
21.740        33
21.750        40
21.760        40
21.770        40
21.780        47
21.790        40
21.800        40
21.810        47
21.820        47
21.830        27
21.840        67
21.850        20
21.860        67
21.870        20
21.880        27
21.890        67
21.900        20
21.910        40
21.920        40
21.930        40
21.940        13
21.950        20
21.960        13
21.970        40
21.980        53
21.990        47
22.000        53
22.010        20
22.020        33
22.030        27
22.040        40
22.050        27
22.060        53
22.070        47
22.080        47
22.090        40
22.100        40
22.110        33
22.120        33
22.130        27
22.140        33
22.150        53
22.160        67
22.170        13
22.180        20
22.190        40
22.200        40
22.210        33
22.220        60
22.230        13
22.240        53
22.250        47
22.260        40
22.270        73
22.280        47
22.290        67
22.300        67
22.310        67
22.320        87
22.330        33
22.340        80
22.350        67
22.360        73
22.370        53
22.380        73
22.390        53
22.400        47
22.410        80
22.420        47
22.430        93
22.440        73
22.450        67
22.460        93
22.470        67
22.480       100
22.490        73
22.500        67
22.510       107
22.520       167
22.530       140
22.540       133
22.550       140
22.560       107
22.570       180
22.580       220
22.590       113
22.600       220
22.610       173
22.620       187
22.630       200
22.640       140
22.650       153
22.660       140
22.670       133
22.680       127
22.690       167
22.700       120
22.710        73
22.720       160
22.730        87
22.740        33
22.750        60
22.760        60
22.770        40
22.780        60
22.790        87
22.800        73
22.810        47
22.820        53
22.830        47
22.840        53
22.850        87
22.860        73
22.870        80
22.880        87
22.890        80
22.900        60
22.910        53
22.920        13
22.930        47
22.940        73
22.950        67
22.960        67
22.970        53
22.980        40
22.990        60
23.000        67
23.010        40
23.020        40
23.030        60
23.040        20
23.050        20
23.060        67
23.070        60
23.080        60
23.090        27
23.100        27
23.110        27
23.120        40
23.130        20
23.140        20
23.150        33
23.160        33
23.170        40
23.180        27
23.190        53
23.200        33
23.210        27
23.220        13
23.230        53
23.240        53
23.250        47
23.260         7
23.270        47
23.280        47
23.290        33
23.300        40
23.310        33
23.320        33
23.330        33
23.340        33
23.350        27
23.360        27
23.370        20
23.380        33
23.390        33
23.400        27
23.410        40
23.420        20
23.430        60
23.440        47
23.450        40
23.460        33
23.470        27
23.480        53
23.490        27
23.500        60
23.510        53
23.520        13
23.530        13
23.540         7
23.550        40
23.560        27
23.570        47
23.580        33
23.590        20
23.600        40
23.610        40
23.620        67
23.630        33
23.640        33
23.650        20
23.660        20
23.670        73
23.680        13
23.690        33
23.700        40
23.710        53
23.720        53
23.730        47
23.740        40
23.750        20
23.760        13
23.770        27
23.780        27
23.790        47
23.800        33
23.810        47
23.820        33
23.830        27
23.840        40
23.850        47
23.860        27
23.870        40
23.880        33
23.890        40
23.900        27
23.910        87
23.920        33
23.930        40
23.940        33
23.950        13
23.960        40
23.970        27
23.980        40
23.990        33
24.000        20
24.010         7
24.020        53
24.030        40
24.040        27
24.050        20
24.060        33
24.070         7
24.080        47
24.090        47
24.100        20
24.110        33
24.120        27
24.130        33
24.140        27
24.150         7
24.160        13
24.170        53
24.180        47
24.190        40
24.200        20
24.210        60
24.220        40
24.230        40
24.240        40
24.250        47
24.260        27
24.270        53
24.280        27
24.290        20
24.300        20
24.310        40
24.320        27
24.330        60
24.340        80
24.350        20
24.360        40
24.370        40
24.380        40
24.390        40
24.400        40
24.410        40
24.420        53
24.430        13
24.440        20
24.450        33
24.460       107
24.470        33
24.480        27
24.490        27
24.500        40
24.510        33
24.520        40
24.530        40
24.540        20
24.550        47
24.560        20
24.570        20
24.580        53
24.590        53
24.600         7
24.610        13
24.620        40
24.630        53
24.640        40
24.650        47
24.660        47
24.670        40
24.680        47
24.690        60
24.700        27
24.710        40
24.720        33
24.730        53
24.740        33
24.750        40
24.760        53
24.770        27
24.780        60
24.790        53
24.800        33
24.810        47
24.820        33
24.830        53
24.840        67
24.850        33
24.860        33
24.870        20
24.880        40
24.890        13
24.900        67
24.910        67
24.920        60
24.930        20
24.940        53
24.950        53
24.960        47
24.970        33
24.980        13
24.990        93
25.000        60
25.010        13
25.020        53
25.030        40
25.040        20
25.050        13
25.060        60
25.070        33
25.080        67
25.090        93
25.100        47
25.110        40
25.120        27
25.130        27
25.140        60
25.150        60
25.160        40
25.170        73
25.180        60
25.190        27
25.200        47
25.210        20
25.220        47
25.230        40
25.240        87
25.250        60
25.260        80
25.270        20
25.280        40
25.290        60
25.300        67
25.310        87
25.320        40
25.330        13
25.340        33
25.350        27
25.360        40
25.370        47
25.380        53
25.390        47
25.400        33
25.410        67
25.420        87
25.430        87
25.440        60
25.450        73
25.460        80
25.470        47
25.480        93
25.490        73
25.500        80
25.510       140
25.520       147
25.530       133
25.540       153
25.550       147
25.560       153
25.570       207
25.580       307
25.590       360
25.600       407
25.610       340
25.620       473
25.630       440
25.640       440
25.650       400
25.660       313
25.670       313
25.680       393
25.690       313
25.700       340
25.710       253
25.720       247
25.730       333
25.740       287
25.750       333
25.760       360
25.770       460
25.780       293
25.790       407
25.800       320
25.810       293
25.820       307
25.830       320
25.840       287
25.850       207
25.860       187
25.870       220
25.880       140
25.890       140
25.900        80
25.910       107
25.920       133
25.930       100
25.940       120
25.950        80
25.960        87
25.970        47
25.980        53
25.990       120
26.000        67
26.010        67
26.020        73
26.030        53
26.040        47
26.050        47
26.060         0
26.070        40
26.080        60
26.090        53
26.100        80
26.110        53
26.120        73
26.130        40
26.140        53
26.150        27
26.160        13
26.170        33
26.180        20
26.190        33
26.200        13
26.210        47
26.220        53
26.230        60
26.240        40
26.250        33
26.260        33
26.270        40
26.280        47
26.290        20
26.300        20
26.310        33
26.320        40
26.330        73
26.340        20
26.350        20
26.360        33
26.370        20
26.380        20
26.390        40
26.400        40
26.410        40
26.420        13
26.430        73
26.440        13
26.450        13
26.460        40
26.470        33
26.480        27
26.490        47
26.500        33
26.510        40
26.520        40
26.530        27
26.540        40
26.550        40
26.560        13
26.570        40
26.580        27
26.590        27
26.600        27
26.610        33
26.620        60
26.630        47
26.640        27
26.650        33
26.660        87
26.670        40
26.680         7
26.690        40
26.700        53
26.710        33
26.720        33
26.730        33
26.740        33
26.750        33
26.760        27
26.770        33
26.780        40
26.790        60
26.800        53
26.810         7
26.820        27
26.830        20
26.840        53
26.850        27
26.860         7
26.870        27
26.880        53
26.890        33
26.900        40
26.910        27
26.920        40
26.930        20
26.940        47
26.950        27
26.960        27
26.970        27
26.980        27
26.990        47
27.000        47
27.010        33
27.020        53
27.030        27
27.040        53
27.050        27
27.060        73
27.070        13
27.080        20
27.090        20
27.100         7
27.110        27
27.120        27
27.130        33
27.140        13
27.150        53
27.160        20
27.170        40
27.180         7
27.190        20
27.200        40
27.210        40
27.220         7
27.230        13
27.240        27
27.250        13
27.260        33
27.270        53
27.280        20
27.290        27
27.300        33
27.310        27
27.320        47
27.330        13
27.340        53
27.350        20
27.360        40
27.370         7
27.380        53
27.390        53
27.400        87
27.410        47
27.420        27
27.430        60
27.440        13
27.450         7
27.460        53
27.470        20
27.480        13
27.490        33
27.500        27
27.510        33
27.520        20
27.530        53
27.540        47
27.550        33
27.560        20
27.570        47
27.580        27
27.590        20
27.600        27
27.610        27
27.620        40
27.630        27
27.640        27
27.650        40
27.660        33
27.670        33
27.680        27
27.690        27
27.700        73
27.710        20
27.720        80
27.730        20
27.740        40
27.750        33
27.760        60
27.770        47
27.780        47
27.790        20
27.800        53
27.810        27
27.820        67
27.830        60
27.840        33
27.850        40
27.860        53
27.870        73
27.880        73
27.890        27
27.900        33
27.910        40
27.920        33
27.930        33
27.940        67
27.950        67
27.960        27
27.970        47
27.980        20
27.990        20
28.000        73
28.010        47
28.020        27
28.030        53
28.040         7
28.050        40
28.060        53
28.070        33
28.080        33
28.090        80
28.100        53
28.110        67
28.120        33
28.130        27
28.140        47
28.150        27
28.160        47
28.170        60
28.180        47
28.190        53
28.200        73
28.210        47
28.220        67
28.230        53
28.240        13
28.250        53
28.260        53
28.270        73
28.280        40
28.290        40
28.300       100
28.310        67
28.320        53
28.330        80
28.340        47
28.350        27
28.360        53
28.370        33
28.380        67
28.390        40
28.400        53
28.410        27
28.420        40
28.430        67
28.440        33
28.450        47
28.460        33
28.470        33
28.480        40
28.490        27
28.500        47
28.510        33
28.520        13
28.530        53
28.540        53
28.550        53
28.560        20
28.570        20
28.580        40
28.590        73
28.600        87
28.610        40
28.620        47
28.630        47
28.640        40
28.650        13
28.660        80
28.670        40
28.680        33
28.690        27
28.700        53
28.710        53
28.720        47
28.730        67
28.740        87
28.750       113
28.760        80
28.770        87
28.780        60
28.790        53
28.800       120
28.810        87
28.820       120
28.830        87
28.840       140
28.850       140
28.860       173
28.870       100
28.880       180
28.890       227
28.900       247
28.910       200
28.920       260
28.930       273
28.940       280
28.950       300
28.960       293
28.970       313
28.980       440
28.990       340
29.000       400
29.010       387
29.020       400
29.030       400
29.040       433
29.050       533
29.060       560
29.070       613
29.080       513
29.090       640
29.100       720
29.110       920
29.120       726
29.130       926
29.140       980
29.150       966
29.160       993
29.170      1046
29.180       900
29.190       886
29.200       793
29.210       713
29.220       626
29.230       513
29.240       560
29.250       480
29.260       466
29.270       440
29.280       300
29.290       253
29.300       160
29.310       140
29.320       133
29.330       153
29.340       133
29.350       140
29.360       120
29.370       113
29.380        93
29.390       120
29.400       107
29.410       180
29.420       140
29.430       153
29.440        93
29.450       133
29.460       153
29.470       173
29.480       193
29.490       200
29.500       213
29.510       220
29.520       287
29.530       247
29.540       220
29.550       340
29.560       373
29.570       247
29.580       340
29.590       333
29.600       466
29.610       260
29.620       367
29.630       380
29.640       380
29.650       486
29.660       373
29.670       380
29.680       327
29.690       267
29.700       253
29.710       280
29.720       213
29.730       140
29.740       127
29.750       167
29.760        93
29.770       140
29.780       173
29.790        93
29.800       107
29.810        67
29.820        67
29.830        40
29.840        60
29.850        67
29.860        20
29.870        40
29.880        47
29.890        47
29.900        27
29.910        33
29.920        67
29.930        53
29.940        47
29.950        27
29.960        80
29.970        53
29.980        53
29.990        60
30.000        53
30.010        40
30.020        40
30.030        27
30.040        53
30.050        60
30.060        20
30.070        27
30.080        47
30.090        27
30.100        33
30.110        27
30.120        40
30.130        93
30.140        47
30.150        40
30.160        73
30.170        40
30.180        53
30.190        93
30.200        40
30.210        73
30.220        67
30.230       107
30.240        73
30.250        87
30.260        87
30.270        87
30.280       140
30.290        60
30.300       127
30.310       153
30.320       107
30.330       153
30.340       113
30.350       187
30.360       147
30.370       167
30.380       187
30.390       280
30.400       173
30.410       293
30.420       280
30.430       260
30.440       300
30.450       320
30.460       287
30.470       227
30.480       233
30.490       213
30.500       193
30.510       107
30.520       160
30.530       173
30.540       120
30.550        73
30.560       113
30.570        87
30.580        73
30.590       120
30.600        60
30.610        40
30.620        40
30.630        67
30.640        47
30.650        93
30.660        40
30.670        40
30.680        53
30.690        40
30.700        27
30.710        33
30.720        60
30.730        47
30.740        33
30.750        27
30.760        40
30.770        40
30.780        33
30.790        47
30.800        60
30.810        47
30.820        13
30.830        40
30.840        60
30.850        60
30.860        33
30.870        47
30.880        13
30.890        20
30.900        47
30.910        47
30.920        47
30.930        47
30.940        33
30.950        27
30.960        53
30.970        20
30.980        20
30.990        33
31.000        13
31.010        20
31.020        27
31.030        33
31.040        40
31.050         7
31.060        13
31.070        60
31.080        33
31.090        47
31.100        33
31.110        40
31.120        13
31.130        33
31.140        27
31.150         0
31.160        47
31.170        40
31.180        47
31.190        40
31.200        27
31.210        47
31.220        47
31.230        47
31.240        13
31.250        53
31.260        13
31.270        40
31.280        40
31.290        73
31.300        20
31.310        40
31.320        47
31.330        53
31.340        73
31.350        27
31.360        33
31.370        27
31.380        20
31.390        67
31.400        93
31.410        53
31.420        53
31.430        40
31.440        53
31.450        20
31.460        67
31.470        40
31.480        47
31.490        93
31.500        80
31.510       107
31.520        93
31.530        93
31.540        93
31.550       100
31.560        93
31.570       107
31.580       133
31.590       100
31.600        67
31.610       140
31.620       113
31.630       200
31.640       140
31.650       213
31.660       193
31.670       207
31.680       180
31.690       220
31.700       240
31.710       207
31.720       227
31.730       220
31.740       253
31.750       180
31.760       173
31.770       193
31.780       220
31.790       173
31.800        93
31.810       107
31.820       120
31.830       100
31.840        93
31.850       107
31.860        67
31.870        73
31.880        27
31.890       113
31.900        60
31.910        67
31.920        53
31.930        93
31.940        67
31.950        80
31.960        67
31.970        73
31.980       100
31.990        60
32.000        40
32.010        47
32.020        80
32.030        87
32.040        40
32.050       107
32.060       160
32.070       140
32.080       173
32.090       180
32.100       167
32.110       147
32.120       127
32.130       140
32.140       147
32.150       200
32.160       133
32.170       180
32.180       173
32.190       200
32.200        93
32.210       107
32.220       100
32.230       100
32.240       173
32.250       147
32.260        87
32.270       113
32.280        80
32.290        53
32.300        93
32.310        80
32.320        47
32.330        53
32.340        73
32.350        53
32.360        73
32.370        40
32.380        60
32.390        20
32.400        40
32.410        20
32.420        33
32.430        47
32.440        47
32.450        27
32.460        40
32.470        47
32.480        40
32.490        40
32.500        20
32.510        27
32.520        53
32.530        60
32.540        27
32.550        40
32.560        33
32.570         7
32.580        47
32.590        13
32.600        67
32.610       100
32.620        60
32.630        47
32.640        67
32.650        47
32.660        67
32.670        40
32.680       120
32.690        67
32.700       113
32.710        87
32.720        60
32.730       140
32.740       133
32.750       160
32.760       120
32.770        80
32.780        87
32.790       100
32.800       133
32.810        80
32.820        40
32.830        53
32.840        60
32.850        47
32.860        60
32.870        53
32.880        60
32.890        60
32.900        47
32.910        40
32.920        53
32.930        33
32.940        33
32.950        40
32.960        27
32.970        53
32.980        27
32.990        60
33.000        27
33.010         7
33.020        33
33.030        20
33.040        40
33.050        40
33.060         7
33.070        13
33.080        27
33.090        13
33.100        13
33.110        53
33.120        40
33.130        13
33.140        20
33.150        20
33.160        33
33.170         7
33.180        73
33.190        40
33.200        40
33.210        27
33.220        13
33.230        33
33.240        40
33.250        27
33.260         7
33.270        13
33.280        33
33.290        40
33.300        33
33.310        40
33.320        40
33.330        20
33.340        33
33.350        20
33.360        27
33.370        33
33.380        20
33.390        20
33.400        27
33.410        20
33.420        13
33.430        20
33.440        47
33.450        20
33.460        40
33.470        33
33.480        20
33.490        33
33.500        20
33.510        20
33.520        27
33.530        13
33.540        33
33.550        33
33.560        33
33.570        13
33.580        27
33.590        33
33.600        27
33.610        27
33.620        27
33.630        13
33.640        27
33.650        40
33.660        20
33.670        67
33.680        27
33.690        20
33.700        33
33.710        33
33.720        20
33.730         7
33.740        33
33.750        27
33.760        33
33.770        33
33.780        33
33.790        13
33.800        27
33.810        20
33.820        20
33.830        47
33.840        33
33.850        27
33.860        60
33.870         7
33.880         7
33.890        33
33.900         0
33.910        33
33.920        27
33.930        47
33.940        40
33.950        20
33.960        20
33.970        13
33.980        20
33.990        27
34.000        40
34.010        13
34.020        20
34.030        53
34.040        47
34.050        27
34.060         7
34.070        27
34.080        27
34.090        20
34.100        33
34.110        20
34.120        33
34.130        20
34.140        40
34.150        13
34.160        20
34.170         0
34.180        13
34.190         7
34.200        27
34.210        13
34.220        53
34.230        20
34.240         7
34.250        13
34.260        33
34.270        20
34.280         7
34.290        20
34.300        13
34.310        40
34.320        20
34.330        20
34.340        13
34.350        13
34.360        67
34.370         7
34.380        27
34.390        53
34.400        13
34.410        13
34.420         7
34.430        27
34.440        27
34.450        27
34.460        33
34.470        20
34.480        33
34.490        47
34.500        33
34.510        27
34.520        47
34.530        40
34.540        33
34.550        40
34.560        33
34.570        27
34.580        33
34.590        13
34.600        13
34.610         7
34.620        40
34.630        27
34.640        20
34.650        27
34.660        60
34.670        33
34.680        33
34.690        13
34.700        40
34.710        27
34.720         7
34.730        20
34.740        53
34.750        27
34.760        27
34.770        13
34.780        20
34.790        27
34.800        33
34.810        40
34.820        40
34.830        40
34.840        27
34.850        27
34.860        40
34.870        20
34.880        20
34.890         7
34.900        20
34.910         7
34.920        47
34.930        20
34.940        13
34.950        33
34.960        47
34.970        33
34.980         7
34.990         0
35.000        33
35.010        20
35.020        13
35.030        20
35.040        20
35.050        13
35.060        27
35.070        27
35.080        27
35.090         7
35.100        13
35.110        20
35.120         7
35.130        20
35.140         7
35.150        47
35.160        27
35.170        33
35.180        13
35.190        47
35.200        13
35.210        13
35.220        33
35.230        33
35.240        40
35.250        33
35.260        27
35.270        20
35.280        40
35.290        13
35.300        40
35.310        20
35.320        53
35.330        27
35.340        13
35.350        13
35.360        20
35.370        13
35.380        33
35.390        13
35.400        20
35.410         7
35.420        20
35.430        33
35.440        13
35.450        47
35.460        27
35.470        13
35.480        27
35.490        33
35.500         7
35.510        13
35.520        13
35.530        27
35.540        13
35.550        13
35.560        13
35.570        13
35.580        20
35.590        13
35.600        40
35.610         7
35.620         7
35.630        20
35.640        13
35.650        13
35.660        20
35.670        20
35.680        13
35.690        27
35.700         7
35.710        20
35.720        27
35.730        53
35.740        20
35.750        33
35.760        27
35.770        27
35.780        33
35.790        27
35.800        33
35.810        40
35.820        20
35.830        20
35.840        40
35.850        20
35.860        47
35.870        47
35.880        13
35.890        20
35.900        27
35.910        27
35.920        13
35.930        53
35.940        27
35.950        20
35.960        20
35.970        13
35.980        27
35.990        27
36.000        33
36.010        20
36.020        13
36.030        13
36.040        20
36.050         7
36.060        27
36.070        20
36.080        20
36.090        13
36.100        27
36.110        33
36.120        13
36.130         7
36.140        27
36.150        33
36.160        33
36.170         7
36.180         0
36.190        20
36.200        20
36.210        27
36.220        40
36.230        13
36.240        13
36.250         7
36.260        13
36.270        53
36.280        13
36.290       207
36.300         7
36.310        27
36.320        67
36.330        47
36.340        27
36.350        27
36.360        33
36.370        47
36.380         0
36.390         7
36.400        20
36.410        27
36.420        40
36.430        47
36.440        40
36.450        60
36.460        67
36.470        73
36.480        73
36.490        67
36.500        93
36.510       107
36.520        67
36.530        87
36.540       107
36.550        47
36.560        67
36.570        73
36.580        60
36.590        40
36.600        60
36.610        53
36.620        67
36.630        47
36.640        47
36.650        60
36.660        40
36.670        40
36.680        20
36.690        13
36.700        13
36.710        20
36.720        20
36.730        33
36.740        20
36.750        13
36.760        27
36.770        40
36.780        13
36.790        20
36.800        27
36.810        33
36.820        20
36.830        20
36.840        20
36.850        53
36.860        13
36.870        20
36.880        20
36.890        27
36.900        27
36.910        20
36.920        13
36.930        27
36.940        47
36.950        40
36.960        13
36.970        33
36.980         7
36.990        27
37.000        40
37.010        33
37.020        13
37.030        20
37.040         0
37.050        20
37.060        40
37.070         7
37.080        27
37.090        13
37.100         7
37.110         7
37.120        27
37.130        13
37.140        20
37.150        27
37.160        27
37.170        33
37.180        27
37.190        27
37.200        27
37.210        27
37.220         7
37.230        33
37.240        13
37.250        20
37.260         0
37.270        27
37.280         7
37.290        40
37.300        13
37.310        40
37.320        27
37.330        20
37.340        13
37.350        60
37.360        33
37.370        33
37.380        40
37.390        20
37.400        13
37.410        20
37.420        13
37.430        40
37.440        13
37.450        20
37.460        20
37.470         7
37.480        20
37.490        47
37.500        13
37.510        13
37.520        33
37.530         0
37.540        33
37.550        20
37.560        27
37.570        47
37.580        27
37.590        27
37.600        47
37.610         7
37.620        27
37.630        13
37.640        13
37.650        27
37.660         7
37.670        47
37.680         0
37.690        13
37.700        67
37.710        13
37.720        20
37.730        27
37.740        13
37.750        33
37.760        13
37.770        20
37.780        13
37.790        20
37.800        20
37.810        20
37.820        40
37.830        53
37.840        20
37.850         0
37.860        20
37.870        40
37.880        13
37.890         7
37.900        33
37.910         7
37.920        20
37.930        33
37.940        47
37.950        53
37.960        33
37.970        20
37.980        20
37.990        20
38.000        20
38.010        20
38.020        13
38.030         0
38.040        20
38.050        27
38.060        47
38.070        20
38.080        13
38.090        33
38.100        33
38.110        33
38.120        27
38.130        33
38.140        47
38.150        13
38.160        13
38.170        27
38.180        27
38.190        33
38.200        27
38.210        40
38.220        20
38.230        13
38.240        33
38.250        40
38.260         7
38.270        13
38.280        40
38.290         0
38.300        53
38.310        13
38.320        40
38.330        13
38.340        33
38.350        40
38.360        13
38.370        13
38.380        20
38.390        20
38.400        20
38.410        20
38.420        27
38.430        20
38.440        53
38.450        27
38.460        20
38.470        53
38.480        40
38.490         7
38.500        33
38.510        33
38.520        20
38.530        20
38.540        40
38.550        40
38.560        13
38.570        13
38.580        40
38.590        13
38.600        20
38.610        27
38.620         7
38.630        20
38.640        33
38.650        27
38.660        13
38.670        20
38.680        47
38.690         7
38.700        13
38.710        13
38.720         7
38.730        60
38.740        33
38.750        33
38.760        33
38.770        20
38.780        13
38.790        13
38.800         7
38.810        13
38.820        27
38.830         7
38.840        27
38.850        47
38.860        40
38.870        20
38.880        27
38.890        40
38.900        13
38.910        53
38.920        53
38.930        47
38.940        13
38.950        47
38.960        33
38.970        27
38.980        33
38.990        47
39.000        40
39.010        20
39.020        67
39.030        33
39.040        27
39.050        47
39.060        33
39.070        20
39.080        13
39.090        33
39.100        27
39.110        27
39.120        20
39.130        27
39.140        27
39.150        33
39.160        20
39.170        27
39.180        27
39.190        27
39.200        20
39.210        20
39.220        13
39.230        27
39.240        13
39.250        20
39.260        20
39.270        13
39.280        53
39.290         7
39.300        20
39.310        20
39.320         7
39.330        20
39.340         7
39.350         7
39.360        20
39.370         7
39.380        13
39.390        40
39.400         7
39.410        20
39.420         0
39.430         7
39.440        20
39.450        27
39.460        27
39.470         7
39.480        27
39.490        20
39.500        27
39.510         7
39.520        20
39.530        40
39.540         0
39.550        20
39.560        27
39.570        20
39.580        20
39.590         0
39.600         7
39.610        13
39.620         7
39.630        33
39.640        27
39.650         7
39.660        13
39.670        20
39.680        27
39.690        20
39.700        33
39.710        20
39.720        47
39.730        27
39.740         0
39.750        40
39.760        13
39.770        20
39.780         0
39.790        33
39.800         7
39.810        13
39.820        33
39.830         0
39.840         7
39.850         7
39.860        13
39.870        13
39.880        27
39.890         7
39.900        33
39.910        47
39.920        13
39.930        47
39.940        13
39.950        33
39.960        13
39.970        27
39.980        20
39.990        20
40.000         0
40.010        27
40.020        27
40.030         7
40.040        13
40.050        13
40.060        33
40.070        20
40.080         7
40.090        53
40.100        33
40.110         7
40.120        27
40.130        33
40.140        33
40.150        47
40.160        40
40.170        47
40.180        27
40.190        60
40.200        53
40.210        33
40.220        60
40.230        33
40.240        40
40.250        20
40.260        33
40.270        47
40.280        47
40.290        47
40.300        40
40.310        93
40.320         7
40.330        20
40.340        47
40.350        60
40.360        13
40.370        53
40.380        40
40.390        33
40.400        87
40.410        33
40.420        53
40.430        40
40.440        40
40.450        53
40.460        40
40.470        40
40.480        40
40.490        33
40.500        53
40.510        33
40.520        13
40.530        33
40.540        13
40.550        27
40.560        27
40.570        40
40.580        53
40.590        27
40.600        40
40.610        27
40.620        20
40.630        27
40.640        20
40.650        20
40.660        60
40.670         7
40.680        20
40.690         7
40.700        20
40.710         7
40.720        27
40.730        27
40.740        33
40.750        13
40.760        33
40.770        20
40.780        27
40.790        27
40.800        33
40.810         7
40.820        33
40.830         7
40.840        20
40.850        20
40.860        33
40.870         7
40.880        20
40.890        27
40.900        20
40.910        20
40.920         7
40.930        33
40.940        40
40.950         7
40.960        33
40.970        13
40.980        33
40.990        27
41.000        33
41.010        13
41.020        13
41.030        27
41.040        20
41.050        40
41.060        27
41.070        40
41.080        27
41.090        33
41.100        33
41.110        27
41.120        27
41.130        40
41.140        33
41.150        20
41.160        40
41.170        20
41.180         7
41.190        20
41.200         7
41.210        27
41.220        13
41.230        20
41.240         7
41.250         7
41.260        20
41.270        13
41.280        27
41.290        13
41.300         7
41.310         7
41.320        20
41.330         7
41.340        27
41.350        33
41.360        33
41.370        20
41.380        33
41.390        40
41.400        33
41.410        27
41.420        27
41.430        53
41.440        13
41.450        13
41.460        13
41.470        53
41.480        47
41.490        20
41.500        40
41.510        13
41.520        13
41.530        13
41.540         7
41.550        13
41.560        40
41.570        20
41.580        33
41.590        20
41.600        20
41.610         7
41.620         7
41.630        13
41.640         7
41.650        20
41.660        40
41.670        13
41.680        27
41.690        20
41.700        40
41.710        13
41.720        20
41.730        27
41.740         7
41.750        13
41.760        27
41.770         7
41.780         7
41.790         7
41.800        47
41.810        33
41.820        40
41.830         7
41.840        20
41.850        13
41.860        33
41.870        13
41.880         7
41.890        27
41.900         7
41.910         0
41.920        20
41.930        20
41.940         7
41.950        13
41.960        20
41.970        13
41.980        47
41.990        13
42.000        20
42.010        33
42.020        33
42.030        33
42.040        20
42.050        13
42.060        47
42.070        27
42.080        40
42.090        13
42.100        33
42.110        33
42.120        20
42.130        27
42.140        53
42.150        33
42.160        53
42.170        73
42.180        67
42.190        33
42.200        60
42.210        40
42.220       133
42.230       113
42.240        60
42.250        40
42.260        80
42.270        93
42.280       100
42.290       100
42.300       127
42.310        73
42.320        93
42.330        67
42.340        93
42.350        67
42.360        80
42.370        53
42.380        67
42.390        40
42.400        47
42.410        40
42.420        53
42.430        40
42.440        47
42.450        27
42.460        67
42.470        60
42.480        47
42.490        53
42.500        53
42.510        20
42.520        33
42.530        13
42.540         7
42.550        40
42.560        20
42.570        20
42.580        27
42.590        53
42.600        27
42.610        40
42.620        47
42.630        53
42.640        40
42.650        20
42.660        13
42.670         7
42.680         7
42.690        33
42.700         0
42.710        20
42.720        40
42.730        13
42.740        53
42.750        20
42.760        33
42.770        53
42.780        33
42.790        20
42.800        27
42.810        40
42.820        13
42.830        27
42.840        67
42.850        27
42.860        40
42.870        27
42.880        33
42.890        13
42.900        27
42.910         7
42.920        60
42.930        20
42.940        20
42.950        13
42.960        47
42.970        33
42.980        40
42.990        33
43.000        27
43.010        20
43.020        33
43.030        13
43.040        27
43.050        20
43.060        27
43.070        33
43.080        27
43.090         7
43.100        27
43.110        33
43.120        13
43.130        20
43.140        47
43.150        20
43.160        13
43.170        33
43.180        33
43.190         7
43.200        13
43.210        13
43.220        40
43.230        20
43.240        13
43.250        27
43.260         7
43.270        33
43.280        13
43.290        20
43.300        27
43.310        60
43.320        13
43.330        33
43.340        13
43.350        20
43.360        27
43.370         7
43.380         7
43.390        13
43.400        33
43.410        20
43.420         0
43.430        27
43.440        13
43.450        27
43.460        27
43.470         7
43.480        20
43.490        20
43.500        20
43.510        20
43.520        20
43.530         7
43.540        13
43.550        20
43.560        27
43.570        27
43.580        20
43.590        13
43.600        33
43.610        20
43.620        33
43.630        27
43.640        27
43.650        40
43.660        47
43.670        40
43.680        40
43.690        13
43.700         0
43.710        33
43.720        13
43.730        13
43.740        27
43.750        53
43.760        33
43.770        27
43.780         7
43.790        60
43.800        33
43.810        20
43.820        13
43.830        20
43.840        20
43.850        27
43.860        33
43.870         7
43.880        40
43.890        20
43.900        27
43.910        27
43.920        13
43.930        13
43.940        13
43.950         0
43.960        33
43.970        20
43.980        20
43.990        13
44.000         0
44.010        27
44.020        33
44.030        13
44.040        13
44.050        47
44.060        20
44.070        20
44.080        27
44.090        27
44.100        20
44.110        33
44.120         0
44.130        20
44.140         7
44.150        20
44.160        20
44.170        27
44.180        27
44.190        33
44.200        13
44.210        20
44.220        53
44.230        20
44.240        27
44.250        40
44.260        53
44.270         7
44.280        47
44.290        53
44.300        53
44.310        33
44.320        53
44.330        60
44.340        53
44.350        67
44.360        53
44.370        60
44.380        40
44.390        80
44.400        67
44.410        67
44.420        33
44.430        53
44.440        27
44.450        53
44.460        73
44.470        53
44.480        60
44.490        40
44.500        33
44.510        40
44.520        53
44.530        27
44.540        87
44.550        13
44.560        27
44.570        20
44.580        27
44.590         7
44.600        27
44.610         7
44.620        40
44.630        33
44.640        20
44.650        33
44.660         7
44.670        27
44.680        60
44.690        13
44.700        27
44.710        33
44.720         0
44.730        20
44.740         0
44.750         7
44.760        40
44.770        20
44.780         7
44.790        13
44.800        27
44.810        13
44.820        13
44.830         7
44.840        33
44.850         7
44.860         7
44.870        13
44.880        47
44.890        13
44.900         7
44.910        33
44.920        27
44.930        27
44.940         7
44.950        20
44.960        27
44.970        20
44.980        13
44.990        33
45.000         7
45.010        13
45.020        27
45.030        20
45.040        20
45.050        13
45.060        27
45.070        27
45.080        13
45.090        20
45.100        27
45.110        20
45.120        20
45.130        13
45.140        33
45.150        20
45.160         7
45.170         0
45.180         0
45.190         7
45.200        13
45.210        13
45.220        27
45.230        13
45.240        13
45.250         7
45.260        13
45.270        20
45.280        33
45.290        27
45.300        13
45.310        13
45.320        20
45.330        33
45.340        20
45.350        33
45.360        13
45.370         7
45.380        13
45.390        33
45.400        20
45.410        13
45.420         0
45.430        27
45.440        13
45.450        13
45.460        13
45.470        33
45.480        13
45.490         7
45.500        20
45.510         7
45.520        13
45.530         7
45.540        13
45.550        13
45.560         7
45.570        27
45.580        33
45.590        20
45.600        27
45.610        13
45.620        20
45.630        33
45.640        33
45.650        33
45.660        13
45.670        20
45.680        27
45.690        13
45.700        27
45.710        33
45.720        40
45.730        13
45.740        27
45.750        20
45.760        27
45.770        33
45.780        20
45.790        33
45.800        20
45.810        20
45.820        53
45.830        33
45.840        47
45.850        47
45.860        87
45.870        20
45.880        33
45.890        20
45.900        33
45.910        80
45.920        60
45.930        67
45.940        53
45.950        80
45.960        73
45.970        67
45.980        93
45.990        87
46.000        33
46.010        47
46.020        73
46.030        60
46.040        40
46.050       147
46.060       167
46.070        93
46.080       153
46.090       100
46.100        93
46.110       113
46.120       113
46.130       107
46.140       113
46.150        73
46.160       127
46.170        87
46.180       127
46.190       147
46.200        87
46.210        47
46.220       127
46.230        73
46.240       133
46.250        73
46.260       120
46.270        93
46.280        40
46.290        93
46.300        80
46.310        80
46.320        87
46.330        67
46.340        67
46.350        33
46.360        33
46.370        33
46.380        27
46.390        40
46.400        33
46.410        47
46.420        33
46.430        27
46.440        40
46.450         0
46.460        40
46.470        40
46.480        20
46.490        33
46.500        13
46.510        20
46.520        27
46.530        60
46.540         7
46.550        27
46.560        53
46.570        13
46.580        33
46.590        13
46.600        27
46.610        40
46.620        40
46.630        47
46.640        40
46.650        40
46.660         7
46.670        33
46.680        47
46.690        27
46.700        20
46.710        33
46.720        33
46.730        33
46.740        47
46.750         7
46.760        20
46.770         7
46.780        47
46.790         0
46.800        47
46.810        33
46.820        47
46.830        33
46.840        40
46.850        20
46.860        33
46.870        20
46.880        33
46.890        27
46.900        20
46.910        13
46.920        27
46.930        20
46.940        13
46.950        20
46.960        40
46.970        13
46.980        33
46.990         7
47.000        13
47.010        20
47.020        13
47.030        33
47.040         7
47.050        33
47.060         7
47.070        13
47.080         7
47.090        27
47.100        20
47.110         7
47.120        33
47.130        27
47.140        27
47.150        47
47.160        13
47.170        27
47.180        27
47.190        27
47.200        13
47.210        33
47.220        13
47.230        27
47.240        20
47.250        13
47.260        33
47.270         0
47.280         0
47.290         7
47.300        33
47.310        13
47.320        20
47.330        27
47.340        27
47.350         7
47.360        27
47.370        20
47.380         7
47.390        47
47.400        27
47.410        13
47.420        33
47.430        13
47.440        13
47.450        47
47.460        33
47.470        27
47.480        20
47.490        13
47.500        13
47.510        27
47.520        13
47.530         7
47.540        27
47.550        27
47.560         7
47.570         7
47.580        13
47.590         7
47.600        27
47.610        20
47.620        13
47.630        13
47.640        40
47.650        47
47.660        20
47.670        27
47.680         0
47.690        27
47.700        13
47.710        33
47.720        13
47.730        20
47.740         7
47.750        13
47.760        20
47.770         7
47.780        20
47.790        13
47.800        13
47.810        40
47.820        47
47.830        27
47.840        20
47.850        27
47.860        27
47.870         7
47.880         0
47.890         7
47.900        20
47.910        13
47.920        27
47.930        13
47.940        13
47.950        20
47.960        33
47.970         7
47.980        27
47.990        13
48.000         7
48.010         7
48.020        27
48.030        27
48.040        20
48.050        27
48.060        40
48.070        27
48.080        20
48.090         7
48.100        20
48.110        20
48.120        33
48.130        27
48.140         7
48.150        13
48.160        40
48.170        33
48.180        40
48.190        20
48.200        33
48.210        20
48.220        20
48.230        47
48.240         7
48.250        40
48.260        13
48.270        27
48.280        13
48.290        20
48.300         0
48.310        20
48.320         7
48.330        47
48.340        13
48.350        33
48.360        27
48.370        20
48.380        13
48.390        27
48.400        13
48.410         7
48.420         7
48.430        33
48.440        27
48.450        20
48.460        13
48.470         7
48.480         7
48.490        13
48.500        13
48.510        20
48.520         7
48.530        27
48.540        20
48.550        13
48.560        13
48.570        20
48.580        27
48.590        13
48.600        27
48.610        20
48.620        13
48.630        33
48.640        13
48.650        27
48.660        20
48.670        33
48.680        20
48.690        33
48.700        13
48.710        13
48.720        27
48.730        47
48.740        40
48.750        13
48.760        27
48.770        20
48.780        27
48.790        20
48.800        33
48.810        27
48.820        20
48.830        53
48.840        60
48.850        40
48.860        40
48.870        40
48.880        27
48.890        20
48.900        53
48.910        93
48.920        27
48.930        47
48.940        40
48.950       153
48.960        67
48.970        93
48.980        87
48.990        73
49.000       107
49.010       100
49.020        80
49.030       100
49.040       120
49.050       120
49.060       147
49.070        67
49.080        80
49.090        67
49.100        67
49.110        80
49.120       113
49.130        87
49.140        67
49.150        87
49.160        60
49.170       100
49.180        47
49.190        60
49.200        60
49.210        40
49.220        47
49.230        33
49.240        53
49.250        20
49.260        27
49.270        27
49.280        13
49.290        27
49.300        20
49.310        47
49.320        47
49.330        13
49.340         7
49.350        53
49.360        20
49.370        20
49.380        33
49.390        40
49.400        27
49.410         7
49.420        40
49.430         7
49.440        20
49.450        13
49.460        33
49.470        20
49.480        13
49.490        33
49.500        27
49.510        13
49.520        53
49.530        33
49.540        27
49.550        33
49.560        27
49.570        47
49.580         7
49.590        40
49.600         7
49.610        20
49.620         7
49.630        27
49.640        13
49.650        13
49.660        33
49.670         0
49.680        20
49.690        27
49.700        20
49.710        20
49.720        20
49.730        27
49.740        40
49.750        40
49.760        13
49.770        33
49.780         0
49.790        33
49.800        27
49.810        20
49.820        20
49.830        27
49.840        13
49.850        20
49.860        27
49.870        27
49.880        67
49.890        33
49.900        47
49.910        27
49.920        47
49.930        80
49.940        53
49.950        27
49.960        53
49.970        33
49.980        47
49.990        20
50.000        80
50.010        73
50.020        87
50.030        53
50.040        73
50.050        27
50.060        47
50.070        53
50.080        27
50.090        40
50.100        73
50.110        60
50.120        67
50.130        53
50.140        27
50.150        47
50.160        60
50.170        33
50.180        27
50.190        20
50.200        27
50.210        27
50.220        53
50.230        33
50.240        40
50.250         7
50.260        47
50.270        27
50.280        40
50.290        40
50.300        13
50.310        20
50.320        20
50.330        27
50.340        20
50.350        40
50.360        27
50.370        40
50.380         7
50.390        27
50.400        40
50.410        27
50.420        40
50.430        33
50.440        33
50.450        33
50.460        33
50.470        47
50.480        20
50.490        13
50.500        27
50.510        33
50.520        20
50.530        13
50.540        13
50.550        20
50.560        20
50.570        13
50.580        27
50.590        20
50.600        20
50.610        13
50.620        20
50.630        33
50.640        27
50.650        27
50.660        13
50.670        27
50.680        13
50.690        27
50.700        20
50.710        33
50.720        47
50.730        53
50.740        33
50.750         7
50.760        27
50.770        27
50.780         0
50.790        13
50.800        33
50.810        13
50.820        33
50.830        20
50.840        33
50.850        27
50.860        20
50.870        20
50.880        33
50.890        27
50.900        27
50.910         0
50.920        27
50.930        20
50.940        33
50.950         7
50.960        20
50.970         7
50.980         7
50.990        27
51.000        20
51.010        27
51.020        27
51.030        13
51.040        53
51.050        20
51.060        73
51.070        33
51.080        47
51.090        13
51.100        47
51.110        20
51.120        33
51.130        20
51.140        40
51.150        73
51.160        27
51.170        33
51.180        47
51.190        33
51.200        53
51.210        40
51.220        40
51.230        13
51.240        67
51.250        33
51.260        53
51.270        40
51.280        40
51.290        40
51.300        33
51.310        80
51.320        47
51.330        60
51.340        40
51.350        27
51.360        40
51.370        47
51.380        33
51.390        27
51.400        20
51.410        40
51.420         7
51.430        47
51.440        33
51.450        33
51.460        27
51.470        40
51.480        33
51.490        53
51.500         7
51.510        53
51.520        13
51.530        60
51.540        40
51.550        73
51.560        33
51.570        67
51.580        53
51.590        47
51.600        53
51.610        33
51.620        60
51.630        53
51.640        53
51.650        40
51.660        53
51.670        80
51.680        53
51.690        60
51.700        60
51.710        67
51.720        67
51.730        93
51.740       100
51.750        93
51.760       100
51.770        87
51.780        73
51.790        67
51.800       107
51.810       193
51.820       107
51.830       107
51.840       147
51.850        93
51.860       160
51.870       133
51.880       127
51.890       133
51.900       120
51.910       200
51.920       193
51.930       160
51.940       107
51.950       113
51.960       127
51.970       153
51.980        93
51.990       140
52.000       127
52.010       153
52.020       113
52.030        80
52.040       100
52.050        67
52.060       167
52.070        93
52.080       147
52.090        80
52.100        73
52.110        93
52.120        73
52.130        80
52.140        67
52.150        60
52.160        47
52.170       107
52.180        87
52.190        80
52.200        73
52.210        87
52.220       100
52.230        87
52.240       100
52.250        53
52.260       100
52.270        93
52.280        67
52.290        93
52.300        80
52.310       107
52.320        73
52.330       100
52.340       120
52.350        73
52.360       113
52.370       107
52.380        93
52.390       107
52.400        73
52.410       120
52.420        93
52.430        53
52.440       153
52.450        80
52.460        87
52.470       113
52.480        73
52.490        73
52.500       140
52.510        87
52.520       100
52.530       127
52.540       153
52.550       180
52.560       160
52.570       113
52.580       180
52.590       180
52.600       220
52.610       187
52.620       240
52.630       247
52.640       207
52.650       153
52.660       160
52.670       127
52.680       100
52.690       133
52.700       120
52.710       160
52.720       180
52.730       153
52.740       113
52.750       133
52.760       140
52.770       113
52.780        60
52.790        47
52.800        80
52.810        47
52.820       100
52.830        73
52.840        20
52.850        93
52.860        53
52.870        80
52.880       113
52.890        40
52.900        53
52.910        67
52.920        73
52.930        33
52.940        40
52.950        40
52.960        53
52.970        13
52.980        47
52.990        53
53.000        47
53.010        60
53.020        27
53.030        53
53.040        27
53.050        60
53.060        53
53.070        20
53.080        40
53.090        27
53.100        47
53.110        20
53.120        27
53.130        40
53.140         7
53.150        27
53.160        27
53.170        33
53.180        40
53.190        13
53.200        40
53.210        33
53.220        40
53.230         7
53.240         7
53.250        20
53.260        33
53.270        27
53.280        47
53.290        60
53.300        27
53.310        20
53.320        40
53.330        27
53.340        20
53.350        53
53.360        40
53.370        67
53.380        27
53.390        40
53.400        40
53.410        33
53.420        33
53.430        20
53.440        53
53.450        27
53.460        27
53.470        13
53.480        20
53.490        40
53.500        27
53.510        93
53.520        33
53.530        13
53.540        20
53.550        40
53.560        47
53.570        13
53.580         7
53.590        47
53.600        40
53.610        40
53.620        20
53.630        33
53.640         7
53.650        20
53.660        33
53.670        20
53.680        33
53.690        40
53.700         7
53.710        20
53.720        40
53.730        20
53.740        40
53.750        20
53.760        13
53.770        27
53.780        27
53.790        27
53.800        13
53.810        20
53.820        40
53.830        53
53.840        13
53.850        40
53.860        27
53.870        33
53.880         7
53.890        33
53.900        20
53.910         0
53.920        20
53.930        53
53.940         7
53.950        40
53.960        40
53.970        20
53.980         7
53.990        33
54.000        13
54.010        40
54.020        20
54.030        27
54.040         0
54.050        20
54.060        33
54.070        27
54.080         7
54.090        13
54.100        27
54.110        53
54.120        20
54.130        13
54.140        20
54.150        13
54.160        27
54.170        20
54.180        27
54.190        47
54.200        20
54.210        20
54.220        13
54.230        47
54.240        20
54.250        33
54.260        20
54.270        27
54.280        47
54.290        40
54.300        13
54.310        33
54.320        33
54.330        20
54.340        40
54.350        47
54.360        27
54.370        27
54.380        27
54.390        53
54.400        13
54.410        20
54.420        27
54.430         7
54.440        40
54.450        27
54.460        33
54.470        33
54.480        40
54.490        47
54.500        47
54.510        20
54.520        53
54.530        40
54.540        27
54.550        33
54.560        33
54.570        27
54.580        40
54.590        20
54.600        33
54.610        33
54.620        33
54.630        47
54.640        60
54.650        47
54.660        67
54.670        40
54.680        53
54.690        33
54.700        47
54.710        47
54.720        13
54.730        60
54.740        40
54.750        60
54.760        27
54.770        20
54.780        40
54.790        60
54.800        47
54.810        53
54.820        73
54.830        73
54.840        47
54.850        73
54.860        60
54.870        73
54.880       100
54.890       107
54.900        20
54.910        60
54.920        80
54.930        87
54.940        67
54.950        73
54.960       107
54.970        60
54.980        60
54.990        73
55.000        73
55.010        53
55.020        80
55.030        40
55.040        33
55.050        87
55.060        47
55.070        73
55.080        27
55.090        53
55.100        67
55.110        60
55.120        53
55.130        47
55.140        47
55.150        27
55.160         7
55.170        40
55.180        13
55.190        53
55.200        33
55.210        13
55.220        27
55.230        13
55.240        20
55.250        27
55.260        27
55.270        13
55.280         7
55.290        13
55.300        20
55.310        13
55.320        13
55.330        27
55.340        33
55.350         7
55.360        20
55.370         7
55.380         7
55.390        40
55.400        27
55.410        13
55.420        40
55.430        20
55.440        60
55.450        20
55.460        40
55.470         7
55.480        40
55.490         7
55.500         7
55.510        13
55.520        13
55.530         7
55.540        13
55.550        40
55.560        13
55.570        20
55.580        33
55.590        40
55.600         0
55.610        53
55.620        40
55.630         7
55.640        20
55.650         7
55.660        40
55.670        20
55.680        20
55.690        47
55.700         7
55.710        33
55.720        33
55.730        13
55.740        13
55.750        67
55.760        47
55.770        33
55.780        27
55.790        20
55.800        40
55.810        40
55.820        13
55.830        13
55.840        33
55.850        13
55.860        13
55.870        27
55.880        53
55.890        40
55.900        27
55.910        40
55.920        20
55.930        20
55.940        27
55.950        33
55.960        53
55.970         0
55.980        40
55.990        33
56.000        27
56.010        20
56.020        27
56.030        40
56.040        20
56.050        27
56.060        40
56.070        27
56.080        40
56.090        33
56.100        13
56.110        20
56.120        47
56.130        13
56.140        13
56.150        27
56.160        20
56.170        27
56.180        13
56.190        13
56.200        20
56.210        20
56.220        13
56.230        20
56.240         0
56.250        20
56.260        27
56.270        27
56.280        20
56.290        47
56.300        40
56.310        33
56.320        13
56.330        27
56.340        27
56.350        20
56.360        53
56.370        27
56.380        20
56.390         7
56.400        27
56.410        13
56.420        33
56.430        13
56.440         7
56.450        20
56.460        40
56.470        20
56.480        33
56.490        20
56.500         0
56.510        20
56.520        13
56.530        13
56.540        33
56.550        13
56.560        13
56.570         7
56.580        20
56.590        20
56.600        40
56.610        27
56.620        13
56.630        13
56.640        13
56.650        60
56.660        13
56.670        27
56.680        20
56.690        20
56.700        27
56.710        20
56.720         0
56.730        13
56.740         0
56.750        20
56.760        20
56.770         7
56.780         7
56.790         7
56.800        20
56.810        13
56.820        27
56.830         7
56.840         0
56.850         7
56.860         7
56.870        33
56.880        20
56.890        13
56.900        13
56.910        27
56.920        13
56.930        13
56.940        33
56.950        20
56.960         0
56.970        27
56.980        13
56.990        13
57.000        13
57.010        13
57.020        20
57.030        13
57.040        20
57.050         7
57.060        13
57.070        20
57.080         0
57.090        13
57.100         7
57.110         7
57.120        40
57.130         7
57.140        20
57.150        20
57.160        27
57.170         7
57.180        20
57.190        27
57.200        47
57.210         7
57.220         7
57.230         7
57.240         0
57.250        20
57.260        13
57.270         7
57.280        20
57.290        13
57.300        20
57.310        47
57.320        47
57.330        33
57.340        40
57.350         7
57.360         7
57.370        27
57.380         7
57.390        27
57.400        13
57.410        20
57.420        40
57.430        20
57.440        20
57.450        27
57.460        40
57.470        33
57.480        20
57.490        33
57.500        33
57.510        13
57.520        27
57.530        13
57.540         7
57.550        27
57.560        27
57.570        60
57.580        53
57.590        47
57.600        13
57.610         0
57.620        20
57.630        27
57.640        20
57.650        33
57.660        20
57.670        27
57.680        47
57.690        47
57.700        20
57.710        40
57.720         0
57.730        27
57.740        13
57.750         7
57.760        33
57.770         7
57.780        13
57.790        33
57.800        27
57.810        27
57.820        20
57.830        47
57.840        27
57.850        53
57.860        27
57.870        13
57.880        20
57.890        40
57.900        20
57.910        27
57.920        13
57.930        20
57.940        47
57.950        13
57.960         0
57.970        20
57.980        20
57.990        40
58.000        13
58.010        33
58.020         0
58.030         7
58.040        13
58.050         0
58.060        27
58.070         7
58.080        33
58.090        20
58.100        13
58.110        40
58.120        40
58.130        20
58.140        13
58.150        20
58.160        20
58.170        13
58.180        33
58.190         0
58.200         7
58.210        33
58.220         7
58.230         0
58.240         7
58.250        13
58.260        13
58.270         7
58.280        40
58.290        20
58.300        27
58.310        13
58.320         0
58.330         0
58.340        20
58.350         7
58.360        13
58.370        20
58.380        20
58.390         7
58.400        13
58.410        47
58.420        13
58.430        27
58.440        40
58.450        20
58.460        13
58.470        20
58.480        20
58.490        33
58.500        33
58.510        13
58.520        13
58.530        27
58.540        13
58.550        33
58.560        27
58.570        27
58.580        13
58.590         0
58.600         7
58.610        27
58.620        27
58.630        20
58.640         7
58.650        13
58.660        13
58.670        13
58.680        27
58.690         7
58.700        40
58.710         7
58.720        20
58.730        13
58.740        20
58.750         7
58.760        20
58.770        13
58.780        27
58.790        13
58.800         7
58.810        40
58.820        47
58.830        13
58.840         7
58.850        27
58.860        33
58.870        20
58.880        13
58.890         0
58.900        20
58.910        13
58.920        27
58.930         7
58.940         0
58.950         7
58.960         7
58.970        13
58.980        20
58.990         7
59.000        20
59.010        20
59.020         7
59.030        13
59.040        13
59.050         7
59.060         7
59.070         7
59.080        20
59.090        27
59.100         0
59.110        13
59.120        13
59.130        13
59.140        20
59.150        13
59.160        13
59.170        13
59.180        20
59.190        20
59.200        27
59.210         0
59.220        20
59.230        13
59.240        20
59.250        13
59.260        20
59.270        20
59.280        13
59.290        13
59.300        40
59.310        20
59.320        13
59.330        33
59.340        13
59.350        40
59.360         0
59.370         7
59.380        27
59.390        33
59.400        40
59.410        20
59.420        47
59.430        20
59.440        67
59.450        40
59.460        47
59.470         7
59.480        13
59.490        33
59.500        20
59.510        13
59.520        27
59.530         0
59.540         7
59.550        13
59.560        27
59.570        13
59.580        13
59.590        20
59.600        40
59.610        33
59.620        40
59.630        33
59.640        27
59.650        13
59.660        33
59.670        60
59.680        47
59.690        53
59.700        33
59.710        33
59.720        47
59.730        27
59.740        33
59.750        33
59.760        40
59.770        20
59.780        20
59.790        33
59.800        40
59.810        33
59.820        33
59.830        40
59.840        27
59.850        27
59.860        27
59.870        13
59.880        33
59.890        20
59.900        20
59.910        20
59.920        27
59.930        20
59.940        27
59.950        33
59.960        27
59.970        13
59.980        33
59.990        27
60.000        33
