20.000        27
20.010        27
20.020        27
20.030        40
20.040        60
20.050        13
20.060        60
20.070        40
20.080        27
20.090        53
20.100        20
20.110        60
20.120        33
20.130        33
20.140        33
20.150        53
20.160        27
20.170        67
20.180        60
20.190        40
20.200        33
20.210        13
20.220        27
20.230        33
20.240        67
20.250        60
20.260        33
20.270        53
20.280        33
20.290        27
20.300        67
20.310        27
20.320        40
20.330        60
20.340        73
20.350        40
20.360         7
20.370        40
20.380        53
20.390        53
20.400        27
20.410        20
20.420        67
20.430        20
20.440        40
20.450        40
20.460        40
20.470        33
20.480        73
20.490        67
20.500        47
20.510        40
20.520        13
20.530        40
20.540        47
20.550        27
20.560        33
20.570        60
20.580        33
20.590        33
20.600       107
20.610        13
20.620        33
20.630        27
20.640        27
20.650        93
20.660        13
20.670        47
20.680        33
20.690        27
20.700        40
20.710        60
20.720        47
20.730        73
20.740         0
20.750        33
20.760        47
20.770        47
20.780        53
20.790        60
20.800        47
20.810        33
20.820        47
20.830        33
20.840        53
20.850        47
20.860        20
20.870        67
20.880        33
20.890        20
20.900        53
20.910        53
20.920        27
20.930        27
20.940        40
20.950        27
20.960        33
20.970        53
20.980        20
20.990        27
21.000        40
21.010        40
21.020        73
21.030        13
21.040        53
21.050        47
21.060        33
21.070        53
21.080        27
21.090        27
21.100        40
21.110        40
21.120        47
21.130         7
21.140        40
21.150        33
21.160        40
21.170        33
21.180        27
21.190        27
21.200        33
21.210        27
21.220        27
21.230        53
21.240        20
21.250        53
21.260        53
21.270        40
21.280        33
21.290        33
21.300        67
21.310        27
21.320        27
21.330        40
21.340        67
21.350        27
21.360        33
21.370        33
21.380        53
21.390        27
21.400        27
21.410        40
21.420        33
21.430        33
21.440        40
21.450        13
21.460        33
21.470        33
21.480        27
21.490        27
21.500        20
21.510        27
21.520        33
21.530        33
21.540        33
21.550        67
21.560        40
21.570        20
21.580        40
21.590        40
21.600        40
21.610        73
21.620         7
21.630        27
21.640        53
21.650        47
21.660        20
21.670        40
21.680        33
21.690        53
21.700        27
21.710        13
21.720        53
21.730        33
21.740        67
21.750        40
21.760        20
21.770        60
21.780        53
21.790        20
21.800        27
21.810        27
21.820        27
21.830        60
21.840        33
21.850        27
21.860        67
21.870        47
21.880        33
21.890        20
21.900        20
21.910        40
21.920        13
21.930        33
21.940        67
21.950        40
21.960        20
21.970        47
21.980        47
21.990        40
22.000        33
22.010        73
22.020        40
22.030        20
22.040        13
22.050        33
22.060        27
22.070        47
22.080        53
22.090        20
22.100        60
22.110        47
22.120        40
22.130        20
22.140        27
22.150        27
22.160        53
22.170        53
22.180        60
22.190        27
22.200        67
22.210        40
22.220        33
22.230        33
22.240        33
22.250        53
22.260        40
22.270        27
22.280        40
22.290        33
22.300         7
22.310        47
22.320        27
22.330        20
22.340        47
22.350        33
22.360        47
22.370        40
22.380        67
22.390        40
22.400        33
22.410        53
22.420        27
22.430        20
22.440        53
22.450        33
22.460        27
22.470        67
22.480        33
22.490        33
22.500        33
22.510        33
22.520        20
22.530        20
22.540        47
22.550        20
22.560        73
22.570        27
22.580        47
22.590        73
22.600        27
22.610        40
22.620        27
22.630        40
22.640        33
22.650        27
22.660        53
22.670        53
22.680        33
22.690        47
22.700        67
22.710        53
22.720        27
22.730        40
22.740        20
22.750        47
22.760        33
22.770        40
22.780        27
22.790        33
22.800        20
22.810        73
22.820        53
22.830        40
22.840        33
22.850        40
22.860        13
22.870        47
22.880        80
22.890        53
22.900         0
22.910        20
22.920        27
22.930        20
22.940        13
22.950        60
22.960        67
22.970        33
22.980        40
22.990        40
23.000        40
23.010        20
23.020        40
23.030        67
23.040        27
23.050        40
23.060        33
23.070        33
23.080         7
23.090        27
23.100        47
23.110        33
23.120        20
23.130         0
23.140        47
23.150        13
23.160        67
23.170         7
23.180        20
23.190        20
23.200        27
23.210        47
23.220        53
23.230        27
23.240        27
23.250        27
23.260        20
23.270        27
23.280        20
23.290        33
23.300        27
23.310        67
23.320        13
23.330        33
23.340        40
23.350        53
23.360        13
23.370        53
23.380        47
23.390        60
23.400        40
23.410        40
23.420        27
23.430        33
23.440        13
23.450        53
23.460        33
23.470        53
23.480        40
23.490        20
23.500         7
23.510        13
23.520        40
23.530        20
23.540        20
23.550        20
23.560        27
23.570        47
23.580        60
23.590        33
23.600        40
23.610        27
23.620        33
23.630        40
23.640        33
23.650        53
23.660        47
23.670        13
23.680        27
23.690         7
23.700        53
23.710        27
23.720        33
23.730        27
23.740        33
23.750        27
23.760        33
23.770        33
23.780        60
23.790        13
23.800        33
23.810        20
23.820        27
23.830        40
23.840        20
23.850        27
23.860        20
23.870        13
23.880        33
23.890        20
23.900        33
23.910        20
23.920        27
23.930        20
23.940        33
23.950        60
23.960        47
23.970        20
23.980        13
23.990        13
24.000        40
24.010        33
24.020        27
24.030        40
24.040        40
24.050        27
24.060        20
24.070        20
24.080        20
24.090        40
24.100         7
24.110         7
24.120         7
24.130        33
24.140        27
24.150        20
24.160        47
24.170        27
24.180         7
24.190        33
24.200        33
24.210        27
24.220        27
24.230        33
24.240        27
24.250        27
24.260        13
24.270        20
24.280         7
24.290        53
24.300        20
24.310        27
24.320        53
24.330        40
24.340        47
24.350        27
24.360        27
24.370        47
24.380        40
24.390        20
24.400         7
24.410        47
24.420        47
24.430        20
24.440        47
24.450        53
24.460        40
24.470        53
24.480        60
24.490        33
24.500        20
24.510        33
24.520        27
24.530        27
24.540        40
24.550        20
24.560        47
24.570        20
24.580        20
24.590        13
24.600         7
24.610        20
24.620        27
24.630        13
24.640         7
24.650        27
24.660        20
24.670        60
24.680        33
24.690        40
24.700        47
24.710        47
24.720        67
24.730         7
24.740        13
24.750        40
24.760        33
24.770        27
24.780        93
24.790        27
24.800        20
24.810        47
24.820        27
24.830        33
24.840        53
24.850        60
24.860        33
24.870        47
24.880        27
24.890        47
24.900        73
24.910        33
24.920        27
24.930        53
24.940        53
24.950        40
24.960        47
24.970        20
24.980        53
24.990        40
25.000        53
25.010        27
25.020        20
25.030        13
25.040        33
25.050        33
25.060        33
25.070        27
25.080        53
25.090         7
25.100         7
25.110        33
25.120        27
25.130         0
25.140        20
25.150         7
25.160        47
25.170        67
25.180        53
25.190        13
25.200        33
25.210        33
25.220        20
25.230        47
25.240        33
25.250        47
25.260        20
25.270        47
25.280        47
25.290        40
25.300        20
25.310        33
25.320        33
25.330        47
25.340        20
25.350        27
25.360        33
25.370        33
25.380        47
25.390        27
25.400         0
25.410        53
25.420        20
25.430        33
25.440         7
25.450        13
25.460        27
25.470        27
25.480        47
25.490        27
25.500        47
25.510        33
25.520        20
25.530        33
25.540        27
25.550        47
25.560        33
25.570        13
25.580         0
25.590        13
25.600        27
25.610        33
25.620        47
25.630        20
25.640        20
25.650        20
25.660        33
25.670        13
25.680        13
25.690        20
25.700        20
25.710        40
25.720        53
25.730        27
25.740        13
25.750        40
25.760        40
25.770        27
25.780        40
25.790        67
25.800        20
25.810        33
25.820        33
25.830        20
25.840        33
25.850        53
25.860        40
25.870        33
25.880        33
25.890        20
25.900        33
25.910        60
25.920        20
25.930        27
25.940        27
25.950        67
25.960        20
25.970        20
25.980        27
25.990        47
26.000        33
26.010        40
26.020        47
26.030        33
26.040        53
26.050        27
26.060        20
26.070         7
26.080        20
26.090        40
26.100        40
26.110        20
26.120        27
26.130         7
26.140         7
26.150        20
26.160        40
26.170        27
26.180        27
26.190        27
26.200        47
26.210         7
26.220        33
26.230        20
26.240         7
26.250        20
26.260        20
26.270        40
26.280        33
26.290        27
26.300        27
26.310        33
26.320        40
26.330        20
26.340        53
26.350        33
26.360        13
26.370        20
26.380        20
26.390        40
26.400         7
26.410        40
26.420        60
26.430        73
26.440        13
26.450        13
26.460        27
26.470        33
26.480        27
26.490        20
26.500        27
26.510         7
26.520         7
26.530        40
26.540        27
26.550        40
26.560        20
26.570        40
26.580        40
26.590        27
26.600        33
26.610        33
26.620        73
26.630        33
26.640        40
26.650        13
26.660        27
26.670        27
26.680        40
26.690        80
26.700        20
26.710        33
26.720        40
26.730        20
26.740        40
26.750        27
26.760        27
26.770        27
26.780        40
26.790        27
26.800         7
26.810        60
26.820        33
26.830        20
26.840        27
26.850        40
26.860        13
26.870        13
26.880        20
26.890        20
26.900        40
26.910        53
26.920        33
26.930        27
26.940        13
26.950        60
26.960        47
26.970        13
26.980        33
26.990        47
27.000        47
27.010        60
27.020        27
27.030        27
27.040        20
27.050        13
27.060        33
27.070        13
27.080        20
27.090        27
27.100        40
27.110        27
27.120        27
27.130        20
27.140        40
27.150        40
27.160         7
27.170        40
27.180        13
27.190        20
27.200        27
27.210        33
27.220        13
27.230        13
27.240        40
27.250        53
27.260        33
27.270        20
27.280        20
27.290         0
27.300        33
27.310        20
27.320        47
27.330        20
27.340        20
27.350        47
27.360        13
27.370        47
27.380        13
27.390        33
27.400        40
27.410        60
27.420        40
27.430        20
27.440        20
27.450        27
27.460        40
27.470        13
27.480        20
27.490        33
27.500        33
27.510         7
27.520         7
27.530        33
27.540        20
27.550         7
27.560        13
27.570        33
27.580        53
27.590        20
27.600        40
27.610         0
27.620        47
27.630        40
27.640         0
27.650        20
27.660        33
27.670        27
27.680        27
27.690        13
27.700        20
27.710        40
27.720        47
27.730         7
27.740        20
27.750        27
27.760        33
27.770        40
27.780        20
27.790        27
27.800        47
27.810        53
27.820        20
27.830        33
27.840        53
27.850        27
27.860        40
27.870        27
27.880        53
27.890        80
27.900        27
27.910        53
27.920        33
27.930        40
27.940        33
27.950        27
27.960        40
27.970        27
27.980        40
27.990        40
28.000        33
28.010        13
28.020        27
28.030         7
28.040        20
28.050        40
28.060        27
28.070        27
28.080        27
28.090        40
28.100        27
28.110        53
28.120        13
28.130         7
28.140        33
28.150        47
28.160        27
28.170         0
28.180        20
28.190         7
28.200        40
28.210        33
28.220        20
28.230        13
28.240        13
28.250        27
28.260        20
28.270        33
28.280        33
28.290        33
28.300        20
28.310        13
28.320        27
28.330        27
28.340        33
28.350        27
28.360        33
28.370        27
28.380        27
28.390        33
28.400        13
28.410        20
28.420        27
28.430        20
28.440        40
28.450        27
28.460        47
28.470         7
28.480        27
28.490        27
28.500        13
28.510         7
28.520        53
28.530         7
28.540        13
28.550        33
28.560        33
28.570        20
28.580        47
28.590        40
28.600        20
28.610        27
28.620        60
28.630        13
28.640        27
28.650        20
28.660        33
28.670        20
28.680        13
28.690        13
28.700        33
28.710        27
28.720        20
28.730        33
28.740        67
28.750        47
28.760        13
28.770         7
28.780        20
28.790        13
28.800        33
28.810        20
28.820        27
28.830        13
28.840        13
28.850         7
28.860        33
28.870        20
28.880        47
28.890        53
28.900        60
28.910         7
28.920        33
28.930        20
28.940        27
28.950        27
28.960        40
28.970        47
28.980        13
28.990        27
29.000         7
29.010        33
29.020        33
29.030        33
29.040        27
29.050        33
29.060        53
29.070        20
29.080        47
29.090        53
29.100         7
29.110        27
29.120        20
29.130        60
29.140        13
29.150        40
29.160        27
29.170        20
29.180         7
29.190        33
29.200        40
29.210        27
29.220        27
29.230        33
29.240        20
29.250        13
29.260        13
29.270        47
29.280        40
29.290        33
29.300        27
29.310        47
29.320        27
29.330        27
29.340        40
29.350        13
29.360        67
29.370        60
29.380        47
29.390        47
29.400        47
29.410        27
29.420        53
29.430        60
29.440        67
29.450        33
29.460        60
29.470        33
29.480        33
29.490        27
29.500        13
29.510        40
29.520        33
29.530        47
29.540        27
29.550        27
29.560        40
29.570        27
29.580        33
29.590        67
29.600        20
29.610        40
29.620         7
29.630        40
29.640        33
29.650        33
29.660        27
29.670        13
29.680         7
29.690        33
29.700        33
29.710        27
29.720        33
29.730         7
29.740        40
29.750        47
29.760        33
29.770        13
29.780        13
29.790        20
29.800        53
29.810        20
29.820        20
29.830        53
29.840        13
29.850        13
29.860        33
29.870        87
29.880        53
29.890        33
29.900        60
29.910        20
29.920        47
29.930        33
29.940        40
29.950        47
29.960        33
29.970        27
29.980        20
29.990        20
30.000        20
30.010        53
30.020        33
30.030        40
30.040        27
30.050        40
30.060        60
30.070        20
30.080        27
30.090        33
30.100        73
30.110        33
30.120        53
30.130        53
30.140        33
30.150        27
30.160        93
30.170        47
30.180        20
30.190        20
30.200        33
30.210        53
30.220        20
30.230        73
30.240        33
30.250        27
30.260        60
30.270        60
30.280        40
30.290        67
30.300        60
30.310        73
30.320        47
30.330        53
30.340        40
30.350        53
30.360        27
30.370        20
30.380        20
30.390        40
30.400        47
30.410        53
30.420        53
30.430        47
30.440        53
30.450        47
30.460        53
30.470        60
30.480        67
30.490        87
30.500        87
30.510        60
30.520        47
30.530        60
30.540        73
30.550        67
30.560        80
30.570        87
30.580        60
30.590        47
30.600        67
30.610        67
30.620        73
30.630        73
30.640       100
30.650        67
30.660       133
30.670        87
30.680       160
30.690       213
30.700       100
30.710       180
30.720       233
30.730       260
30.740       260
30.750       347
30.760       307
30.770       473
30.780       660
30.790       606
30.800       680
30.810       640
30.820       913
30.830       946
30.840      1053
30.850      1186
30.860      1419
30.870      1693
30.880      1839
30.890      2066
30.900      2459
30.910      2619
30.920      2639
30.930      2932
30.940      2945
30.950      2726
30.960      2732
30.970      2706
30.980      2406
30.990      2186
31.000      2252
31.010      1859
31.020      1506
31.030      1526
31.040      1086
31.050       993
31.060       826
31.070       746
31.080       593
31.090       420
31.100       340
31.110       367
31.120       180
31.130       207
31.140       133
31.150       180
31.160       153
31.170        80
31.180       120
31.190        67
31.200       107
31.210        93
31.220        67
31.230       113
31.240        60
31.250        60
31.260        53
31.270        87
31.280        73
31.290        93
31.300        27
31.310       107
31.320        47
31.330        60
31.340        60
31.350       107
31.360        27
31.370        47
31.380        53
31.390       100
31.400       127
31.410        53
31.420        80
31.430        60
31.440        60
31.450        33
31.460        53
31.470        33
31.480        33
31.490        60
31.500        53
31.510        80
31.520        53
31.530        60
31.540        47
31.550        47
31.560        20
31.570        33
31.580        73
31.590        53
31.600        33
31.610        53
31.620        20
31.630        33
31.640        53
31.650        40
31.660        47
31.670        27
31.680        40
31.690        40
31.700        53
31.710        53
31.720        40
31.730        33
31.740        27
31.750        73
31.760        33
31.770        47
31.780        33
31.790        33
31.800        73
31.810        60
31.820        47
31.830        40
31.840        47
31.850        33
31.860        20
31.870        33
31.880        40
31.890        33
31.900        47
31.910        33
31.920        53
31.930        40
31.940        33
31.950        27
31.960        27
31.970        13
31.980        47
31.990        33
32.000        33
32.010        27
32.020        33
32.030        53
32.040        27
32.050        40
32.060        40
32.070        47
32.080        73
32.090        33
32.100        27
32.110        27
32.120        20
32.130        33
32.140        47
32.150        13
32.160        33
32.170        80
32.180        73
32.190        20
32.200        40
32.210        40
32.220        20
32.230        27
32.240        20
32.250        40
32.260        13
32.270        13
32.280         7
32.290         7
32.300        40
32.310        67
32.320        33
32.330        13
32.340        33
32.350         7
32.360        13
32.370        33
32.380        53
32.390        47
32.400        13
32.410        27
32.420        13
32.430        33
32.440        20
32.450        27
32.460        20
32.470        20
32.480        13
32.490        40
32.500        33
32.510        20
32.520        33
32.530         7
32.540        13
32.550        60
32.560        27
32.570        13
32.580        47
32.590        20
32.600        20
32.610        20
32.620        40
32.630        20
32.640        40
32.650        47
32.660        40
32.670         7
32.680        40
32.690        20
32.700        33
32.710        47
32.720        47
32.730        40
32.740        53
32.750        80
32.760        33
32.770        40
32.780        33
32.790        27
32.800        53
32.810        33
32.820         7
32.830        20
32.840        27
32.850        27
32.860        20
32.870        53
32.880        27
32.890        40
32.900        33
32.910        20
32.920        27
32.930        60
32.940        20
32.950        27
32.960        33
32.970         7
32.980        20
32.990        47
33.000        20
33.010        27
33.020        27
33.030        27
33.040        33
33.050        33
33.060        27
33.070        13
33.080        13
33.090        27
33.100        13
33.110         0
33.120        53
33.130        47
33.140        40
33.150        27
33.160        20
33.170        27
33.180        33
33.190        40
33.200        40
33.210         7
33.220        20
33.230        47
33.240        33
33.250        47
33.260        20
33.270        47
33.280        33
33.290        33
33.300        40
33.310        20
33.320        53
33.330        27
33.340         7
33.350        40
33.360        27
33.370        27
33.380         7
33.390        40
33.400        27
33.410        33
33.420        47
33.430        47
33.440        27
33.450        33
33.460         7
33.470        27
33.480        27
33.490        40
33.500        20
33.510        60
33.520        27
33.530        33
33.540        40
33.550        13
33.560        47
33.570        20
33.580        27
33.590        13
33.600        27
33.610        47
33.620        40
33.630        27
33.640        27
33.650        27
33.660        27
33.670        27
33.680        20
33.690        40
33.700        67
33.710        20
33.720        33
33.730        13
33.740        40
33.750        27
33.760         7
33.770         0
33.780        33
33.790        27
33.800         7
33.810        33
33.820        53
33.830        53
33.840        27
33.850        27
33.860        13
33.870         0
33.880        13
33.890         7
33.900        40
33.910        27
33.920        20
33.930         7
33.940        27
33.950        47
33.960        40
33.970        20
33.980        27
33.990        40
34.000         7
34.010         7
34.020        27
34.030        27
34.040        33
34.050        53
34.060        13
34.070        13
34.080        13
34.090        33
34.100        20
34.110        33
34.120        20
34.130        13
34.140        47
34.150         7
34.160        13
34.170        20
34.180        27
34.190        20
34.200        40
34.210        20
34.220        33
34.230        20
34.240        27
34.250        27
34.260        40
34.270        13
34.280        33
34.290        40
34.300        27
34.310        27
34.320        27
34.330        20
34.340        20
34.350        33
34.360        13
34.370        20
34.380        27
34.390        40
34.400        13
34.410        20
34.420        13
34.430        40
34.440        13
34.450        27
34.460        33
34.470         7
34.480        20
34.490         0
34.500        33
34.510        20
34.520        60
34.530        13
34.540        47
34.550        27
34.560        20
34.570        47
34.580        40
34.590        40
34.600        13
34.610        20
34.620        20
34.630        27
34.640        27
34.650        47
34.660        40
34.670        20
34.680        27
34.690        13
34.700        33
34.710        20
34.720        20
34.730         7
34.740        20
34.750         7
34.760        33
34.770        33
34.780        27
34.790        33
34.800        13
34.810        40
34.820        47
34.830        27
34.840        13
34.850        20
34.860         7
34.870        33
34.880        13
34.890        27
34.900        27
34.910        20
34.920        33
34.930         0
34.940        13
34.950        13
34.960        40
34.970        27
34.980        27
34.990        20
35.000         0
35.010        20
35.020        33
35.030        13
35.040        80
35.050        40
35.060        20
35.070        47
35.080        33
35.090        40
35.100        33
35.110        40
35.120        73
35.130        27
35.140        33
35.150        33
35.160        20
35.170        27
35.180        27
35.190        40
35.200        47
35.210        53
35.220        40
35.230        33
35.240        40
35.250        27
35.260        33
35.270        20
35.280        13
35.290        53
35.300        20
35.310        53
35.320        13
35.330        27
35.340        40
35.350        47
35.360         7
35.370        33
35.380        13
35.390        20
35.400        33
35.410         7
35.420        20
35.430        13
35.440        20
35.450        13
35.460        13
35.470        13
35.480        27
35.490        20
35.500        27
35.510        40
35.520        27
35.530        40
35.540        27
35.550        27
35.560        47
35.570        27
35.580        53
35.590        47
35.600         7
35.610        27
35.620        20
35.630        27
35.640        33
35.650        27
35.660        27
35.670        20
35.680        27
35.690        33
35.700        13
35.710         7
35.720         7
35.730        27
35.740        20
35.750        40
35.760        20
35.770        20
35.780        33
35.790        33
35.800        27
35.810        13
35.820        53
35.830        33
35.840        20
35.850        20
35.860        27
35.870        40
35.880        20
35.890        13
35.900        47
35.910        33
35.920        33
35.930        20
35.940        40
35.950        40
35.960        13
35.970        27
35.980        27
35.990        20
36.000        27
36.010         7
36.020        20
36.030        27
36.040        40
36.050         7
36.060        13
36.070        20
36.080        20
36.090        27
36.100        27
36.110        40
36.120        40
36.130        27
36.140        33
36.150        27
36.160        13
36.170        27
36.180        13
36.190         7
36.200        13
36.210        33
36.220        27
36.230        20
36.240        40
36.250        13
36.260        53
36.270         7
36.280        13
36.290        27
36.300        13
36.310        20
36.320        13
36.330        13
36.340        13
36.350        13
36.360        27
36.370        13
36.380        27
36.390        27
36.400        20
36.410        13
36.420         7
36.430        20
36.440        33
36.450        20
36.460         7
36.470        40
36.480        27
36.490        33
36.500        33
36.510        40
36.520        20
36.530        33
36.540        33
36.550        27
36.560        33
36.570        13
36.580        20
36.590        20
36.600         0
36.610         7
36.620         7
36.630        20
36.640        27
36.650        13
36.660        60
36.670        27
36.680        20
36.690        27
36.700        13
36.710        27
36.720        40
36.730        27
36.740        20
36.750         7
36.760        20
36.770        33
36.780         0
36.790        33
36.800        20
36.810         0
36.820        13
36.830        33
36.840        20
36.850         0
36.860        13
36.870        40
36.880        33
36.890        20
36.900        27
36.910         7
36.920        40
36.930        33
36.940        13
36.950        13
36.960        13
36.970        47
36.980        47
36.990        20
37.000        47
37.010        27
37.020        53
37.030        27
37.040        40
37.050        33
37.060         7
37.070        20
37.080        20
37.090        13
37.100        13
37.110        40
37.120        47
37.130        20
37.140        27
37.150        47
37.160        27
37.170        40
37.180        33
37.190        40
37.200        40
37.210        33
37.220        53
37.230        20
37.240        27
37.250        33
37.260        20
37.270        20
37.280         7
37.290        60
37.300        27
37.310         7
37.320        40
37.330        33
37.340        20
37.350        40
37.360        27
37.370        13
37.380        20
37.390        27
37.400        47
37.410        40
37.420        40
37.430        20
37.440        27
37.450        27
37.460        33
37.470        27
37.480        40
37.490        27
37.500        13
37.510        33
37.520         0
37.530        20
37.540        27
37.550        47
37.560        47
37.570        40
37.580         7
37.590        47
37.600        20
37.610        53
37.620        53
37.630         7
37.640        33
37.650        13
37.660        27
37.670        27
37.680        20
37.690        40
37.700        20
37.710        53
37.720        73
37.730        47
37.740        40
37.750        33
37.760        40
37.770        73
37.780        47
37.790        47
37.800        13
37.810        13
37.820        33
37.830        13
37.840        27
37.850        53
37.860        33
37.870        33
37.880        13
37.890        47
37.900        33
37.910        53
37.920        13
37.930        20
37.940        67
37.950        60
37.960        40
37.970        53
37.980        40
37.990        53
38.000        60
38.010        33
38.020        47
38.030        47
38.040        47
38.050        20
38.060        27
38.070        13
38.080        40
38.090        40
38.100        47
38.110        33
38.120        33
38.130        93
38.140        60
38.150        73
38.160        60
38.170        40
38.180        47
38.190        73
38.200        40
38.210        27
38.220        53
38.230        40
38.240        33
38.250        87
38.260        47
38.270        40
38.280        53
38.290        40
38.300        93
38.310        60
38.320        20
38.330        67
38.340        60
38.350        53
38.360        53
38.370        80
38.380        40
38.390        47
38.400        53
38.410        73
38.420        73
38.430        73
38.440        80
38.450       127
38.460        33
38.470        33
38.480       107
38.490        93
38.500        40
38.510        53
38.520        67
38.530       113
38.540        67
38.550        60
38.560        73
38.570        67
38.580       127
38.590       133
38.600        93
38.610        87
38.620        67
38.630       120
38.640       133
38.650        93
38.660       100
38.670       113
38.680       113
38.690       107
38.700       120
38.710        67
38.720       107
38.730       120
38.740        87
38.750       100
38.760        80
38.770       127
38.780        73
38.790       133
38.800        80
38.810        67
38.820        33
38.830        60
38.840        40
38.850       113
38.860       113
38.870        80
38.880        87
38.890        87
38.900        47
38.910        53
38.920        67
38.930        53
38.940        73
38.950        60
38.960        53
38.970        33
38.980        47
38.990        87
39.000        47
39.010        67
39.020        27
39.030        47
39.040        27
39.050        27
39.060        40
39.070        53
39.080        47
39.090        53
39.100        13
39.110        20
39.120        53
39.130        27
39.140        13
39.150        13
39.160        20
39.170        33
39.180        27
39.190        27
39.200        13
39.210        13
39.220        33
39.230        47
39.240        33
39.250        20
39.260        13
39.270        27
39.280        40
39.290        13
39.300        40
39.310        27
39.320        40
39.330        53
39.340        53
39.350        40
39.360        13
39.370        13
39.380        40
39.390        47
39.400        33
39.410        33
39.420        20
39.430         0
39.440        40
39.450        33
39.460        33
39.470        13
39.480        20
39.490        53
39.500        20
39.510        20
39.520         7
39.530        27
39.540        27
39.550        20
39.560         0
39.570        33
39.580        13
39.590        27
39.600        20
39.610         7
39.620         7
39.630        13
39.640        47
39.650        20
39.660        40
39.670        47
39.680        40
39.690        33
39.700        20
39.710        13
39.720         7
39.730         7
39.740        33
39.750         7
39.760        20
39.770        20
39.780        27
39.790        33
39.800        13
39.810        47
39.820        13
39.830        27
39.840        20
39.850        13
39.860        13
39.870        13
39.880        20
39.890        20
39.900        27
39.910        13
39.920        33
39.930        47
39.940        20
39.950        13
39.960        47
39.970        20
39.980        27
39.990        13
40.000        20
40.010        20
40.020        13
40.030        13
40.040        20
40.050        40
40.060        33
40.070        47
40.080        33
40.090        20
40.100        27
40.110        13
40.120         0
40.130        20
40.140        33
40.150        47
40.160         7
40.170        20
40.180        20
40.190        33
40.200        27
40.210        20
40.220        27
40.230        13
40.240         0
40.250        13
40.260        27
40.270        20
40.280        20
40.290        33
40.300        27
40.310        20
40.320        40
40.330        27
40.340        40
40.350         7
40.360        53
40.370        13
40.380         7
40.390        20
40.400        13
40.410        13
40.420         0
40.430        13
40.440        13
40.450        40
40.460        27
40.470        20
40.480        20
40.490        27
40.500         0
40.510        13
40.520        33
40.530        40
40.540        47
40.550        13
40.560        27
40.570         7
40.580        13
40.590        20
40.600        27
40.610        33
40.620        40
40.630        20
40.640        33
40.650        27
40.660        20
40.670        20
40.680        20
40.690        27
40.700        13
40.710        33
40.720        33
40.730        27
40.740        27
40.750        20
40.760        47
40.770        13
40.780        33
40.790        20
40.800        13
40.810        20
40.820        13
40.830        20
40.840         7
40.850        20
40.860        13
40.870        13
40.880        47
40.890        27
40.900         7
40.910        20
40.920        40
40.930        33
40.940        20
40.950        20
40.960        20
40.970        20
40.980        13
40.990        40
41.000         7
41.010         7
41.020        33
41.030         0
41.040         7
41.050        27
41.060        13
41.070        40
41.080        20
41.090        27
41.100        20
41.110        33
41.120         7
41.130         7
41.140         7
41.150         7
41.160        13
41.170        20
41.180        20
41.190        20
41.200         7
41.210        60
41.220        27
41.230         7
41.240        20
41.250        27
41.260        40
41.270        27
41.280        13
41.290        20
41.300        20
41.310         7
41.320        20
41.330        20
41.340        33
41.350        47
41.360        20
41.370        13
41.380         7
41.390        40
41.400        27
41.410        13
41.420        13
41.430         7
41.440        13
41.450        20
41.460        20
41.470        13
41.480         7
41.490        20
41.500        20
41.510        27
41.520        40
41.530        33
41.540        53
41.550        20
41.560        27
41.570        20
41.580        40
41.590        27
41.600        40
41.610        73
41.620        33
41.630        33
41.640        60
41.650        33
41.660        80
41.670        33
41.680        27
41.690        60
41.700        53
41.710        60
41.720        53
41.730        53
41.740        47
41.750        20
41.760        67
41.770        53
41.780        47
41.790        47
41.800        40
41.810        53
41.820        67
41.830        27
41.840        20
41.850        33
41.860        27
41.870        53
41.880        27
41.890        27
41.900        33
41.910        20
41.920        13
41.930        20
41.940        13
41.950        20
41.960        27
41.970        20
41.980        20
41.990        20
42.000        27
42.010         0
42.020        33
42.030        20
42.040        27
42.050        47
42.060        27
42.070         7
42.080        40
42.090        60
42.100        27
42.110        33
42.120        20
42.130        20
42.140        13
42.150        13
42.160        13
42.170         7
42.180         0
42.190        20
42.200         7
42.210        13
42.220        20
42.230        47
42.240        33
42.250        33
42.260        13
42.270         7
42.280        13
42.290        20
42.300        20
42.310        20
42.320        20
42.330         7
42.340        27
42.350        20
42.360        27
42.370        40
42.380         7
42.390         0
42.400        47
42.410        13
42.420        27
42.430        13
42.440        27
42.450        27
42.460        13
42.470        20
42.480        20
42.490        13
42.500        27
42.510        13
42.520         7
42.530        27
42.540        27
42.550        40
42.560        40
42.570        33
42.580        20
42.590        13
42.600         0
42.610         0
42.620        20
42.630        27
42.640         7
42.650        20
42.660        20
42.670        33
42.680        27
42.690         0
42.700        13
42.710        33
42.720        13
42.730        13
42.740        40
42.750        13
42.760        27
42.770        20
42.780        40
42.790        20
42.800        40
42.810        33
42.820        27
42.830        40
42.840        13
42.850        40
42.860         7
42.870        47
42.880         7
42.890        13
42.900        20
42.910        33
42.920        53
42.930        13
42.940         0
42.950        40
42.960        20
42.970        20
42.980        13
42.990        20
43.000        27
43.010        33
43.020        20
43.030         7
43.040        27
43.050        20
43.060        47
43.070        27
43.080        27
43.090         7
43.100         0
43.110        27
43.120        27
43.130        20
43.140        27
43.150        40
43.160        40
43.170        33
43.180        27
43.190        40
43.200        27
43.210        40
43.220        33
43.230        20
43.240        80
43.250         7
43.260        40
43.270        13
43.280        33
43.290        20
43.300        20
43.310        20
43.320        27
43.330        13
43.340        20
43.350        27
43.360        47
43.370        13
43.380        47
43.390        27
43.400        33
43.410         7
43.420        33
43.430        33
43.440        27
43.450        20
43.460        20
43.470        33
43.480        33
43.490        20
43.500        13
43.510        33
43.520        33
43.530        40
43.540        27
43.550        40
43.560        27
43.570        47
43.580        13
43.590        33
43.600        13
43.610        33
43.620        33
43.630        47
43.640        20
43.650        13
43.660        33
43.670        33
43.680        13
43.690        13
43.700        13
43.710        13
43.720        27
43.730        33
43.740        27
43.750        27
43.760         7
43.770        20
43.780         7
43.790         7
43.800         7
43.810        40
43.820        40
43.830        33
43.840        20
43.850        13
43.860        20
43.870        27
43.880        20
43.890         7
43.900        27
43.910         0
43.920        20
43.930        13
43.940        13
43.950        33
43.960        13
43.970        40
43.980         7
43.990        13
44.000        40
44.010        20
44.020        27
44.030        20
44.040        27
44.050        27
44.060        13
44.070        40
44.080        13
44.090        27
44.100        20
44.110        20
44.120        13
44.130        40
44.140        20
44.150        27
44.160        33
44.170        27
44.180        27
44.190        33
44.200        27
44.210        27
44.220        40
44.230        27
44.240        20
44.250        27
44.260        13
44.270        27
44.280        33
44.290        13
44.300        33
44.310        13
44.320        13
44.330        20
44.340        27
44.350        27
44.360        20
44.370        33
44.380        33
44.390        27
44.400        33
44.410        13
44.420        27
44.430        47
44.440        27
44.450        27
44.460        33
44.470         7
44.480        33
44.490        13
44.500        27
44.510        27
44.520        47
44.530        13
44.540        33
44.550        33
44.560        33
44.570        27
44.580         7
44.590         7
44.600        20
44.610        33
44.620        33
44.630         0
44.640        13
44.650        27
44.660         7
44.670        20
44.680         0
44.690         7
44.700        20
44.710        20
44.720        13
44.730         7
44.740         0
44.750        13
44.760         0
44.770        20
44.780        13
44.790        33
44.800        27
44.810         7
44.820        13
44.830         0
44.840        33
44.850        13
44.860        40
44.870        40
44.880        13
44.890        20
44.900        13
44.910        27
44.920        20
44.930         0
44.940        40
44.950        27
44.960        40
44.970        27
44.980        27
44.990        20
45.000        20
45.010        20
45.020        13
45.030        47
45.040        13
45.050        27
45.060        40
45.070        27
45.080         7
45.090        20
45.100        20
45.110        20
45.120        33
45.130        40
45.140         7
45.150        20
45.160        13
45.170         7
45.180         7
45.190         0
45.200        53
45.210        20
45.220        27
45.230        20
45.240        27
45.250        27
45.260         0
45.270        27
45.280         7
45.290        20
45.300        27
45.310        33
45.320        40
45.330        27
45.340        33
45.350        27
45.360        13
45.370         7
45.380        27
45.390        27
45.400        20
45.410        27
45.420        47
45.430        13
45.440        27
45.450         7
45.460         0
45.470        47
45.480        33
45.490        60
45.500        13
45.510         7
45.520         7
45.530        13
45.540        20
45.550        20
45.560        20
45.570        13
45.580        20
45.590        13
45.600        13
45.610        33
45.620         7
45.630        20
45.640         0
45.650        13
45.660        13
45.670        13
45.680        27
45.690        33
45.700        33
45.710         7
45.720        27
45.730        13
45.740        33
45.750        33
45.760         7
45.770        27
45.780        20
45.790         7
45.800        27
45.810         0
45.820        13
45.830        40
45.840        13
45.850        20
45.860        33
45.870         7
45.880        13
45.890        33
45.900        20
45.910        20
45.920        40
45.930         7
45.940        13
45.950        27
45.960        13
45.970        27
45.980        13
45.990         0
46.000        27
46.010        20
46.020         0
46.030        13
46.040         0
46.050        13
46.060        20
46.070        13
46.080         7
46.090        13
46.100        20
46.110        40
46.120        13
46.130        33
46.140        53
46.150         7
46.160        13
46.170        13
46.180        20
46.190        20
46.200         7
46.210        33
46.220        20
46.230        20
46.240        20
46.250         7
46.260         7
46.270        33
46.280        27
46.290        20
46.300        27
46.310        33
46.320        33
46.330        20
46.340        27
46.350        27
46.360        13
46.370        13
46.380         7
46.390         0
46.400        27
46.410         7
46.420        47
46.430        20
46.440         0
46.450        27
46.460         7
46.470        40
46.480        13
46.490        40
46.500        20
46.510        40
46.520        53
46.530        27
46.540        13
46.550        27
46.560        13
46.570         7
46.580        33
46.590        20
46.600        13
46.610        20
46.620        20
46.630        40
46.640        40
46.650        20
46.660         0
46.670        33
46.680        13
46.690        33
46.700         7
46.710        13
46.720        20
46.730         7
46.740         0
46.750        27
46.760        20
46.770        13
46.780         0
46.790        20
46.800        40
46.810        13
46.820        13
46.830        20
46.840        33
46.850        27
46.860        20
46.870        20
46.880         7
46.890        20
46.900        27
46.910        20
46.920        27
46.930        13
46.940        13
46.950        20
46.960        20
46.970        20
46.980         0
46.990        40
47.000        13
47.010        20
47.020        40
47.030        27
47.040        20
47.050        13
47.060        20
47.070        27
47.080        27
47.090        20
47.100        27
47.110         0
47.120        20
47.130        33
47.140        13
47.150        20
47.160         0
47.170        13
47.180        27
47.190        27
47.200        20
47.210        33
47.220        20
47.230         0
47.240        20
47.250         7
47.260        20
47.270        33
47.280         7
47.290        27
47.300         7
47.310        20
47.320        47
47.330        27
47.340         0
47.350        13
47.360        20
47.370        27
47.380        27
47.390        27
47.400        13
47.410        20
47.420        20
47.430        27
47.440        20
47.450        27
47.460        20
47.470        53
47.480        13
47.490        20
47.500        40
47.510         7
47.520        27
47.530        20
47.540        33
47.550        27
47.560         7
47.570        47
47.580        33
47.590        27
47.600        40
47.610         7
47.620        20
47.630         0
47.640        27
47.650        20
47.660        13
47.670        20
47.680        27
47.690        20
47.700        20
47.710         7
47.720        20
47.730         7
47.740         7
47.750        27
47.760        13
47.770         7
47.780        13
47.790        13
47.800        20
47.810        13
47.820         7
47.830        20
47.840        47
47.850         7
47.860        13
47.870        20
47.880        13
47.890         7
47.900        27
47.910        13
47.920        33
47.930        27
47.940         7
47.950        20
47.960        20
47.970        27
47.980         7
47.990        40
48.000        13
48.010        13
48.020        13
48.030        27
48.040        27
48.050        27
48.060        33
48.070        27
48.080        27
48.090        13
48.100        20
48.110         0
48.120        20
48.130        20
48.140        33
48.150        27
48.160        27
48.170         7
48.180        20
48.190        20
48.200        13
48.210        20
48.220         7
48.230        20
48.240        27
48.250        20
48.260        20
48.270        27
48.280        13
48.290        33
48.300        40
48.310        20
48.320        27
48.330        27
48.340         0
48.350        20
48.360        20
48.370        13
48.380        33
48.390        13
48.400        27
48.410        20
48.420        13
48.430        13
48.440        47
48.450        20
48.460        13
48.470        20
48.480        40
48.490         7
48.500        33
48.510        13
48.520        20
48.530        33
48.540        13
48.550        13
48.560        33
48.570         7
48.580        20
48.590        13
48.600        13
48.610         7
48.620        20
48.630        20
48.640        20
48.650        13
48.660        47
48.670        20
48.680        13
48.690         7
48.700        20
48.710        13
48.720         7
48.730        13
48.740        13
48.750        20
48.760        20
48.770        40
48.780         7
48.790        13
48.800        13
48.810        13
48.820        13
48.830        13
48.840        13
48.850        27
48.860        13
48.870        20
48.880        20
48.890        13
48.900        20
48.910        20
48.920        20
48.930        13
48.940         7
48.950        40
48.960        33
48.970        33
48.980        13
48.990         7
49.000        20
49.010        13
49.020        20
49.030        27
49.040        13
49.050         7
49.060        27
49.070        20
49.080        13
49.090        13
49.100        53
49.110        13
49.120         0
49.130        13
49.140        27
49.150        33
49.160        13
49.170        27
49.180        27
49.190        47
49.200        27
49.210        13
49.220        33
49.230        27
49.240        47
49.250         7
49.260        13
49.270        27
49.280         7
49.290        33
49.300        13
49.310        27
49.320        20
49.330        13
49.340        20
49.350        13
49.360        13
49.370         7
49.380        20
49.390        27
49.400        13
49.410        20
49.420         7
49.430         7
49.440        27
49.450         7
49.460        13
49.470        20
49.480        33
49.490        20
49.500        20
49.510        20
49.520        20
49.530        47
49.540         7
49.550        13
49.560        40
49.570        13
49.580        20
49.590         7
49.600        33
49.610        33
49.620        27
49.630         7
49.640        33
49.650        27
49.660        20
49.670        20
49.680        13
49.690        20
49.700         7
49.710         7
49.720         7
49.730        13
49.740         0
49.750        13
49.760        13
49.770         7
49.780        13
49.790         7
49.800         7
49.810        40
49.820        13
49.830        33
49.840        20
49.850         0
49.860        13
49.870        13
49.880         7
49.890        13
49.900        20
49.910        27
49.920        20
49.930        13
49.940        13
49.950        20
49.960        33
49.970        13
49.980        20
49.990         7
50.000        40
50.010        13
50.020        13
50.030        40
50.040        33
50.050        27
50.060         7
50.070        13
50.080         7
50.090        13
50.100        20
50.110        33
50.120        13
50.130        40
50.140        20
50.150         7
50.160        27
50.170        13
50.180        20
50.190         7
50.200        27
50.210        20
50.220         7
50.230        40
50.240        13
50.250        27
50.260        20
50.270        13
50.280         7
50.290        20
50.300         7
50.310         7
50.320        27
50.330        40
50.340         7
50.350        27
50.360        20
50.370        13
50.380        13
50.390         7
50.400        47
50.410        33
50.420        20
50.430         7
50.440         7
50.450        47
50.460         7
50.470         7
50.480         7
50.490         7
50.500        13
50.510        27
50.520         0
50.530        13
50.540        13
50.550        27
50.560         7
50.570        13
50.580        13
50.590        40
50.600        27
50.610         7
50.620        20
50.630        13
50.640         7
50.650        20
50.660         0
50.670        20
50.680        13
50.690        27
50.700        33
50.710        13
50.720        27
50.730        40
50.740        20
50.750        27
50.760        20
50.770        20
50.780         0
50.790        13
50.800         0
50.810        20
50.820        13
50.830         7
50.840        13
50.850         7
50.860        27
50.870        40
50.880        13
50.890        20
50.900        20
50.910        13
50.920        20
50.930        13
50.940        13
50.950        33
50.960         7
50.970         7
50.980         7
50.990         7
51.000        20
51.010         7
51.020        33
51.030        33
51.040        20
51.050        40
51.060        13
51.070        13
51.080        13
51.090        27
51.100         7
51.110         7
51.120        33
51.130        33
51.140         0
51.150         7
51.160        20
51.170         7
51.180        40
51.190        20
51.200         7
51.210         7
51.220        20
51.230         7
51.240        20
51.250        27
51.260        20
51.270        13
51.280        27
51.290        13
51.300        13
51.310         7
51.320         7
51.330         7
51.340         7
51.350        20
51.360        13
51.370        20
51.380         7
51.390         0
51.400        13
51.410        47
51.420        20
51.430        33
51.440        40
51.450        20
51.460         7
51.470         7
51.480        13
51.490        20
51.500        13
51.510         7
51.520        27
51.530        13
51.540        20
51.550        33
51.560        13
51.570         7
51.580         7
51.590         7
51.600         7
51.610        20
51.620        13
51.630         0
51.640        20
51.650         7
51.660         7
51.670        13
51.680        13
51.690         7
51.700        13
51.710        13
51.720        13
51.730        20
51.740        13
51.750        33
51.760         7
51.770         0
51.780         7
51.790        33
51.800        40
51.810        13
51.820         7
51.830        27
51.840         7
51.850        13
51.860        33
51.870        20
51.880        13
51.890        13
51.900        20
51.910         7
51.920        27
51.930        20
51.940        27
51.950        33
51.960         7
51.970        13
51.980        27
51.990        13
52.000        33
52.010         0
52.020        27
52.030        27
52.040        13
52.050        20
52.060        13
52.070        13
52.080        13
52.090        13
52.100         0
52.110        13
52.120        27
52.130         0
52.140        13
52.150         7
52.160        33
52.170        40
52.180        27
52.190        33
52.200        27
52.210        13
52.220        27
52.230        20
52.240        13
52.250        27
52.260         0
52.270         7
52.280        27
52.290         7
52.300        13
52.310        20
52.320         0
52.330         0
52.340         7
52.350        13
52.360        13
52.370        20
52.380        27
52.390        20
52.400         7
52.410        13
52.420         7
52.430        27
52.440        20
52.450         7
52.460         7
52.470         7
52.480        13
52.490        20
52.500        27
52.510        33
52.520        27
52.530        13
52.540        20
52.550         7
52.560        13
52.570        47
52.580        13
52.590         7
52.600        20
52.610        13
52.620        13
52.630        20
52.640        13
52.650        33
52.660         0
52.670        33
52.680        13
52.690        20
52.700        27
52.710        27
52.720        13
52.730        13
52.740        33
52.750         0
52.760        13
52.770        27
52.780         0
52.790        13
52.800        20
52.810        13
52.820        20
52.830        13
52.840        27
52.850        13
52.860         7
52.870         7
52.880        13
52.890        20
52.900        20
52.910        20
52.920        27
52.930        13
52.940        20
52.950         7
52.960        20
52.970         7
52.980        20
52.990        27
53.000        27
53.010        13
53.020        13
53.030         0
53.040         7
53.050        13
53.060        13
53.070        27
53.080        20
53.090        13
53.100         0
53.110        20
53.120         0
53.130        20
53.140        13
53.150        27
53.160        27
53.170        20
53.180        20
53.190         7
53.200        33
53.210        20
53.220        13
53.230        20
53.240         7
53.250        13
53.260        13
53.270        13
53.280        13
53.290        13
53.300        20
53.310        20
53.320        13
53.330        20
53.340         7
53.350         0
53.360         7
53.370        13
53.380        13
53.390         7
53.400        13
53.410         7
53.420        27
53.430        13
53.440        20
53.450        27
53.460        20
53.470         7
53.480        27
53.490        27
53.500         7
53.510        20
53.520         7
53.530        13
53.540        40
53.550         7
53.560        13
53.570        13
53.580        20
53.590         7
53.600         7
53.610        47
53.620         7
53.630        27
53.640        20
53.650        33
53.660        27
53.670        33
53.680        40
53.690        20
53.700        13
53.710        33
53.720        20
53.730         7
53.740         7
53.750        13
53.760        27
53.770         7
53.780         7
53.790        27
53.800        13
53.810         7
53.820         7
53.830         7
53.840        27
53.850        13
53.860         7
53.870         0
53.880        13
53.890        13
53.900         7
53.910        13
53.920        13
53.930        13
53.940        20
53.950        27
53.960        53
53.970         0
53.980        13
53.990        20
54.000        13
54.010        20
54.020         0
54.030        13
54.040        20
54.050        27
54.060        33
54.070        33
54.080        20
54.090        13
54.100         7
54.110        33
54.120        27
54.130        20
54.140        13
54.150        27
54.160        20
54.170        27
54.180        47
54.190        13
54.200        33
54.210        53
54.220        53
54.230         7
54.240         7
54.250        13
54.260         7
54.270        20
54.280         7
54.290        33
54.300        20
54.310        33
54.320        33
54.330        13
54.340        27
54.350        20
54.360        33
54.370         7
54.380         7
54.390        33
54.400        33
54.410       127
54.420        27
54.430         7
54.440        27
54.450        13
54.460         0
54.470        13
54.480        33
54.490        20
54.500         0
54.510        20
54.520        20
54.530        20
54.540        13
54.550         7
54.560         0
54.570        13
54.580        47
54.590         7
54.600        20
54.610        53
54.620        13
54.630        33
54.640        27
54.650        33
54.660         7
54.670        33
54.680        20
54.690        13
54.700        33
54.710        13
54.720        27
54.730         7
54.740        53
54.750        20
54.760        13
54.770        27
54.780        33
54.790        33
54.800        47
54.810        20
54.820        20
54.830        20
54.840        20
54.850        40
54.860        27
54.870        27
54.880        27
54.890        33
54.900        27
54.910         7
54.920        20
54.930        47
54.940        53
54.950        33
54.960        80
54.970        20
54.980        33
54.990        33
55.000        33
55.010        73
55.020        87
55.030        67
55.040        87
55.050        40
55.060        40
55.070        80
55.080        87
55.090        93
55.100        80
55.110        87
55.120        47
55.130        53
55.140        60
55.150        27
55.160        60
55.170        53
55.180        67
55.190        47
55.200        67
55.210        73
55.220        60
55.230        40
55.240        47
55.250        40
55.260        67
55.270        40
55.280        27
55.290        33
55.300        27
55.310        20
55.320        40
55.330        40
55.340        33
55.350         0
55.360        27
55.370         7
55.380         7
55.390        20
55.400        33
55.410        13
55.420        27
55.430        20
55.440        47
55.450        27
55.460        20
55.470        33
55.480         0
55.490        47
55.500        20
55.510        27
55.520        27
55.530        27
55.540        33
55.550        20
55.560        20
55.570        40
55.580         7
55.590        13
55.600         7
55.610         7
55.620        13
55.630        33
55.640        13
55.650        53
55.660        13
55.670        47
55.680         7
55.690        13
55.700         7
55.710        27
55.720        13
55.730        47
55.740        27
55.750        27
55.760        27
55.770        27
55.780        20
55.790        13
55.800        20
55.810        13
55.820        13
55.830        13
55.840         7
55.850        13
55.860         7
55.870        20
55.880         7
55.890         7
55.900         7
55.910        20
55.920        20
55.930        27
55.940        27
55.950        20
55.960         7
55.970        33
55.980         0
55.990         7
56.000        13
56.010         7
56.020        13
56.030        13
56.040        13
56.050        20
56.060        27
56.070        13
56.080        20
56.090         7
56.100        27
56.110         0
56.120        13
56.130        13
56.140        27
56.150        13
56.160        33
56.170         7
56.180        20
56.190         7
56.200        13
56.210        20
56.220        33
56.230         7
56.240        13
56.250         7
56.260        27
56.270         7
56.280        13
56.290         7
56.300         7
56.310        13
56.320        33
56.330        53
56.340        20
56.350        13
56.360        13
56.370        20
56.380        20
56.390        13
56.400         7
56.410         7
56.420        13
56.430        33
56.440         7
56.450        13
56.460         7
56.470        33
56.480         7
56.490        13
56.500        20
56.510         7
56.520        13
56.530        20
56.540         0
56.550        27
56.560        13
56.570        20
56.580        13
56.590        20
56.600         7
56.610        13
56.620        20
56.630        33
56.640        13
56.650        13
56.660        20
56.670        13
56.680        27
56.690        13
56.700        13
56.710         0
56.720        33
56.730        40
56.740         7
56.750        13
56.760         7
56.770        33
56.780        13
56.790        27
56.800         7
56.810        47
56.820        13
56.830        27
56.840        20
56.850        20
56.860         7
56.870        20
56.880        13
56.890        27
56.900         7
56.910         7
56.920        27
56.930        13
56.940        20
56.950        20
56.960         7
56.970        20
56.980        27
56.990        47
57.000         7
57.010        20
57.020         0
57.030        33
57.040        20
57.050         0
57.060         7
57.070        20
57.080         7
57.090        13
57.100        13
57.110        13
57.120        33
57.130        13
57.140        13
57.150        47
57.160        40
57.170        13
57.180        40
57.190        33
57.200        27
57.210        20
57.220         7
57.230        20
57.240        27
57.250        13
57.260         7
57.270        47
57.280        20
57.290        20
57.300        40
57.310        20
57.320         7
57.330        13
57.340         7
57.350        13
57.360        13
57.370        13
57.380        20
57.390        20
57.400        13
57.410        20
57.420        47
57.430         7
57.440        27
57.450        33
57.460        13
57.470        20
57.480        20
57.490        27
57.500        33
57.510        20
57.520        13
57.530        40
57.540        33
57.550        47
57.560        53
57.570        53
57.580        20
57.590        13
57.600        33
57.610        27
57.620        27
57.630        13
57.640        33
57.650        13
57.660        13
57.670        20
57.680        40
57.690        27
57.700         7
57.710        13
57.720         7
57.730        27
57.740        47
57.750        27
57.760        33
57.770        47
57.780         7
57.790         0
57.800        33
57.810        27
57.820         0
57.830        13
57.840         7
57.850         7
57.860        20
57.870         7
57.880        20
57.890        27
57.900        13
57.910        27
57.920         7
57.930        13
57.940        13
57.950        13
57.960        13
57.970         7
57.980        27
57.990        13
58.000        20
58.010         7
58.020        27
58.030        27
58.040         0
58.050         7
58.060         7
58.070         7
58.080         0
58.090        13
58.100        40
58.110        27
58.120        33
58.130        27
58.140        20
58.150         7
58.160        27
58.170         7
58.180         0
58.190        20
58.200        20
58.210        13
58.220        20
58.230        13
58.240        27
58.250        47
58.260         0
58.270         7
58.280        27
58.290         7
58.300         0
58.310         0
58.320        13
58.330         7
58.340        13
58.350         0
58.360         0
58.370        13
58.380        13
58.390        13
58.400        13
58.410         0
58.420        13
58.430        13
58.440        13
58.450         0
58.460        40
58.470        13
58.480         7
58.490         0
58.500        20
58.510         0
58.520        13
58.530         7
58.540        13
58.550         0
58.560         7
58.570        13
58.580        13
58.590        13
58.600        33
58.610         7
58.620        20
58.630        33
58.640        20
58.650         0
58.660        13
58.670        13
58.680        13
58.690        13
58.700        20
58.710        27
58.720        27
58.730        33
58.740        13
58.750        20
58.760        20
58.770        20
58.780        13
58.790        20
58.800        13
58.810         7
58.820        13
58.830        20
58.840        27
58.850         7
58.860        20
58.870        13
58.880         7
58.890         7
58.900        20
58.910        13
58.920         7
58.930        13
58.940        13
58.950         7
58.960        13
58.970        13
58.980        20
58.990         7
59.000        33
59.010         0
59.020         7
59.030        13
59.040        20
59.050        13
59.060         7
59.070        20
59.080         7
59.090        13
59.100        13
59.110        27
59.120        20
59.130        13
59.140         0
59.150        20
59.160         7
59.170         0
59.180        27
59.190        20
59.200        20
59.210         7
59.220        27
59.230        20
59.240        27
59.250        13
59.260         0
59.270        20
59.280         7
59.290         7
59.300        33
59.310        13
59.320        13
59.330         7
59.340         7
59.350         7
59.360        13
59.370         7
59.380         7
59.390        13
59.400        33
59.410         0
59.420         0
59.430        27
59.440         7
59.450        53
59.460        20
59.470         7
59.480        33
59.490        20
59.500         7
59.510         7
59.520         7
59.530        20
59.540         0
59.550        13
59.560         7
59.570        13
59.580        33
59.590         7
59.600        33
59.610         7
59.620         0
59.630         7
59.640        13
59.650         7
59.660         7
59.670        20
59.680        13
59.690        27
59.700         0
59.710        33
59.720        20
59.730        33
59.740        13
59.750        13
59.760        13
59.770         0
59.780        33
59.790         7
59.800         0
59.810        33
59.820        27
59.830        13
59.840         7
59.850        27
59.860         0
59.870        33
59.880        13
59.890         7
59.900        13
59.910         7
59.920         7
59.930        13
59.940        13
59.950        13
59.960        13
59.970        20
59.980         0
59.990        13
60.000        13
