20.000        60
20.010        67
20.020        60
20.030        67
20.040        60
20.050        47
20.060        53
20.070        40
20.080        40
20.090        60
20.100        40
20.110        40
20.120        33
20.130        60
20.140        13
20.150        53
20.160        60
20.170        33
20.180        53
20.190        60
20.200        33
20.210        40
20.220        40
20.230        40
20.240        33
20.250        67
20.260        67
20.270        60
20.280        60
20.290        47
20.300        60
20.310        60
20.320        47
20.330        80
20.340       100
20.350        60
20.360        53
20.370        60
20.380        67
20.390        40
20.400        67
20.410        47
20.420        60
20.430        53
20.440        53
20.450        73
20.460        27
20.470        67
20.480        67
20.490        53
20.500        27
20.510        87
20.520        40
20.530        47
20.540        73
20.550        33
20.560        67
20.570        40
20.580        40
20.590        87
20.600        60
20.610        53
20.620        40
20.630        27
20.640        53
20.650        67
20.660        67
20.670        67
20.680        47
20.690        47
20.700        80
20.710        13
20.720        40
20.730        27
20.740        80
20.750        67
20.760        33
20.770        47
20.780        60
20.790        40
20.800        53
20.810        40
20.820        67
20.830        60
20.840        73
20.850        47
20.860        80
20.870        33
20.880        47
20.890        40
20.900        80
20.910        40
20.920        80
20.930        67
20.940        80
20.950        33
20.960        67
20.970        53
20.980        87
20.990        47
21.000        60
21.010        60
21.020        47
21.030        53
21.040        47
21.050        47
21.060        53
21.070        60
21.080        53
21.090        73
21.100        47
21.110        40
21.120        40
21.130        33
21.140        47
21.150        27
21.160        60
21.170        47
21.180        27
21.190        60
21.200        40
21.210        47
21.220        33
21.230        67
21.240        47
21.250        33
21.260        47
21.270        53
21.280        33
21.290        73
21.300        13
21.310        60
21.320        53
21.330        47
21.340        53
21.350        53
21.360        27
21.370        53
21.380        47
21.390        53
21.400        93
21.410        53
21.420        60
21.430        53
21.440        47
21.450        60
21.460        80
21.470        93
21.480        40
21.490        47
21.500        53
21.510        53
21.520        47
21.530        40
21.540        93
21.550        73
21.560        80
21.570        33
21.580        47
21.590        53
21.600        27
21.610        40
21.620        47
21.630        47
21.640        60
21.650        33
21.660        40
21.670        93
21.680        67
21.690        47
21.700        60
21.710        53
21.720        93
21.730        53
21.740        73
21.750        60
21.760        33
21.770        47
21.780        73
21.790        40
21.800        67
21.810        33
21.820        40
21.830        27
21.840        33
21.850        53
21.860        73
21.870        40
21.880        53
21.890        73
21.900        47
21.910        40
21.920        60
21.930        33
21.940        53
21.950        87
21.960        60
21.970        40
21.980        20
21.990        60
22.000        47
22.010        73
22.020        33
22.030        40
22.040        73
22.050        40
22.060       107
22.070        47
22.080        87
22.090        93
22.100        53
22.110        80
22.120        93
22.130       100
22.140        67
22.150        60
22.160        73
22.170        40
22.180        87
22.190        93
22.200        67
22.210       100
22.220        80
22.230        67
22.240        80
22.250       120
22.260       120
22.270        73
22.280       120
22.290        93
22.300       107
22.310       133
22.320       133
22.330       107
22.340       167
22.350       107
22.360       153
22.370       193
22.380       127
22.390       227
22.400       227
22.410       160
22.420       167
22.430       227
22.440       253
22.450       227
22.460       347
22.470       320
22.480       320
22.490       313
22.500       446
22.510       413
22.520       400
22.530       480
22.540       533
22.550       580
22.560       706
22.570       593
22.580       473
22.590       760
22.600       666
22.610       660
22.620       826
22.630       740
22.640       706
22.650       733
22.660       840
22.670       740
22.680       786
22.690       673
22.700       853
22.710       780
22.720       686
22.730       726
22.740       666
22.750       606
22.760       466
22.770       506
22.780       420
22.790       500
22.800       287
22.810       307
22.820       333
22.830       253
22.840       280
22.850       267
22.860       167
22.870       220
22.880       220
22.890       200
22.900       173
22.910       113
22.920       173
22.930       147
22.940       140
22.950       147
22.960       147
22.970       113
22.980        93
22.990        87
23.000       120
23.010       133
23.020       107
23.030       100
23.040       100
23.050       113
23.060        87
23.070       100
23.080       113
23.090       140
23.100       113
23.110        73
23.120        53
23.130        93
23.140       120
23.150        53
23.160       107
23.170       100
23.180       113
23.190        73
23.200       100
23.210        60
23.220        67
23.230        53
23.240       113
23.250        80
23.260        73
23.270       107
23.280        47
23.290       100
23.300        87
23.310        93
23.320        87
23.330        73
23.340       100
23.350        93
23.360        40
23.370       100
23.380        93
23.390        73
23.400        67
23.410        93
23.420        67
23.430        47
23.440        47
23.450        80
23.460        53
23.470        80
23.480        73
23.490        73
23.500        40
23.510        40
23.520        47
23.530        53
23.540       100
23.550        67
23.560        60
23.570        67
23.580        60
23.590        53
23.600        93
23.610       120
23.620        67
23.630        87
23.640        53
23.650        53
23.660        40
23.670       100
23.680        60
23.690        33
23.700        60
23.710        87
23.720        33
23.730        93
23.740        47
23.750        67
23.760        67
23.770        13
23.780        67
23.790        47
23.800        47
23.810        60
23.820        73
23.830        80
23.840        47
23.850        87
23.860        33
23.870        60
23.880        20
23.890        80
23.900        47
23.910        33
23.920        93
23.930       100
23.940        87
23.950        93
23.960        73
23.970        60
23.980        73
23.990        60
24.000        87
24.010        73
24.020        47
24.030        60
24.040        47
24.050        47
24.060        87
24.070        73
24.080        47
24.090       100
24.100        60
24.110        60
24.120        67
24.130        40
24.140        60
24.150        60
24.160        40
24.170        47
24.180        60
24.190        60
24.200        80
24.210        47
24.220        47
24.230        60
24.240        67
24.250       100
24.260        33
24.270        60
24.280        73
24.290        60
24.300        80
24.310        67
24.320        47
24.330        33
24.340        33
24.350        60
24.360        67
24.370        27
24.380        47
24.390        47
24.400        73
24.410       127
24.420        93
24.430        80
24.440       100
24.450        60
24.460       107
24.470        67
24.480        80
24.490        33
24.500        60
24.510       107
24.520        47
24.530        33
24.540        60
24.550        87
24.560        20
24.570        47
24.580        40
24.590        73
24.600       100
24.610        93
24.620        40
24.630       133
24.640        73
24.650        73
24.660        47
24.670        47
24.680        53
24.690        73
24.700        67
24.710        67
24.720        60
24.730        67
24.740        47
24.750        67
24.760        80
24.770        67
24.780        27
24.790        80
24.800       113
24.810        53
24.820        87
24.830        53
24.840        87
24.850        40
24.860        33
24.870        40
24.880        67
24.890        27
24.900        47
24.910        40
24.920        47
24.930        80
24.940        47
24.950        27
24.960        20
24.970        73
24.980        67
24.990        73
25.000        40
25.010        40
25.020        47
25.030        40
25.040        40
25.050        47
25.060        67
25.070        40
25.080        47
25.090        20
25.100        60
25.110        27
25.120        53
25.130        33
25.140        60
25.150        60
25.160        60
25.170        40
25.180        60
25.190        60
25.200        73
25.210        47
25.220        27
25.230        47
25.240        47
25.250       107
25.260        47
25.270        80
25.280        33
25.290        93
25.300        47
25.310        33
25.320        67
25.330        60
25.340        47
25.350        93
25.360        53
25.370        53
25.380        60
25.390        87
25.400        73
25.410        67
25.420        47
25.430        73
25.440        47
25.450        60
25.460        93
25.470       113
25.480       167
25.490       153
25.500        93
25.510       113
25.520       167
25.530       113
25.540       140
25.550       173
25.560       107
25.570       127
25.580       100
25.590        93
25.600       153
25.610        67
25.620       100
25.630        73
25.640       100
25.650        80
25.660        60
25.670        40
25.680        87
25.690        73
25.700        60
25.710        20
25.720       127
25.730        33
25.740        53
25.750        67
25.760        53
25.770        60
25.780        33
25.790        73
25.800        40
25.810        40
25.820        67
25.830        80
25.840        13
25.850        47
25.860        33
25.870        80
25.880        40
25.890        53
25.900        60
25.910        47
25.920        40
25.930        40
25.940        40
25.950        93
25.960        60
25.970        47
25.980        73
25.990        53
26.000        47
26.010        67
26.020        20
26.030        33
26.040        47
26.050        73
26.060        73
26.070        60
26.080        27
26.090        47
26.100        40
26.110       107
26.120        73
26.130        53
26.140        20
26.150        53
26.160        80
26.170        20
26.180        47
26.190        27
26.200        40
26.210        53
26.220        33
26.230        33
26.240        60
26.250        40
26.260        73
26.270        40
26.280        80
26.290        60
26.300        47
26.310        93
26.320        47
26.330        40
26.340        40
26.350        73
26.360        60
26.370        60
26.380        53
26.390        27
26.400        27
26.410        73
26.420        60
26.430        27
26.440        20
26.450        87
26.460        80
26.470        47
26.480        53
26.490        80
26.500        67
26.510        47
26.520        80
26.530        53
26.540        27
26.550        67
26.560        60
26.570        53
26.580        40
26.590        53
26.600        40
26.610        33
26.620        33
26.630        73
26.640        47
26.650        53
26.660        33
26.670        73
26.680        27
26.690        53
26.700        73
26.710        93
26.720        53
26.730        53
26.740        40
26.750        40
26.760        33
26.770        67
26.780        33
26.790        53
26.800        40
26.810        73
26.820        73
26.830        73
26.840        40
26.850        67
26.860       107
26.870        60
26.880        87
26.890        60
26.900        27
26.910       107
26.920        27
26.930        40
26.940        67
26.950        60
26.960        73
26.970        60
26.980        27
26.990        60
27.000        47
27.010        53
27.020        33
27.030        80
27.040        27
27.050        33
27.060        20
27.070        73
27.080        60
27.090        47
27.100        40
27.110        67
27.120        40
27.130        27
27.140        53
27.150        60
27.160        33
27.170        80
27.180        47
27.190        67
27.200        47
27.210        47
27.220        47
27.230        73
27.240        40
27.250        47
27.260        47
27.270        20
27.280        20
27.290         7
27.300        20
27.310        40
27.320        33
27.330        27
27.340        33
27.350        27
27.360        33
27.370        27
27.380        27
27.390        20
27.400        73
27.410        67
27.420        40
27.430        20
27.440        27
27.450        33
27.460        13
27.470        20
27.480        33
27.490        67
27.500        67
27.510        67
27.520        40
27.530        53
27.540        60
27.550        67
27.560        40
27.570        33
27.580        60
27.590        40
27.600        40
27.610        40
27.620        67
27.630        13
27.640        47
27.650        53
27.660        27
27.670        47
27.680        47
27.690        40
27.700        53
27.710        20
27.720        20
27.730        40
27.740        60
27.750        27
27.760        13
27.770        67
27.780        93
27.790        33
27.800        33
27.810        33
27.820        13
27.830        27
27.840        40
27.850        40
27.860        60
27.870        40
27.880        73
27.890        53
27.900        53
27.910        40
27.920        60
27.930        40
27.940        27
27.950        33
27.960        40
27.970        93
27.980        47
27.990        67
28.000        47
28.010         7
28.020        13
28.030        33
28.040        27
28.050        40
28.060        53
28.070        20
28.080        33
28.090        60
28.100        47
28.110        33
28.120        53
28.130        33
28.140        47
28.150        27
28.160        47
28.170        33
28.180        20
28.190        53
28.200        40
28.210        27
28.220        33
28.230        53
28.240        40
28.250        73
28.260        47
28.270        27
28.280        47
28.290        33
28.300        27
28.310        20
28.320        40
28.330        93
28.340        47
28.350        33
28.360        27
28.370        27
28.380        67
28.390        47
28.400        13
28.410        73
28.420        27
28.430        33
28.440        40
28.450        47
28.460        33
28.470        47
28.480        40
28.490        27
28.500        47
28.510        33
28.520        40
28.530        67
28.540        33
28.550        27
28.560        40
28.570        27
28.580        27
28.590        60
28.600        53
28.610        33
28.620        53
28.630        53
28.640        53
28.650        53
28.660        33
28.670        40
28.680        47
28.690        60
28.700        27
28.710       107
28.720        60
28.730        67
28.740        40
28.750        33
28.760        27
28.770        33
28.780        53
28.790        40
28.800        33
28.810        47
28.820        40
28.830        53
28.840        33
28.850        20
28.860        40
28.870        53
28.880        53
28.890        80
28.900        27
28.910        20
28.920        60
28.930        47
28.940        53
28.950        47
28.960        27
28.970        53
28.980        53
28.990        40
29.000        47
29.010        47
29.020        33
29.030        40
29.040        47
29.050        40
29.060        53
29.070        67
29.080        93
29.090        40
29.100        47
29.110        20
29.120        53
29.130        40
29.140        60
29.150        53
29.160        27
29.170        33
29.180        20
29.190        60
29.200        47
29.210        47
29.220        33
29.230        80
29.240        27
29.250        40
29.260        20
29.270        47
29.280        20
29.290        40
29.300        47
29.310        33
29.320        33
29.330        80
29.340        27
29.350        47
29.360        27
29.370        13
29.380        47
29.390        33
29.400        47
29.410        47
29.420        27
29.430        47
29.440        33
29.450        80
29.460        33
29.470        47
29.480        47
29.490        53
29.500         7
29.510        33
29.520        60
29.530        20
29.540        47
29.550        60
29.560        40
29.570        73
29.580        40
29.590        40
29.600        27
29.610        47
29.620        20
29.630        87
29.640        20
29.650        33
29.660        20
29.670        53
29.680        60
29.690        40
29.700        53
29.710        40
29.720        20
29.730        53
29.740        33
29.750        53
29.760        73
29.770        73
29.780        47
29.790        27
29.800        47
29.810        27
29.820        60
29.830        53
29.840         7
29.850        47
29.860        27
29.870        20
29.880        40
29.890        67
29.900        53
29.910        47
29.920        40
29.930        67
29.940        33
29.950        60
29.960        53
29.970        27
29.980        40
29.990        60
30.000        13
30.010        40
30.020        40
30.030        40
30.040        60
30.050        53
30.060        27
30.070        40
30.080        33
30.090        60
30.100        20
30.110        47
30.120        27
30.130        33
30.140        40
30.150        47
30.160        33
30.170        53
30.180        67
30.190        40
30.200        67
30.210        27
30.220        33
30.230        40
30.240        33
30.250        40
30.260        53
30.270        33
30.280        53
30.290        13
30.300        33
30.310        40
30.320        27
30.330        27
30.340        47
30.350        20
30.360        47
30.370        53
30.380        40
30.390        53
30.400        13
30.410        60
30.420        13
30.430        40
30.440        13
30.450        27
30.460        33
30.470        20
30.480        47
30.490        53
30.500        33
30.510        33
30.520        27
30.530        40
30.540        33
30.550        27
30.560        40
30.570        40
30.580        80
30.590        13
30.600        27
30.610        20
30.620        53
30.630        47
30.640        73
30.650        47
30.660        33
30.670        33
30.680        27
30.690        60
30.700        20
30.710        47
30.720        20
30.730        20
30.740        40
30.750        33
30.760        53
30.770        13
30.780        33
30.790        33
30.800        27
30.810        13
30.820        27
30.830        60
30.840        27
30.850        27
30.860        53
30.870        47
30.880        20
30.890        27
30.900        13
30.910        40
30.920        20
30.930        27
30.940        20
30.950        33
30.960        60
30.970        53
30.980        73
30.990        33
31.000        40
31.010        20
31.020        33
31.030        40
31.040        47
31.050        27
31.060        40
31.070        47
31.080        47
31.090        20
31.100        33
31.110        27
31.120        73
31.130        40
31.140        13
31.150        27
31.160        60
31.170        40
31.180        47
31.190        40
31.200        13
31.210        33
31.220        33
31.230        53
31.240        60
31.250        47
31.260        67
31.270        13
31.280        40
31.290        27
31.300        47
31.310        40
31.320        27
31.330        53
31.340        20
31.350        33
31.360        53
31.370        40
31.380        27
31.390        33
31.400        33
31.410        33
31.420        40
31.430        13
31.440        33
31.450        60
31.460        20
31.470        40
31.480        40
31.490        40
31.500        40
31.510        27
31.520        33
31.530        40
31.540        47
31.550        33
31.560        47
31.570        20
31.580        47
31.590        27
31.600        13
31.610        27
31.620        53
31.630        60
31.640        20
31.650        33
31.660        60
31.670        73
31.680        20
31.690        40
31.700        27
31.710        53
31.720        60
31.730        53
31.740        20
31.750        47
31.760        53
31.770        40
31.780        13
31.790        13
31.800        73
31.810        33
31.820        40
31.830        27
31.840        40
31.850        40
31.860        33
31.870        27
31.880        20
31.890        27
31.900        67
31.910        27
31.920        53
31.930        60
31.940        40
31.950        67
31.960        73
31.970        67
31.980        60
31.990        40
32.000        33
32.010        40
32.020        67
32.030        40
32.040        80
32.050        67
32.060        73
32.070        47
32.080        87
32.090        40
32.100       120
32.110       100
32.120        93
32.130        40
32.140       127
32.150       107
32.160       107
32.170        87
32.180        93
32.190       160
32.200       120
32.210       180
32.220       120
32.230       167
32.240       233
32.250       153
32.260       120
32.270       213
32.280       200
32.290       187
32.300       173
32.310       187
32.320       240
32.330       227
32.340       180
32.350       233
32.360       200
32.370       187
32.380       193
32.390       253
32.400       193
32.410       193
32.420       273
32.430       120
32.440       167
32.450       140
32.460       153
32.470       133
32.480       160
32.490       153
32.500       180
32.510       167
32.520       120
32.530       153
32.540       113
32.550        73
32.560       120
32.570       107
32.580        87
32.590        60
32.600        40
32.610        47
32.620        60
32.630        53
32.640        93
32.650        27
32.660        47
32.670        40
32.680        73
32.690        53
32.700        67
32.710        27
32.720        40
32.730        20
32.740        60
32.750        67
32.760        40
32.770        40
32.780        33
32.790        60
32.800        40
32.810        47
32.820        40
32.830        40
32.840        67
32.850        33
32.860        60
32.870        47
32.880        67
32.890        47
32.900        27
32.910        20
32.920        47
32.930        27
32.940        13
32.950        53
32.960        53
32.970        47
32.980        33
32.990        27
33.000        40
33.010        47
33.020        40
33.030        13
33.040        27
33.050        47
33.060        27
33.070        20
33.080        33
33.090        53
33.100        33
33.110        20
33.120        20
33.130        47
33.140        20
33.150        60
33.160        40
33.170        20
33.180        20
33.190        20
33.200        47
33.210        33
33.220        20
33.230        13
33.240        53
33.250        27
33.260        40
33.270        27
33.280        33
33.290        60
33.300        20
33.310        33
33.320        27
33.330        33
33.340        27
33.350        40
33.360        33
33.370         7
33.380        20
33.390        33
33.400        20
33.410        27
33.420        20
33.430        40
33.440        47
33.450        40
33.460        47
33.470        27
33.480         7
33.490        27
33.500        13
33.510        13
33.520        33
33.530        33
33.540        40
33.550        33
33.560        27
33.570        20
33.580        33
33.590        27
33.600        27
33.610        40
33.620        33
33.630        13
33.640        40
33.650        87
33.660        33
33.670        33
33.680        47
33.690        33
33.700        20
33.710        33
33.720        33
33.730        40
33.740        27
33.750        20
33.760        33
33.770        33
33.780        20
33.790        60
33.800        27
33.810        13
33.820        27
33.830        20
33.840        20
33.850        40
33.860        53
33.870        40
33.880        33
33.890        13
33.900        33
33.910        13
33.920        27
33.930        47
33.940        20
33.950        47
33.960        20
33.970        47
33.980        20
33.990        47
34.000        27
34.010         7
34.020        20
34.030        27
34.040        33
34.050        13
34.060        20
34.070        33
34.080        20
34.090        20
34.100        20
34.110        27
34.120        20
34.130        13
34.140        40
34.150        13
34.160        20
34.170        60
34.180        33
34.190        27
34.200        40
34.210        20
34.220        53
34.230        20
34.240        27
34.250        20
34.260         7
34.270        20
34.280        53
34.290        33
34.300         7
34.310        47
34.320        40
34.330        27
34.340        33
34.350        27
34.360        33
34.370        13
34.380        13
34.390        20
34.400        80
34.410        13
34.420        27
34.430         7
34.440        20
34.450        20
34.460        40
34.470        40
34.480        33
34.490        20
34.500        40
34.510        33
34.520        33
34.530        40
34.540        33
34.550        27
34.560        13
34.570        27
34.580        33
34.590        20
34.600        20
34.610        53
34.620        20
34.630        20
34.640        20
34.650        40
34.660        13
34.670        27
34.680        33
34.690        27
34.700        20
34.710        27
34.720        20
34.730        13
34.740        53
34.750        53
34.760        13
34.770        33
34.780        13
34.790        27
34.800        33
34.810        33
34.820        27
34.830        13
34.840        13
34.850        27
34.860        20
34.870        33
34.880        27
34.890        27
34.900        40
34.910        33
34.920        53
34.930         7
34.940        13
34.950         7
34.960        40
34.970         7
34.980        33
34.990        40
35.000        20
35.010         7
35.020        40
35.030        33
35.040         0
35.050        20
35.060        20
35.070        40
35.080        20
35.090        47
35.100        20
35.110        27
35.120        20
35.130        20
35.140        20
35.150        40
35.160        13
35.170        33
35.180        53
35.190        20
35.200        20
35.210        33
35.220        20
35.230        20
35.240        13
35.250        40
35.260        20
35.270        27
35.280         7
35.290        40
35.300        20
35.310        47
35.320        40
35.330        47
35.340        33
35.350         7
35.360        27
35.370        20
35.380        27
35.390        40
35.400        20
35.410        20
35.420        27
35.430        40
35.440        20
35.450        33
35.460        40
35.470        20
35.480        40
35.490        13
35.500        33
35.510        53
35.520        47
35.530        33
35.540        27
35.550        47
35.560        53
35.570         7
35.580        33
35.590        40
35.600        60
35.610        27
35.620        20
35.630         7
35.640        47
35.650        20
35.660        20
35.670        73
35.680        27
35.690        40
35.700        40
35.710         7
35.720        53
35.730        20
35.740        13
35.750        27
35.760         0
35.770         0
35.780        67
35.790        20
35.800        13
35.810        27
35.820        27
35.830        27
35.840        20
35.850        40
35.860        13
35.870        40
35.880        33
35.890        27
35.900         7
35.910        27
35.920        13
35.930        20
35.940        27
35.950        20
35.960        40
35.970         7
35.980        53
35.990        33
36.000        33
36.010        13
36.020        13
36.030        33
36.040         7
36.050        13
36.060        27
36.070        33
36.080        20
36.090        33
36.100        13
36.110        13
36.120        13
36.130        20
36.140        40
36.150         7
36.160        40
36.170        40
36.180        13
36.190        60
36.200        20
36.210        53
36.220        20
36.230        27
36.240        47
36.250        20
36.260        13
36.270        27
36.280        33
36.290         7
36.300        13
36.310        27
36.320         7
36.330        27
36.340        27
36.350        47
36.360        47
36.370        27
36.380         7
36.390        13
36.400        20
36.410        20
36.420        20
36.430        40
36.440        47
36.450        13
36.460        20
36.470        33
36.480        13
36.490        27
36.500        27
36.510        20
36.520         7
36.530        27
36.540        20
36.550        13
36.560        27
36.570         7
36.580        53
36.590        33
36.600         7
36.610        33
36.620        40
36.630        47
36.640        20
36.650        33
36.660        13
36.670        13
36.680        13
36.690        27
36.700        33
36.710        27
36.720        27
36.730         7
36.740        20
36.750        20
36.760        13
36.770        53
36.780        53
36.790        27
36.800        20
36.810        40
36.820         7
36.830        20
36.840        33
36.850        47
36.860        27
36.870        20
36.880        20
36.890        27
36.900        13
36.910        13
36.920        20
36.930        53
36.940        13
36.950        27
36.960        13
36.970        33
36.980        27
36.990        13
37.000        33
37.010        33
37.020        60
37.030        13
37.040        40
37.050        27
37.060        27
37.070        13
37.080        33
37.090        53
37.100         0
37.110        60
37.120        27
37.130         7
37.140         0
37.150        27
37.160        13
37.170        27
37.180        20
37.190        33
37.200        13
37.210        13
37.220        33
37.230        20
37.240        27
37.250        13
37.260        13
37.270        53
37.280        33
37.290         7
37.300        67
37.310        33
37.320        13
37.330        20
37.340         7
37.350        20
37.360        33
37.370         7
37.380        13
37.390        33
37.400        27
37.410         7
37.420        20
37.430         7
37.440        13
37.450        40
37.460        20
37.470        13
37.480        13
37.490        20
37.500        20
37.510        27
37.520        20
37.530        47
37.540        13
37.550        20
37.560        13
37.570        47
37.580        27
37.590         7
37.600        13
37.610        27
37.620        33
37.630        20
37.640        47
37.650        47
37.660        33
37.670         7
37.680        20
37.690        53
37.700         7
37.710        33
37.720        33
37.730        13
37.740        47
37.750        53
37.760        40
37.770        47
37.780         7
37.790        33
37.800        27
37.810        33
37.820        27
37.830        33
37.840         7
37.850         7
37.860        20
37.870        33
37.880        20
37.890        13
37.900        27
37.910        27
37.920        53
37.930        33
37.940        13
37.950        73
37.960         0
37.970        80
37.980        27
37.990        13
38.000        20
38.010        33
38.020         7
38.030        53
38.040         0
38.050        33
38.060        20
38.070        40
38.080        20
38.090         7
38.100        47
38.110        27
38.120        13
38.130        20
38.140        53
38.150        33
38.160        40
38.170         7
38.180        33
38.190        13
38.200        20
38.210        33
38.220        47
38.230        13
38.240        20
38.250        13
38.260        20
38.270         7
38.280        20
38.290        33
38.300        20
38.310        13
38.320        20
38.330        20
38.340        20
38.350        47
38.360        33
38.370        47
38.380        20
38.390         7
38.400         7
38.410         7
38.420        40
38.430        13
38.440        20
38.450         7
38.460        60
38.470        27
38.480        27
38.490        67
38.500         0
38.510        20
38.520        20
38.530         7
38.540        27
38.550        20
38.560        40
38.570        13
38.580        33
38.590         7
38.600        40
38.610        27
38.620        20
38.630        27
38.640        27
38.650        33
38.660        27
38.670        33
38.680         0
38.690        13
38.700        40
38.710        33
38.720        13
38.730        33
38.740        33
38.750        33
38.760        33
38.770         7
38.780        53
38.790        53
38.800         7
38.810        20
38.820         7
38.830        20
38.840        27
38.850        27
38.860        13
38.870        27
38.880        20
38.890        13
38.900        33
38.910        27
38.920         0
38.930        20
38.940        27
38.950        20
38.960        20
38.970        20
38.980        27
38.990        27
39.000        40
39.010        13
39.020        13
39.030        13
39.040        13
39.050        13
39.060        13
39.070        13
39.080        20
39.090        33
39.100        20
39.110        20
39.120        27
39.130        33
39.140        27
39.150         7
39.160        13
39.170        33
39.180        27
39.190        33
39.200        20
39.210        27
39.220        20
39.230        13
39.240        20
39.250        13
39.260        20
39.270        33
39.280        20
39.290        47
39.300        20
39.310         7
39.320        33
39.330        33
39.340        20
39.350         7
39.360        20
39.370        20
39.380         7
39.390        13
39.400        20
39.410        27
39.420        33
39.430        60
39.440        40
39.450        47
39.460        27
39.470        13
39.480        33
39.490         0
39.500        20
39.510        20
39.520        27
39.530        40
39.540        13
39.550        33
39.560        27
39.570        20
39.580         7
39.590        27
39.600         7
39.610        13
39.620        20
39.630         7
39.640        33
39.650        27
39.660        60
39.670        33
39.680        53
39.690        40
39.700        33
39.710        47
39.720        53
39.730        33
39.740        27
39.750        40
39.760        47
39.770        60
39.780        33
39.790        47
39.800        53
39.810        27
39.820        27
39.830        40
39.840        53
39.850       100
39.860        53
39.870        60
39.880       107
39.890        67
39.900        93
39.910        93
39.920        53
39.930        87
39.940       127
39.950       100
39.960       127
39.970        93
39.980        93
39.990       100
40.000        73
40.010        87
40.020        80
40.030        67
40.040        73
40.050        67
40.060        80
40.070        67
40.080       107
40.090        47
40.100        67
40.110        80
40.120        80
40.130        60
40.140        33
40.150        53
40.160        53
40.170        33
40.180        20
40.190        33
40.200        40
40.210        47
40.220        27
40.230        20
40.240        87
40.250        53
40.260        40
40.270        27
40.280        53
40.290        40
40.300        27
40.310        33
40.320        33
40.330        47
40.340         0
40.350        20
40.360        33
40.370        60
40.380        27
40.390        33
40.400        20
40.410        40
40.420        13
40.430        20
40.440        20
40.450         7
40.460        60
40.470        27
40.480        27
40.490        20
40.500        20
40.510        20
40.520        33
40.530         7
40.540        20
40.550        27
40.560        13
40.570        20
40.580        40
40.590        33
40.600        13
40.610        27
40.620        27
40.630        13
40.640        20
40.650        47
40.660        20
40.670         7
40.680         7
40.690        27
40.700        13
40.710         7
40.720        33
40.730        27
40.740        20
40.750        27
40.760        40
40.770        27
40.780        20
40.790        13
40.800        47
40.810        40
40.820        33
40.830        27
40.840        13
40.850        20
40.860        13
40.870        60
40.880        13
40.890        27
40.900        33
40.910         7
40.920        33
40.930        20
40.940        20
40.950        27
40.960        40
40.970        13
40.980        27
40.990        13
41.000        20
41.010         0
41.020        33
41.030        13
41.040        27
41.050        20
41.060        27
41.070        53
41.080        13
41.090         7
41.100         7
41.110        27
41.120        27
41.130        33
41.140        53
41.150        20
41.160        13
41.170        60
41.180        33
41.190        13
41.200        53
41.210        27
41.220        27
41.230         0
41.240        20
41.250         7
41.260        40
41.270        33
41.280        13
41.290        13
41.300        13
41.310         7
41.320        53
41.330        27
41.340        27
41.350         7
41.360        53
41.370        27
41.380        13
41.390        33
41.400        13
41.410        27
41.420        13
41.430        47
41.440        40
41.450        53
41.460        73
41.470         7
41.480        33
41.490        20
41.500        40
41.510        33
41.520        20
41.530        20
41.540        60
41.550        33
41.560        20
41.570        47
41.580        47
41.590        53
41.600        33
41.610        20
41.620        53
41.630        33
41.640        33
41.650        47
41.660        27
41.670        60
41.680        60
41.690        33
41.700        93
41.710        80
41.720        80
41.730        60
41.740        27
41.750        93
41.760        47
41.770        53
41.780        47
41.790        53
41.800        80
41.810        87
41.820        33
41.830        60
41.840        33
41.850        60
41.860        33
41.870        67
41.880         7
41.890        33
41.900        33
41.910        27
41.920        20
41.930        47
41.940        33
41.950        27
41.960        40
41.970        33
41.980        40
41.990        20
42.000        33
42.010        47
42.020        13
42.030        27
42.040        67
42.050        33
42.060        33
42.070        33
42.080        53
42.090        47
42.100        13
42.110        47
42.120        40
42.130        27
42.140        27
42.150        27
42.160        20
42.170        27
42.180        33
42.190        53
42.200        40
42.210        33
42.220        27
42.230        40
42.240        60
42.250        27
42.260        27
42.270        33
42.280        13
42.290        67
42.300        27
42.310        13
42.320        13
42.330        33
42.340        40
42.350        33
42.360        27
42.370        47
42.380        13
42.390        40
42.400        20
42.410        27
42.420        20
42.430        20
42.440        13
42.450        40
42.460        47
42.470        40
42.480        20
42.490        33
42.500        33
42.510        47
42.520        20
42.530        27
42.540        33
42.550        13
42.560        13
42.570        40
42.580         7
42.590        20
42.600        20
42.610        33
42.620        27
42.630        40
42.640        27
42.650        47
42.660        13
42.670        53
42.680        13
42.690         0
42.700        27
42.710        13
42.720        20
42.730        27
42.740        33
42.750         7
42.760        20
42.770        13
42.780        33
42.790        20
42.800        13
42.810        13
42.820        40
42.830         7
42.840        13
42.850        13
42.860        20
42.870         7
42.880        27
42.890         0
42.900        47
42.910        27
42.920        13
42.930        20
42.940        13
42.950         7
42.960        13
42.970        20
42.980        27
42.990        13
43.000        13
43.010        27
43.020        47
43.030        27
43.040        53
43.050        60
43.060        67
43.070        33
43.080        20
43.090        53
43.100        20
43.110        20
43.120        13
43.130        40
43.140        40
43.150        40
43.160        33
43.170        13
43.180        13
43.190         7
43.200        33
43.210        20
43.220        33
43.230        27
43.240        73
43.250        13
43.260         0
43.270        13
43.280        20
43.290        33
43.300        20
43.310        13
43.320        33
43.330        40
43.340         7
43.350        20
43.360        33
43.370        20
43.380        47
43.390        33
43.400        47
43.410        27
43.420        47
43.430        33
43.440        13
43.450        27
43.460        60
43.470        27
43.480        13
43.490        27
43.500        27
43.510        27
43.520        33
43.530        47
43.540        13
43.550        20
43.560        27
43.570        27
43.580        40
43.590         7
43.600        27
43.610        33
43.620        20
43.630        27
43.640        33
43.650        27
43.660        20
43.670        40
43.680        27
43.690        13
43.700        33
43.710        20
43.720        33
43.730        13
43.740         7
43.750        20
43.760        13
43.770        13
43.780        20
43.790        40
43.800         7
43.810        53
43.820        20
43.830        33
43.840        27
43.850        47
43.860        53
43.870        47
43.880        13
43.890        40
43.900        40
43.910        40
43.920         7
43.930        20
43.940        33
43.950        40
43.960         7
43.970        33
43.980        33
43.990        27
44.000        40
44.010        33
44.020        40
44.030        13
44.040        20
44.050        60
44.060        27
44.070        13
44.080        27
44.090        47
44.100         7
44.110        40
44.120        33
44.130        27
44.140        47
44.150        27
44.160         7
44.170        33
44.180        33
44.190        13
44.200         7
44.210        40
44.220        20
44.230        60
44.240        33
44.250        40
44.260        33
44.270        20
44.280        40
44.290        27
44.300        20
44.310        27
44.320        33
44.330        53
44.340        40
44.350        47
44.360        73
44.370        47
44.380        27
44.390        60
44.400        20
44.410        33
44.420        60
44.430        33
44.440        27
44.450        40
44.460        53
44.470        20
44.480        33
44.490        60
44.500        40
44.510        47
44.520        33
44.530        27
44.540        47
44.550        73
44.560        67
44.570        80
44.580        60
44.590        53
44.600       100
44.610        60
44.620        27
44.630        67
44.640        73
44.650        80
44.660        73
44.670        60
44.680        53
44.690        53
44.700        87
44.710        27
44.720        47
44.730        47
44.740        73
44.750        87
44.760        60
44.770        87
44.780        93
44.790        87
44.800       107
44.810        60
44.820        73
44.830        87
44.840        80
44.850       100
44.860       140
44.870        67
44.880        60
44.890        93
44.900        73
44.910        60
44.920        87
44.930        80
44.940       100
44.950        87
44.960        67
44.970        53
44.980       113
44.990        87
45.000        73
45.010       100
45.020        60
45.030       120
45.040       113
45.050        67
45.060        67
45.070       113
45.080       107
45.090       140
45.100       127
45.110        53
45.120        87
45.130        67
45.140       147
45.150       107
45.160       100
45.170       133
45.180       133
45.190       160
45.200        80
45.210        87
45.220       113
45.230       120
45.240       120
45.250       107
45.260       153
45.270        73
45.280       140
45.290       187
45.300       140
45.310       100
45.320       100
45.330       167
45.340       127
45.350       153
45.360       120
45.370       167
45.380       113
45.390       127
45.400       173
45.410       260
45.420       127
45.430       180
45.440       207
45.450       167
45.460       213
45.470       167
45.480       200
45.490       213
45.500       200
45.510       180
45.520       227
45.530       273
45.540       193
45.550       187
45.560       207
45.570       260
45.580       220
45.590       193
45.600       247
45.610       200
45.620       253
45.630       260
45.640       307
45.650       327
45.660       247
45.670       287
45.680       287
45.690       273
45.700       313
45.710       327
45.720       420
45.730       387
45.740       413
45.750       407
45.760       407
45.770       387
45.780       460
45.790       480
45.800       560
45.810       553
45.820       546
45.830       540
45.840       593
45.850       600
45.860       653
45.870       660
45.880       753
45.890       740
45.900       793
45.910       720
45.920       706
45.930       920
45.940       766
45.950      1120
45.960       866
45.970      1166
45.980      1146
45.990      1279
46.000      1319
46.010      1226
46.020      1566
46.030      1446
46.040      1659
46.050      1726
46.060      1799
46.070      1953
46.080      2059
46.090      2226
46.100      2186
46.110      2206
46.120      2286
46.130      2346
46.140      2466
46.150      2432
46.160      2712
46.170      3025
46.180      3165
46.190      3332
46.200      3245
46.210      3632
46.220      3732
46.230      3499
46.240      3858
46.250      4072
46.260      3818
46.270      4018
46.280      4198
46.290      4218
46.300      4472
46.310      4245
46.320      4611
46.330      4798
46.340      4598
46.350      4758
46.360      4845
46.370      4698
46.380      4825
46.390      4845
46.400      4958
46.410      4738
46.420      5205
46.430      4891
46.440      4805
46.450      4858
46.460      4585
46.470      4591
46.480      4285
46.490      4565
46.500      4358
46.510      4278
46.520      4232
46.530      4132
46.540      3872
46.550      3439
46.560      3512
46.570      3499
46.580      3332
46.590      3132
46.600      3045
46.610      3012
46.620      2486
46.630      2686
46.640      2532
46.650      2632
46.660      2286
46.670      2259
46.680      2219
46.690      2073
46.700      1799
46.710      1719
46.720      1606
46.730      1393
46.740      1439
46.750      1406
46.760      1333
46.770      1160
46.780      1279
46.790      1113
46.800      1166
46.810       993
46.820       900
46.830      1000
46.840       920
46.850       860
46.860       806
46.870       853
46.880       726
46.890       793
46.900       766
46.910       780
46.920       646
46.930       640
46.940       506
46.950       600
46.960       593
46.970       486
46.980       493
46.990       546
47.000       420
47.010       446
47.020       433
47.030       313
47.040       380
47.050       413
47.060       333
47.070       480
47.080       293
47.090       440
47.100       287
47.110       300
47.120       353
47.130       353
47.140       313
47.150       333
47.160       340
47.170       273
47.180       240
47.190       320
47.200       227
47.210       240
47.220       293
47.230       207
47.240       247
47.250       240
47.260       227
47.270       253
47.280       207
47.290       253
47.300       153
47.310       260
47.320       173
47.330       247
47.340       180
47.350       167
47.360       180
47.370       213
47.380       187
47.390       160
47.400       220
47.410       173
47.420       127
47.430       127
47.440       160
47.450       127
47.460       147
47.470       133
47.480       127
47.490       173
47.500       147
47.510       153
47.520        93
47.530       147
47.540       107
47.550       173
47.560       160
47.570       147
47.580       147
47.590       173
47.600       160
47.610        93
47.620       180
47.630       147
47.640       107
47.650       100
47.660        73
47.670        93
47.680       107
47.690        53
47.700        93
47.710       100
47.720       113
47.730        93
47.740       107
47.750       100
47.760       133
47.770       107
47.780        87
47.790       167
47.800       167
47.810       127
47.820        73
47.830       100
47.840        60
47.850       100
47.860        80
47.870        87
47.880        67
47.890        60
47.900       107
47.910        80
47.920        40
47.930        73
47.940       100
47.950       133
47.960       100
47.970       147
47.980        80
47.990        67
48.000       113
48.010        87
48.020        60
48.030        53
48.040       100
48.050       100
48.060       127
48.070        93
48.080        60
48.090        73
48.100         7
48.110        80
48.120       127
48.130       107
48.140        73
48.150        53
48.160        73
48.170        93
48.180        53
48.190        73
48.200        47
48.210        93
48.220       113
48.230        53
48.240        80
48.250        93
48.260        40
48.270        73
48.280        47
48.290       107
48.300        53
48.310        73
48.320        73
48.330        53
48.340        40
48.350        87
48.360        60
48.370        53
48.380        60
48.390        80
48.400        73
48.410        40
48.420        53
48.430        40
48.440        67
48.450        73
48.460        60
48.470        80
48.480        67
48.490        67
48.500        87
48.510        67
48.520       100
48.530        53
48.540        47
48.550        73
48.560        53
48.570        27
48.580        67
48.590        60
48.600        67
48.610        60
48.620        60
48.630        47
48.640        67
48.650        67
48.660        67
48.670        33
48.680        60
48.690        80
48.700       140
48.710        40
48.720        67
48.730        53
48.740        80
48.750        73
48.760        60
48.770        87
48.780        40
48.790        80
48.800        80
48.810        60
48.820        53
48.830        87
48.840        67
48.850        60
48.860        40
48.870        33
48.880        27
48.890        67
48.900        53
48.910       107
48.920        47
48.930        53
48.940        33
48.950       107
48.960        67
48.970        40
48.980        67
48.990        40
49.000        60
49.010        33
49.020        60
49.030        40
49.040        53
49.050        20
49.060        67
49.070        47
49.080        47
49.090        67
49.100        67
49.110        73
49.120        47
49.130        73
49.140        80
49.150        80
49.160        67
49.170        47
49.180        47
49.190        33
49.200        40
49.210        47
49.220        53
49.230        47
49.240        87
49.250        40
49.260        40
49.270        53
49.280        33
49.290        40
49.300        60
49.310        20
49.320        53
49.330        67
49.340        60
49.350        13
49.360        53
49.370        33
49.380        40
49.390        53
49.400        53
49.410        80
49.420        73
49.430        47
49.440        87
49.450        33
49.460        20
49.470        27
49.480        47
49.490        33
49.500        67
49.510        53
49.520        47
49.530        27
49.540        60
49.550        27
49.560        47
49.570        33
49.580        33
49.590        40
49.600        33
49.610        13
49.620        40
49.630        40
49.640        60
49.650        60
49.660        60
49.670        87
49.680        47
49.690        40
49.700        60
49.710        53
49.720        53
49.730         7
49.740        27
49.750        47
49.760        53
49.770        40
49.780        27
49.790        40
49.800        40
49.810        40
49.820         7
49.830        60
49.840        33
49.850        20
49.860        47
49.870        33
49.880        27
49.890        40
49.900        53
49.910        40
49.920        33
49.930        67
49.940        60
49.950        53
49.960        47
49.970        53
49.980        20
49.990        53
50.000        60
50.010        73
50.020        73
50.030        40
50.040        13
50.050        47
50.060        60
50.070        67
50.080        47
50.090        80
50.100        53
50.110        33
50.120        40
50.130        47
50.140        73
50.150        13
50.160        53
50.170         7
50.180        73
50.190        53
50.200        40
50.210        27
50.220        27
50.230        53
50.240        40
50.250        47
50.260        67
50.270        40
50.280        13
50.290        33
50.300        60
50.310        27
50.320        60
50.330        33
50.340        60
50.350        60
50.360        33
50.370        53
50.380        40
50.390        47
50.400        40
50.410        47
50.420        53
50.430        27
50.440        53
50.450        40
50.460        20
50.470       100
50.480        47
50.490        53
50.500        40
50.510        67
50.520        47
50.530        33
50.540        67
50.550        47
50.560        40
50.570        27
50.580        27
50.590        40
50.600        53
50.610        47
50.620        47
50.630        53
50.640        33
50.650        33
50.660        33
50.670        33
50.680        27
50.690        53
50.700        40
50.710        40
50.720        20
50.730        60
50.740        27
50.750        60
50.760        20
50.770        60
50.780        40
50.790        33
50.800        27
50.810        27
50.820        20
50.830        47
50.840        27
50.850        33
50.860        40
50.870        47
50.880        47
50.890        40
50.900        67
50.910        40
50.920        73
50.930        27
50.940        27
50.950        73
50.960        47
50.970        73
50.980        53
50.990        47
51.000        53
51.010        60
51.020        33
51.030        67
51.040        27
51.050        60
51.060        40
51.070        60
51.080        53
51.090        47
51.100        60
51.110        20
51.120        87
51.130        40
51.140        53
51.150        33
51.160        67
51.170        33
51.180        73
51.190        27
51.200        80
51.210        53
51.220        20
51.230        47
51.240        60
51.250        40
51.260        73
51.270        27
51.280        40
51.290        60
51.300        47
51.310        27
51.320        60
51.330        47
51.340        40
51.350        47
51.360        73
51.370        40
51.380        40
51.390        47
51.400        40
51.410        73
51.420        60
51.430        80
51.440        40
51.450        27
51.460       107
51.470        53
51.480        73
51.490        20
51.500        40
51.510        47
51.520        40
51.530        53
51.540        33
51.550        53
51.560        93
51.570        40
51.580        33
51.590        33
51.600        53
51.610        80
51.620        60
51.630        40
51.640        40
51.650        40
51.660        53
51.670        67
51.680        80
51.690        93
51.700        40
51.710        47
51.720        53
51.730        20
51.740        60
51.750        67
51.760        60
51.770        33
51.780        33
51.790        27
51.800        73
51.810        27
51.820        53
51.830        33
51.840        80
51.850        33
51.860        60
51.870        93
51.880        60
51.890        47
51.900        60
51.910        60
51.920        47
51.930        53
51.940        67
51.950        53
51.960        60
51.970        60
51.980        47
51.990        40
52.000        67
52.010        53
52.020        47
52.030       100
52.040        40
52.050        73
52.060        20
52.070        53
52.080        93
52.090        60
52.100        27
52.110        60
52.120        40
52.130        40
52.140        73
52.150        87
52.160        60
52.170        67
52.180        47
52.190        67
52.200        47
52.210       100
52.220        80
52.230        60
52.240        60
52.250        47
52.260        80
52.270        67
52.280        73
52.290       107
52.300        80
52.310        47
52.320        80
52.330        87
52.340       100
52.350        60
52.360        67
52.370        73
52.380       107
52.390       113
52.400       113
52.410       100
52.420        93
52.430        93
52.440        67
52.450       120
52.460       107
52.470       173
52.480       127
52.490       167
52.500       200
52.510       260
52.520       307
52.530       280
52.540       260
52.550       347
52.560       420
52.570       526
52.580       740
52.590       813
52.600      1206
52.610      1333
52.620      2006
52.630      2019
52.640      2099
52.650      2352
52.660      2226
52.670      2146
52.680      1653
52.690      1466
52.700      1006
52.710       906
52.720       793
52.730       666
52.740       766
52.750       913
52.760       906
52.770      1040
52.780      1166
52.790      1259
52.800      1193
52.810       980
52.820       926
52.830       813
52.840       520
52.850       413
52.860       360
52.870       233
52.880       173
52.890       147
52.900       153
52.910       113
52.920       120
52.930        80
52.940        53
52.950       100
52.960        80
52.970        73
52.980        60
52.990       107
53.000        93
53.010        33
53.020        60
53.030        73
53.040        87
53.050        80
53.060        67
53.070       120
53.080        73
53.090        80
53.100        87
53.110        40
53.120        53
53.130        60
53.140        73
53.150        80
53.160        33
53.170        53
53.180        60
53.190        40
53.200        87
53.210       107
53.220        27
53.230        13
53.240        27
53.250        73
53.260        60
53.270        47
53.280        60
53.290        27
53.300        73
53.310        47
53.320        47
53.330        67
53.340        80
53.350        80
53.360        53
53.370        40
53.380        80
53.390        53
53.400        40
53.410        60
53.420        80
53.430        27
53.440        40
53.450        13
53.460        53
53.470        73
53.480        27
53.490        47
53.500        47
53.510        47
53.520        27
53.530        53
53.540        33
53.550        53
53.560        40
53.570        33
53.580        53
53.590        67
53.600        33
53.610        40
53.620        20
53.630        40
53.640        73
53.650        40
53.660        80
53.670        47
53.680        40
53.690        53
53.700        47
53.710        40
53.720        13
53.730        27
53.740        27
53.750        47
53.760        47
53.770        80
53.780        47
53.790        13
53.800        27
53.810        67
53.820        47
53.830        33
53.840        47
53.850        40
53.860        33
53.870        73
53.880        47
53.890        33
53.900        40
53.910        40
53.920        27
53.930        40
53.940        27
53.950        53
53.960        60
53.970        20
53.980        67
53.990        20
54.000        27
54.010        27
54.020        27
54.030        47
54.040        67
54.050        40
54.060        20
54.070        40
54.080        33
54.090        80
54.100        40
54.110        47
54.120        53
54.130        13
54.140        73
54.150        33
54.160        20
54.170        33
54.180        47
54.190        20
54.200        33
54.210        33
54.220        20
54.230        27
54.240        33
54.250        47
54.260        20
54.270        13
54.280        20
54.290         0
54.300        33
54.310        47
54.320        13
54.330        13
54.340        53
54.350        40
54.360        53
54.370        40
54.380        47
54.390        53
54.400        20
54.410        33
54.420        33
54.430         7
54.440        27
54.450        53
54.460        27
54.470        27
54.480        33
54.490        27
54.500        20
54.510         7
54.520         0
54.530        33
54.540        40
54.550        27
54.560         7
54.570        27
54.580        67
54.590        20
54.600        33
54.610        60
54.620        27
54.630        27
54.640        20
54.650        27
54.660         7
54.670        40
54.680        33
54.690        20
54.700        33
54.710        27
54.720        20
54.730        33
54.740        40
54.750        47
54.760        13
54.770        47
54.780        27
54.790        20
54.800        47
54.810        33
54.820        33
54.830        33
54.840        27
54.850        27
54.860        33
54.870        33
54.880        20
54.890        27
54.900        27
54.910        33
54.920        53
54.930        33
54.940        40
54.950        20
54.960        20
54.970        27
54.980        53
54.990        27
55.000        60
55.010        13
55.020        40
55.030        33
55.040        20
55.050        40
55.060        27
55.070        20
55.080        47
55.090        27
55.100        53
55.110        33
55.120        47
55.130        33
55.140         0
55.150        20
55.160        27
55.170        27
55.180        40
55.190        40
55.200        20
55.210        40
55.220        33
55.230        20
55.240        33
55.250        47
55.260        40
55.270        40
55.280        27
55.290        33
55.300        13
55.310        33
55.320        13
55.330        27
55.340        33
55.350        13
55.360        13
55.370        27
55.380        13
55.390        27
55.400        20
55.410        33
55.420        13
55.430        33
55.440         0
55.450        13
55.460        20
55.470        33
55.480        13
55.490        27
55.500         7
55.510        33
55.520        33
55.530        20
55.540        27
55.550        33
55.560        20
55.570        20
55.580        20
55.590        40
55.600        53
55.610        13
55.620        33
55.630        27
55.640        33
55.650        20
55.660        20
55.670        33
55.680        33
55.690         7
55.700        13
55.710        47
55.720         7
55.730        40
55.740        20
55.750        20
55.760        47
55.770         0
55.780        27
55.790        47
55.800        33
55.810         0
55.820        20
55.830        33
55.840        27
55.850        53
55.860        20
55.870        33
55.880        33
55.890         7
55.900        20
55.910        13
55.920        13
55.930        13
55.940        40
55.950        20
55.960         7
55.970         7
55.980         0
55.990        20
56.000        33
56.010        40
56.020         7
56.030        47
56.040         0
56.050        27
56.060        20
56.070        27
56.080         7
56.090        13
56.100         7
56.110        33
56.120        27
56.130        60
56.140        13
56.150        20
56.160        20
56.170        33
56.180        20
56.190        40
56.200        20
56.210        13
56.220        33
56.230        33
56.240        67
56.250        40
56.260        27
56.270        27
56.280        33
56.290        33
56.300        20
56.310        47
56.320        40
56.330        13
56.340        27
56.350         7
56.360        13
56.370        33
56.380        13
56.390        40
56.400        13
56.410        27
56.420         0
56.430        27
56.440        40
56.450        47
56.460        20
56.470        20
56.480        33
56.490        47
56.500        13
56.510        27
56.520        40
56.530        13
56.540        20
56.550        20
56.560         7
56.570        20
56.580        47
56.590        27
56.600        20
56.610        33
56.620        13
56.630        27
56.640        47
56.650        20
56.660        13
56.670        20
56.680        27
56.690        20
56.700         7
56.710        20
56.720        40
56.730        27
56.740        13
56.750        33
56.760        33
56.770        27
56.780        53
56.790        33
56.800        20
56.810        13
56.820        53
56.830        27
56.840        33
56.850        13
56.860         7
56.870        13
56.880        27
56.890        20
56.900         7
56.910        20
56.920        13
56.930        13
56.940        20
56.950         7
56.960        53
56.970        13
56.980        27
56.990         7
57.000        20
57.010        20
57.020        13
57.030        47
57.040        13
57.050        27
57.060         0
57.070        20
57.080        27
57.090        27
57.100        13
57.110        13
57.120        27
57.130        13
57.140         7
57.150        40
57.160        27
57.170         7
57.180        27
57.190        33
57.200         0
57.210        13
57.220        33
57.230        20
57.240        33
57.250         7
57.260        20
57.270        27
57.280        47
57.290        53
57.300        33
57.310        13
57.320        47
57.330        27
57.340        20
57.350        40
57.360        47
57.370        27
57.380         7
57.390        27
57.400        20
57.410        20
57.420        40
57.430        33
57.440         0
57.450        27
57.460        40
57.470        33
57.480        47
57.490        27
57.500        47
57.510        33
57.520        27
57.530        47
57.540        47
57.550        27
57.560        60
57.570        27
57.580        33
57.590        27
57.600        13
57.610        13
57.620         7
57.630        27
57.640         7
57.650        47
57.660        27
57.670        60
57.680        27
57.690        47
57.700        40
57.710        33
57.720        27
57.730        20
57.740        33
57.750        40
57.760        53
57.770        33
57.780        27
57.790        27
57.800        33
57.810        27
57.820        60
57.830        40
57.840        40
57.850        33
57.860        53
57.870        33
57.880        40
57.890        60
57.900        33
57.910        40
57.920        27
57.930        20
57.940        13
57.950        33
57.960        33
57.970        27
57.980        20
57.990        47
58.000        27
58.010        47
58.020        27
58.030        47
58.040        13
58.050        33
58.060        40
58.070        13
58.080        20
58.090        13
58.100        27
58.110        20
58.120         7
58.130         7
58.140        27
58.150        20
58.160        40
58.170        20
58.180        27
58.190        40
58.200        33
58.210        20
58.220        40
58.230        27
58.240        27
58.250        40
58.260         7
58.270         7
58.280        47
58.290        27
58.300        40
58.310         7
58.320        33
58.330        27
58.340         7
58.350        13
58.360        33
58.370        27
58.380        20
58.390        20
58.400        33
58.410        20
58.420         7
58.430        27
58.440        13
58.450        27
58.460        27
58.470        20
58.480        27
58.490        13
58.500        13
58.510        40
58.520        33
58.530        20
58.540        27
58.550         7
58.560        13
58.570        27
58.580        20
58.590        13
58.600        27
58.610        20
58.620         7
58.630        13
58.640        40
58.650        20
58.660        27
58.670        33
58.680        13
58.690        20
58.700        27
58.710        27
58.720        40
58.730        13
58.740         7
58.750        27
58.760        20
58.770        20
58.780         7
58.790        20
58.800        13
58.810        20
58.820        40
58.830        13
58.840        13
58.850        33
58.860        27
58.870        40
58.880         7
58.890        20
58.900         7
58.910        13
58.920        60
58.930        47
58.940         0
58.950        13
58.960        13
58.970         0
58.980        27
58.990         0
59.000        33
59.010        20
59.020        20
59.030         7
59.040        20
59.050        13
59.060        33
59.070        27
59.080        20
59.090        13
59.100        13
59.110        33
59.120        13
59.130        20
59.140        40
59.150         7
59.160        47
59.170        27
59.180        13
59.190        20
59.200        20
59.210        27
59.220        20
59.230        40
59.240        27
59.250        33
59.260        40
59.270         0
59.280        20
59.290        20
59.300        33
59.310        33
59.320         7
59.330        13
59.340        13
59.350        27
59.360        33
59.370        27
59.380         7
59.390        33
59.400        20
59.410        33
59.420         7
59.430        33
59.440        27
59.450        20
59.460        13
59.470        27
59.480         7
59.490        40
59.500         7
59.510        13
59.520        20
59.530        27
59.540        13
59.550        33
59.560        13
59.570         7
59.580        27
59.590        27
59.600        13
59.610         0
59.620        13
59.630        27
59.640        20
59.650        27
59.660        20
59.670        33
59.680        20
59.690        40
59.700         0
59.710        27
59.720        13
59.730        27
59.740        33
59.750        13
59.760        33
59.770         7
59.780        13
59.790        13
59.800        47
59.810        27
59.820        20
59.830        33
59.840        20
59.850        40
59.860        13
59.870        20
59.880        13
59.890        27
59.900         0
59.910        33
59.920        27
59.930        27
59.940        13
59.950         7
59.960        20
59.970         7
59.980        20
59.990         7
60.000         7
