20.000        53
20.010        53
20.020       160
20.030       147
20.040       113
20.050        87
20.060       147
20.070        40
20.080       100
20.090       133
20.100       100
20.110        80
20.120       120
20.130       133
20.140        87
20.150        87
20.160       167
20.170       113
20.180       113
20.190        80
20.200       153
20.210       113
20.220       100
20.230       147
20.240       113
20.250       160
20.260        67
20.270       133
20.280        87
20.290        73
20.300       107
20.310        80
20.320        87
20.330       120
20.340        67
20.350       153
20.360        87
20.370        93
20.380       160
20.390       167
20.400        67
20.410       100
20.420       147
20.430       107
20.440       100
20.450       140
20.460       133
20.470        73
20.480       113
20.490        60
20.500        60
20.510        87
20.520       100
20.530        93
20.540        87
20.550        53
20.560       120
20.570       113
20.580       127
20.590        80
20.600        47
20.610        60
20.620        67
20.630       100
20.640        87
20.650       100
20.660       180
20.670        87
20.680       113
20.690        87
20.700       107
20.710       140
20.720       113
20.730        80
20.740        93
20.750       147
20.760        67
20.770        80
20.780       120
20.790       140
20.800        93
20.810       127
20.820        93
20.830        80
20.840       120
20.850       140
20.860        93
20.870       113
20.880       113
20.890        87
20.900        93
20.910       113
20.920        87
20.930       100
20.940        93
20.950        93
20.960       153
20.970        80
20.980        67
20.990        73
21.000        40
21.010       127
21.020        80
21.030       127
21.040       107
21.050       120
21.060        80
21.070       113
21.080       107
21.090        93
21.100        47
21.110       120
21.120       113
21.130        80
21.140       113
21.150       113
21.160       120
21.170       100
21.180        87
21.190        93
21.200       120
21.210       120
21.220       133
21.230        93
21.240       120
21.250       100
21.260        80
21.270        93
21.280       113
21.290       120
21.300        93
21.310       127
21.320        93
21.330       113
21.340       120
21.350       133
21.360       113
21.370       100
21.380        87
21.390        67
21.400       127
21.410       120
21.420        87
21.430        73
21.440       107
21.450       133
21.460        87
21.470       107
21.480        87
21.490        60
21.500       133
21.510       120
21.520        80
21.530        93
21.540       107
21.550       127
21.560       107
21.570       100
21.580       113
21.590       120
21.600       133
21.610       147
21.620       140
21.630       120
21.640       153
21.650       140
21.660       127
21.670       140
21.680       140
21.690        67
21.700       133
21.710       133
21.720       180
21.730        87
21.740       113
21.750       260
21.760       107
21.770       120
21.780        87
21.790       140
21.800       133
21.810        80
21.820       140
21.830        93
21.840       147
21.850       160
21.860       147
21.870       180
21.880       187
21.890       133
21.900       140
21.910       147
21.920       127
21.930       160
21.940       107
21.950       100
21.960       173
21.970       147
21.980       187
21.990       133
22.000        80
22.010       207
22.020       187
22.030       213
22.040       133
22.050       127
22.060       147
22.070       133
22.080       147
22.090       140
22.100       173
22.110       153
22.120       173
22.130       133
22.140       160
22.150       180
22.160       120
22.170       147
22.180       140
22.190       133
22.200       167
22.210       187
22.220       153
22.230       180
22.240       187
22.250       113
22.260       173
22.270       173
22.280       127
22.290       180
22.300       247
22.310       247
22.320       193
22.330       220
22.340       220
22.350       247
22.360       173
22.370       247
22.380       260
22.390       307
22.400       380
22.410       313
22.420       313
22.430       347
22.440       380
22.450       327
22.460       387
22.470       460
22.480       426
22.490       413
22.500       440
22.510       460
22.520       373
22.530       393
22.540       500
22.550       500
22.560       580
22.570       693
22.580       573
22.590       566
22.600       540
22.610       593
22.620       653
22.630       620
22.640       666
22.650       560
22.660       646
22.670       606
22.680       613
22.690       553
22.700       486
22.710       520
22.720       580
22.730       560
22.740       646
22.750       553
22.760       540
22.770       400
22.780       500
22.790       407
22.800       466
22.810       506
22.820       407
22.830       400
22.840       313
22.850       426
22.860       367
22.870       400
22.880       360
22.890       360
22.900       413
22.910       340
22.920       407
22.930       426
22.940       367
22.950       340
22.960       360
22.970       353
22.980       293
22.990       320
23.000       340
23.010       373
23.020       267
23.030       320
23.040       373
23.050       353
23.060       486
23.070       433
23.080       760
23.090       940
23.100       933
23.110      1186
23.120      1133
23.130      1166
23.140      1100
23.150       946
23.160       553
23.170       433
23.180       387
23.190       267
23.200       307
23.210       307
23.220       300
23.230       253
23.240       340
23.250       287
23.260       280
23.270       300
23.280       260
23.290       247
23.300       233
23.310       260
23.320       227
23.330       240
23.340       153
23.350       253
23.360       200
23.370       253
23.380       213
23.390       213
23.400       213
23.410       160
23.420       153
23.430       193
23.440       233
23.450       280
23.460       173
23.470       273
23.480       167
23.490       207
23.500       167
23.510       227
23.520       200
23.530       253
23.540       140
23.550       200
23.560       253
23.570       147
23.580       180
23.590       227
23.600       187
23.610       220
23.620       220
23.630       213
23.640       253
23.650       180
23.660       227
23.670       180
23.680       173
23.690       147
23.700       227
23.710       187
23.720       220
23.730       253
23.740       260
23.750       153
23.760       207
23.770       173
23.780       213
23.790       173
23.800       160
23.810       213
23.820       220
23.830       180
23.840       180
23.850       220
23.860       233
23.870       120
23.880       127
23.890       253
23.900       207
23.910       207
23.920       200
23.930       173
23.940       140
23.950       193
23.960       173
23.970       147
23.980       207
23.990       160
24.000       227
24.010       160
24.020       180
24.030       200
24.040       153
24.050       180
24.060       160
24.070       173
24.080       160
24.090       167
24.100       140
24.110       200
24.120       193
24.130       140
24.140       153
24.150       227
24.160       107
24.170       173
24.180       200
24.190       187
24.200       167
24.210       153
24.220       180
24.230       207
24.240       247
24.250       167
24.260       167
24.270       207
24.280       213
24.290       140
24.300       213
24.310       167
24.320       193
24.330       133
24.340       147
24.350       167
24.360       240
24.370       193
24.380       180
24.390       173
24.400       187
24.410       193
24.420       187
24.430       213
24.440       240
24.450       220
24.460       167
24.470       133
24.480       153
24.490       227
24.500       267
24.510       193
24.520       187
24.530       233
24.540       160
24.550       140
24.560       147
24.570       200
24.580       127
24.590       173
24.600       173
24.610       200
24.620       207
24.630       227
24.640       207
24.650       240
24.660       160
24.670       227
24.680       147
24.690       247
24.700       233
24.710       240
24.720       307
24.730       293
24.740       407
24.750       433
24.760       586
24.770       446
24.780       480
24.790       520
24.800       420
24.810       446
24.820       533
24.830       526
24.840       486
24.850       347
24.860       520
24.870       593
24.880       526
24.890       526
24.900       420
24.910       413
24.920       453
24.930       407
24.940       486
24.950       493
24.960       546
24.970       486
24.980       426
24.990       506
25.000       466
25.010       540
25.020       493
25.030       460
25.040       486
25.050       533
25.060       466
25.070       526
25.080       480
25.090       506
25.100       626
25.110       426
25.120       546
25.130       513
25.140       640
25.150       526
25.160       506
25.170       500
25.180       486
25.190       553
25.200       553
25.210       586
25.220       506
25.230       580
25.240       680
25.250       566
25.260       680
25.270       580
25.280       553
25.290       526
25.300       620
25.310       653
25.320       680
25.330       746
25.340       733
25.350       666
25.360       560
25.370       600
25.380       793
25.390       773
25.400       900
25.410       853
25.420      1006
25.430      1026
25.440      1373
25.450      1779
25.460      2286
25.470      2579
25.480      3192
25.490      4032
25.500      4698
25.510      5058
25.520      5964
25.530      6351
25.540      7750
25.550      8976
25.560     12988
25.570     25217
25.580     49207
25.590     76936
25.600     97628
25.610    104525
25.620    109063
25.630    111435
25.640    112695
25.650    105371
25.660     91390
25.670     74524
25.680     65267
25.690     63235
25.700     59809
25.710     51886
25.720     39877
25.730     24117
25.740     13561
25.750      9256
25.760      7757
25.770      6897
25.780      5731
25.790      4918
25.800      3938
25.810      3832
25.820      3052
25.830      2526
25.840      2092
25.850      2019
25.860      1806
25.870      1446
25.880      1133
25.890      1113
25.900      1006
25.910       966
25.920       880
25.930       880
25.940       806
25.950       766
25.960       733
25.970       686
25.980       746
25.990       646
26.000       660
26.010       720
26.020       653
26.030       713
26.040       633
26.050       620
26.060       506
26.070       540
26.080       580
26.090       620
26.100       486
26.110       573
26.120       526
26.130       500
26.140       506
26.150       460
26.160       620
26.170       506
26.180       533
26.190       560
26.200       626
26.210       593
26.220       540
26.230       453
26.240       493
26.250       473
26.260       526
26.270       466
26.280       440
26.290       533
26.300       413
26.310       420
26.320       460
26.330       460
26.340       420
26.350       320
26.360       493
26.370       393
26.380       440
26.390       400
26.400       433
26.410       426
26.420       433
26.430       493
26.440       440
26.450       387
26.460       460
26.470       393
26.480       433
26.490       333
26.500       460
26.510       453
26.520       347
26.530       493
26.540       367
26.550       413
26.560       433
26.570       413
26.580       360
26.590       446
26.600       400
26.610       360
26.620       413
26.630       426
26.640       486
26.650       367
26.660       473
26.670       426
26.680       387
26.690       453
26.700       400
26.710       426
26.720       400
26.730       367
26.740       373
26.750       420
26.760       320
26.770       433
26.780       426
26.790       407
26.800       413
26.810       460
26.820       413
26.830       333
26.840       367
26.850       313
26.860       347
26.870       413
26.880       400
26.890       420
26.900       413
26.910       353
26.920       393
26.930       360
26.940       387
26.950       353
26.960       367
26.970       393
26.980       353
26.990       340
27.000       400
27.010       313
27.020       393
27.030       353
27.040       466
27.050       367
27.060       360
27.070       300
27.080       347
27.090       307
27.100       373
27.110       327
27.120       360
27.130       333
27.140       353
27.150       400
27.160       313
27.170       453
27.180       340
27.190       313
27.200       400
27.210       347
27.220       327
27.230       407
27.240       373
27.250       360
27.260       287
27.270       373
27.280       233
27.290       360
27.300       380
27.310       380
27.320       313
27.330       400
27.340       293
27.350       320
27.360       253
27.370       273
27.380       280
27.390       393
27.400       300
27.410       280
27.420       280
27.430       327
27.440       347
27.450       373
27.460       360
27.470       280
27.480       360
27.490       320
27.500       360
27.510       247
27.520       360
27.530       347
27.540       400
27.550       313
27.560       307
27.570       367
27.580       413
27.590       280
27.600       387
27.610       320
27.620       387
27.630       293
27.640       287
27.650       353
27.660       267
27.670       320
27.680       333
27.690       333
27.700       280
27.710       267
27.720       300
27.730       380
27.740       300
27.750       307
27.760       293
27.770       293
27.780       280
27.790       340
27.800       347
27.810       307
27.820       300
27.830       300
27.840       293
27.850       367
27.860       307
27.870       393
27.880       273
27.890       313
27.900       333
27.910       313
27.920       293
27.930       347
27.940       360
27.950       353
27.960       393
27.970       253
27.980       347
27.990       353
28.000       280
28.010       340
28.020       313
28.030       253
28.040       260
28.050       300
28.060       327
28.070       313
28.080       353
28.090       360
28.100       327
28.110       240
28.120       393
28.130       253
28.140       320
28.150       353
28.160       300
28.170       360
28.180       253
28.190       353
28.200       313
28.210       280
28.220       300
28.230       220
28.240       300
28.250       247
28.260       353
28.270       307
28.280       466
28.290       373
28.300       293
28.310       267
28.320       340
28.330       360
28.340       373
28.350       273
28.360       293
28.370       367
28.380       280
28.390       347
28.400       333
28.410       280
28.420       207
28.430       307
28.440       327
28.450       327
28.460       353
28.470       307
28.480       267
28.490       193
28.500       347
28.510       240
28.520       273
28.530       267
28.540       307
28.550       260
28.560       260
28.570       280
28.580       293
28.590       333
28.600       260
28.610       273
28.620       260
28.630       307
28.640       280
28.650       287
28.660       320
28.670       380
28.680       347
28.690       260
28.700       280
28.710       307
28.720       313
28.730       247
28.740       320
28.750       247
28.760       280
28.770       273
28.780       227
28.790       193
28.800       340
28.810       233
28.820       267
28.830       287
28.840       247
28.850       333
28.860       227
28.870       267
28.880       220
28.890       313
28.900       367
28.910       333
28.920       187
28.930       247
28.940       280
28.950       293
28.960       307
28.970       247
28.980       240
28.990       267
29.000       320
29.010       293
29.020       227
29.030       387
29.040       260
29.050       300
29.060       227
29.070       307
29.080       320
29.090       247
29.100       240
29.110       240
29.120       227
29.130       287
29.140       253
29.150       300
29.160       213
29.170       287
29.180       193
29.190       287
29.200       300
29.210       233
29.220       293
29.230       260
29.240       313
29.250       253
29.260       247
29.270       320
29.280       227
29.290       253
29.300       273
29.310       267
29.320       293
29.330       253
29.340       233
29.350       287
29.360       227
29.370       253
29.380       267
29.390       327
29.400       273
29.410       267
29.420       267
29.430       293
29.440       227
29.450       300
29.460       320
29.470       207
29.480       293
29.490       253
29.500       313
29.510       220
29.520       260
29.530       167
29.540       227
29.550       213
29.560       240
29.570       220
29.580       220
29.590       273
29.600       280
29.610       300
29.620       333
29.630       287
29.640       240
29.650       280
29.660       227
29.670       287
29.680       347
29.690       320
29.700       253
29.710       193
29.720       213
29.730       287
29.740       227
29.750       207
29.760       227
29.770       307
29.780       253
29.790       233
29.800       327
29.810       280
29.820       247
29.830       280
29.840       207
29.850       227
29.860       247
29.870       293
29.880       213
29.890       153
29.900       320
29.910       220
29.920       227
29.930       280
29.940       247
29.950       233
29.960       267
29.970       193
29.980       200
29.990       180
30.000       247
30.010       253
30.020       167
30.030       207
30.040       287
30.050       220
30.060       267
30.070       220
30.080       220
30.090       240
30.100       253
30.110       220
30.120       233
30.130       200
30.140       267
30.150       240
30.160       300
30.170       253
30.180       227
30.190       227
30.200       253
30.210       220
30.220       187
30.230       260
30.240       213
30.250       293
30.260       300
30.270       127
30.280       227
30.290       213
30.300       180
30.310       207
30.320       293
30.330       213
30.340       167
30.350       267
30.360       213
30.370       233
30.380       260
30.390       180
30.400       160
30.410       253
30.420       267
30.430       187
30.440       253
30.450       240
30.460       267
30.470       240
30.480       247
30.490       180
30.500       167
30.510       213
30.520       187
30.530       200
30.540       247
30.550       233
30.560       227
30.570       227
30.580       233
30.590       187
30.600       233
30.610       280
30.620       153
30.630       253
30.640       213
30.650       213
30.660       220
30.670       280
30.680       147
30.690       287
30.700       213
30.710       200
30.720       233
30.730       207
30.740       153
30.750       187
30.760       187
30.770       293
30.780       233
30.790       220
30.800       267
30.810       267
30.820       240
30.830       240
30.840       227
30.850       167
30.860       167
30.870       200
30.880       247
30.890       287
30.900       240
30.910       200
30.920       167
30.930       267
30.940       240
30.950       200
30.960       147
30.970       213
30.980       193
30.990       240
31.000       193
31.010       153
31.020       213
31.030       187
31.040       133
31.050       253
31.060       233
31.070       133
31.080       253
31.090       187
31.100       187
31.110       247
31.120       253
31.130       220
31.140       240
31.150       187
31.160       207
31.170       193
31.180       187
31.190       187
31.200       233
31.210       160
31.220       127
31.230       133
31.240       180
31.250       180
31.260       200
31.270       147
31.280       160
31.290       213
31.300       140
31.310       167
31.320       167
31.330       187
31.340       167
31.350       107
31.360       233
31.370       127
31.380       173
31.390       140
31.400       240
31.410       220
31.420       147
31.430       140
31.440       200
31.450       180
31.460       187
31.470       180
31.480       160
31.490       207
31.500       153
31.510       160
31.520       207
31.530       167
31.540       193
31.550       167
31.560       160
31.570       160
31.580       233
31.590       180
31.600       187
31.610       147
31.620       207
31.630       147
31.640       147
31.650       173
31.660       133
31.670       193
31.680       220
31.690       187
31.700       120
31.710       207
31.720       220
31.730       167
31.740       200
31.750       173
31.760       147
31.770       213
31.780       167
31.790       120
31.800       153
31.810       160
31.820       233
31.830       133
31.840       200
31.850       180
31.860       160
31.870       180
31.880       213
31.890       173
31.900       160
31.910       220
31.920       120
31.930       200
31.940       167
31.950       180
31.960       193
31.970       160
31.980       113
31.990       173
32.000       200
32.010       140
32.020       140
32.030       180
32.040       167
32.050       233
32.060       133
32.070       267
32.080       127
32.090       167
32.100       193
32.110       187
32.120       267
32.130       193
32.140       240
32.150       193
32.160       227
32.170       200
32.180       280
32.190       253
32.200       253
32.210       227
32.220       227
32.230       187
32.240       200
32.250       247
32.260       293
32.270       307
32.280       220
32.290       287
32.300       233
32.310       273
32.320       307
32.330       327
32.340       340
32.350       327
32.360       273
32.370       287
32.380       233
32.390       313
32.400       367
32.410       340
32.420       227
32.430       307
32.440       253
32.450       193
32.460       300
32.470       227
32.480       293
32.490       300
32.500       207
32.510       307
32.520       253
32.530       233
32.540       220
32.550       200
32.560       300
32.570       260
32.580       173
32.590       240
32.600       233
32.610       273
32.620       280
32.630       233
32.640       200
32.650       233
32.660       247
32.670       267
32.680       213
32.690       233
32.700       227
32.710       160
32.720       140
32.730       200
32.740       200
32.750       180
32.760       153
32.770       120
32.780       153
32.790       193
32.800       227
32.810       127
32.820       167
32.830       173
32.840       167
32.850       200
32.860       160
32.870       133
32.880       167
32.890       160
32.900       153
32.910       147
32.920       100
32.930       180
32.940       167
32.950        87
32.960       173
32.970       160
32.980       160
32.990       213
33.000       160
33.010       140
33.020       213
33.030       127
33.040       233
33.050       147
33.060       133
33.070        93
33.080       140
33.090       120
33.100       133
33.110       113
33.120       120
33.130       140
33.140       120
33.150       193
33.160       120
33.170       120
33.180       180
33.190       147
33.200       153
33.210       187
33.220       133
33.230       167
33.240       127
33.250       133
33.260        93
33.270       193
33.280       113
33.290        87
33.300       160
33.310       173
33.320       153
33.330       160
33.340       127
33.350       140
33.360       100
33.370       160
33.380        93
33.390        80
33.400       160
33.410       153
33.420       120
33.430       160
33.440       147
33.450       113
33.460       120
33.470       147
33.480       200
33.490       193
33.500       133
33.510       100
33.520       193
33.530       100
33.540       173
33.550       107
33.560       107
33.570       107
33.580       133
33.590       160
33.600       133
33.610       153
33.620       120
33.630       113
33.640       160
33.650       107
33.660        93
33.670       133
33.680        93
33.690       160
33.700       133
33.710        73
33.720       127
33.730       140
33.740        87
33.750       120
33.760       160
33.770       133
33.780       100
33.790       133
33.800       113
33.810       167
33.820       107
33.830       193
33.840       153
33.850       107
33.860       187
33.870       113
33.880       113
33.890       140
33.900       127
33.910       127
33.920       107
33.930       140
33.940       167
33.950       100
33.960       193
33.970       127
33.980       120
33.990        93
34.000       127
34.010        80
34.020        67
34.030        60
34.040       160
34.050       147
34.060        80
34.070       113
34.080        93
34.090        87
34.100       127
34.110       113
34.120        80
34.130       140
34.140       147
34.150        87
34.160       127
34.170       167
34.180        47
34.190        87
34.200       140
34.210       113
34.220       120
34.230       127
34.240       107
34.250       147
34.260       113
34.270        93
34.280       107
34.290       173
34.300       133
34.310       147
34.320       107
34.330        53
34.340       160
34.350       107
34.360        60
34.370       140
34.380       120
34.390       120
34.400       107
34.410       113
34.420        67
34.430        93
34.440        73
34.450       100
34.460       140
34.470       107
34.480        87
34.490       113
34.500       140
34.510        93
34.520       120
34.530       147
34.540        67
34.550        80
34.560       113
34.570       120
34.580       107
34.590        60
34.600       100
34.610       107
34.620       113
34.630       100
34.640       160
34.650        73
34.660        93
34.670        80
34.680        93
34.690       120
34.700       100
34.710        93
34.720        93
34.730       100
34.740        67
34.750       140
34.760       147
34.770       107
34.780       107
34.790       100
34.800       107
34.810       127
34.820       120
34.830       127
34.840        53
34.850       100
34.860        87
34.870        67
34.880       120
34.890       127
34.900        53
34.910       107
34.920       120
34.930        67
34.940        80
34.950       100
34.960        73
34.970       133
34.980       120
34.990        87
35.000       173
35.010       113
35.020       100
35.030        80
35.040       120
35.050       127
35.060        80
35.070       127
35.080       133
35.090        67
35.100        60
35.110        60
35.120        60
35.130        60
35.140       113
35.150        80
35.160       147
35.170       107
35.180       133
35.190       107
35.200        73
35.210        80
35.220        80
35.230        93
35.240       160
35.250       133
35.260       100
35.270       107
35.280       100
35.290       133
35.300        87
35.310       100
35.320        80
35.330        67
35.340       107
35.350        93
35.360       113
35.370       113
35.380        73
35.390       100
35.400       133
35.410        87
35.420       127
35.430       153
35.440        67
35.450       113
35.460        80
35.470       113
35.480        87
35.490       100
35.500       107
35.510       133
35.520        73
35.530        47
35.540       100
35.550        73
35.560        87
35.570        73
35.580        93
35.590       127
35.600       140
35.610        93
35.620       107
35.630       100
35.640       140
35.650        93
35.660       140
35.670        93
35.680       107
35.690       100
35.700       100
35.710        93
35.720        53
35.730       107
35.740       113
35.750       127
35.760        40
35.770        87
35.780       127
35.790        47
35.800        87
35.810       133
35.820       120
35.830        93
35.840       100
35.850       113
35.860       100
35.870        80
35.880        53
35.890        53
35.900        80
35.910        53
35.920       107
35.930        67
35.940       113
35.950        80
35.960       113
35.970       147
35.980        67
35.990        73
36.000       147
36.010        73
36.020        73
36.030       113
36.040        87
36.050        80
36.060       167
36.070        53
36.080        60
36.090       100
36.100        60
36.110       107
36.120       113
36.130       153
36.140       107
36.150        73
36.160        80
36.170       120
36.180        93
36.190        93
36.200       100
36.210       113
36.220        60
36.230       100
36.240       133
36.250        73
36.260        33
36.270        93
36.280        73
36.290        73
36.300       107
36.310        67
36.320        87
36.330        87
36.340        87
36.350        60
36.360       113
36.370        87
36.380        67
36.390        53
36.400        73
36.410        73
36.420       100
36.430        67
36.440        60
36.450       107
36.460        53
36.470       100
36.480        60
36.490       133
36.500        93
36.510        87
36.520        80
36.530        80
36.540       100
36.550        80
36.560       100
36.570        60
36.580        67
36.590        93
36.600       187
36.610        93
36.620        67
36.630       107
36.640        80
36.650        60
36.660       113
36.670       120
36.680        73
36.690       120
36.700        67
36.710        67
36.720        80
36.730        87
36.740        87
36.750       107
36.760        93
36.770        67
36.780       113
36.790        67
36.800        67
36.810        87
36.820        80
36.830        47
36.840        53
36.850        80
36.860        73
36.870        73
36.880        93
36.890        67
36.900        87
36.910        87
36.920        40
36.930        53
36.940        53
36.950        60
36.960        87
36.970       140
36.980       133
36.990        93
37.000       100
37.010       133
37.020        93
37.030        80
37.040       100
37.050        67
37.060       100
37.070        93
37.080        60
37.090        80
37.100        73
37.110        87
37.120        40
37.130        73
37.140       100
37.150        80
37.160       127
37.170        53
37.180       100
37.190        93
37.200        87
37.210        47
37.220        67
37.230        93
37.240        73
37.250       113
37.260        80
37.270        93
37.280       107
37.290        80
37.300        53
37.310        73
37.320        87
37.330        60
37.340        87
37.350        80
37.360        67
37.370        47
37.380        80
37.390        87
37.400        80
37.410        67
37.420       100
37.430        80
37.440        87
37.450        67
37.460        47
37.470        67
37.480        87
37.490        53
37.500       127
37.510       100
37.520        60
37.530        67
37.540        60
37.550        80
37.560        80
37.570        60
37.580        80
37.590        80
37.600        60
37.610        53
37.620        93
37.630        40
37.640        93
37.650        60
37.660        67
37.670        80
37.680        40
37.690        40
37.700        80
37.710        47
37.720        40
37.730        53
37.740       100
37.750        53
37.760        47
37.770        73
37.780        80
37.790       113
37.800        87
37.810        80
37.820        40
37.830       100
37.840        27
37.850        87
37.860        40
37.870       100
37.880        60
37.890       113
37.900        67
37.910        53
37.920       120
37.930        67
37.940        53
37.950        67
37.960        53
37.970        60
37.980        60
37.990        47
38.000        60
38.010        27
38.020        60
38.030        53
38.040        67
38.050        73
38.060        47
38.070        93
38.080        40
38.090        67
38.100        73
38.110        53
38.120        60
38.130        27
38.140        53
38.150        33
38.160        67
38.170        67
38.180        87
38.190        67
38.200        67
38.210        73
38.220        67
38.230        93
38.240        67
38.250        27
38.260        67
38.270        47
38.280        33
38.290        53
38.300        53
38.310        73
38.320        67
38.330        53
38.340        33
38.350        40
38.360       100
38.370        40
38.380        40
38.390        53
38.400        27
38.410        67
38.420        67
38.430        67
38.440        47
38.450        40
38.460        40
38.470        60
38.480        93
38.490        33
38.500        47
38.510        33
38.520        47
38.530        40
38.540        60
38.550        73
38.560        67
38.570        60
38.580        80
38.590        60
38.600        40
38.610        67
38.620        80
38.630        73
38.640        60
38.650        87
38.660        67
38.670        73
38.680        53
38.690        80
38.700        60
38.710        67
38.720        33
38.730        67
38.740        60
38.750        47
38.760        67
38.770        60
38.780       107
38.790        60
38.800        67
38.810        27
38.820        60
38.830       107
38.840        67
38.850        60
38.860        60
38.870        67
38.880        47
38.890        73
38.900       107
38.910        60
38.920        67
38.930        53
38.940        60
38.950        60
38.960        53
38.970       100
38.980        80
38.990        67
39.000        47
39.010        60
39.020       100
39.030        53
39.040        80
39.050        67
39.060        67
39.070        60
39.080        67
39.090        87
39.100        80
39.110        67
39.120        40
39.130        80
39.140        27
39.150        60
39.160        60
39.170       100
39.180        87
39.190        47
39.200        53
39.210        27
39.220        87
39.230        53
39.240        47
39.250        67
39.260        60
39.270        93
39.280        60
39.290        33
39.300        53
39.310        27
39.320        80
39.330        73
39.340        60
39.350        93
39.360        73
39.370        67
39.380        67
39.390        53
39.400        67
39.410        60
39.420        67
39.430        80
39.440        87
39.450        47
39.460        73
39.470        60
39.480        53
39.490        47
39.500        93
39.510        93
39.520        67
39.530        60
39.540       107
39.550        60
39.560        60
39.570        60
39.580        47
39.590        33
39.600        80
39.610        33
39.620        67
39.630        47
39.640        53
39.650        73
39.660        80
39.670        53
39.680        40
39.690        47
39.700        80
39.710        87
39.720        60
39.730        67
39.740        40
39.750        80
39.760        73
39.770        87
39.780        40
39.790        67
39.800       100
39.810        40
39.820        80
39.830        87
39.840        87
39.850        60
39.860        93
39.870       100
39.880        73
39.890        73
39.900        87
39.910        80
39.920        67
39.930        53
39.940        93
39.950        80
39.960        87
39.970        53
39.980        80
39.990        93
40.000        67
40.010       113
40.020       107
40.030       127
40.040        80
40.050        80
40.060        47
40.070        87
40.080        60
40.090        40
40.100        27
40.110       100
40.120        53
40.130        80
40.140        60
40.150        93
40.160       100
40.170        73
40.180        93
40.190        80
40.200        67
40.210       107
40.220        93
40.230        53
40.240        73
40.250        47
40.260        67
40.270        67
40.280        93
40.290        67
40.300        73
40.310        87
40.320        87
40.330        87
40.340       107
40.350        60
40.360        40
40.370        53
40.380        40
40.390        47
40.400        40
40.410        40
40.420        93
40.430        40
40.440        53
40.450        87
40.460        40
40.470        80
40.480        40
40.490        87
40.500        67
40.510        87
40.520        60
40.530        73
40.540       107
40.550        53
40.560       100
40.570        47
40.580        80
40.590        47
40.600        73
40.610        87
40.620        60
40.630        60
40.640        93
40.650        73
40.660        87
40.670        93
40.680        47
40.690        33
40.700        53
40.710        33
40.720        80
40.730        40
40.740        60
40.750        33
40.760        33
40.770        40
40.780        20
40.790        80
40.800        53
40.810        40
40.820        87
40.830        73
40.840        33
40.850        80
40.860        93
40.870        47
40.880        80
40.890        87
40.900        47
40.910        40
40.920        60
40.930        40
40.940        73
40.950        93
40.960        33
40.970        47
40.980        40
40.990        67
41.000        53
41.010        60
41.020        60
41.030        67
41.040        47
41.050        93
41.060        53
41.070        33
41.080        20
41.090        60
41.100       107
41.110        53
41.120        67
41.130        53
41.140        40
41.150        33
41.160        53
41.170        53
41.180        87
41.190        60
41.200        60
41.210        73
41.220        73
41.230       107
41.240        33
41.250        47
41.260        47
41.270        47
41.280        67
41.290        73
41.300        53
41.310       133
41.320        67
41.330        73
41.340        80
41.350        73
41.360        53
41.370        53
41.380       100
41.390       107
41.400        80
41.410       100
41.420       107
41.430        93
41.440       113
41.450        53
41.460        87
41.470        73
41.480        73
41.490        87
41.500       100
41.510        73
41.520        87
41.530        67
41.540        93
41.550        67
41.560        80
41.570        67
41.580       127
41.590        87
41.600        53
41.610        60
41.620       107
41.630        47
41.640        60
41.650        67
41.660        67
41.670        67
41.680       100
41.690       107
41.700        93
41.710        60
41.720       100
41.730        53
41.740        60
41.750       100
41.760        87
41.770        80
41.780        67
41.790       107
41.800        93
41.810        87
41.820        80
41.830        47
41.840        47
41.850        40
41.860        53
41.870        93
41.880        60
41.890        53
41.900        60
41.910        80
41.920        93
41.930        60
41.940        67
41.950        27
41.960        67
41.970        67
41.980        87
41.990        40
42.000        80
42.010        73
42.020        93
42.030        53
42.040        60
42.050        33
42.060        60
42.070        47
42.080        47
42.090        53
42.100        73
42.110       140
42.120        47
42.130        60
42.140        67
42.150        67
42.160        40
42.170        53
42.180        73
42.190       120
42.200       107
42.210        67
42.220        40
42.230        60
42.240        67
42.250        73
42.260        33
42.270        47
42.280        80
42.290        47
42.300        60
42.310        47
42.320        40
42.330        40
42.340        60
42.350        33
42.360        87
42.370        40
42.380        20
42.390        67
42.400        40
42.410        60
42.420        53
42.430        47
42.440        47
42.450        67
42.460        53
42.470        47
42.480        67
42.490        47
42.500        40
42.510        67
42.520        33
42.530        87
42.540        33
42.550        53
42.560        60
42.570        40
42.580        60
42.590        27
42.600        40
42.610        67
42.620        67
42.630       120
42.640        73
42.650        60
42.660        60
42.670        60
42.680        93
42.690        47
42.700        47
42.710        87
42.720        53
42.730        80
42.740        60
42.750        80
42.760        53
42.770        80
42.780        47
42.790        73
42.800        80
42.810        27
42.820        53
42.830        47
42.840        67
42.850        67
42.860        67
42.870        60
42.880        27
42.890        73
42.900        80
42.910        73
42.920        20
42.930        60
42.940        67
42.950        80
42.960        93
42.970       107
42.980        67
42.990        80
43.000        53
43.010        73
43.020        67
43.030        33
43.040        87
43.050        40
43.060        27
43.070        67
43.080        73
43.090        67
43.100        47
43.110        33
43.120        73
43.130        27
43.140        40
43.150        60
43.160        67
43.170        60
43.180        40
43.190        53
43.200        40
43.210        60
43.220        40
43.230        53
43.240        67
43.250        80
43.260        60
43.270        47
43.280        47
43.290       100
43.300        67
43.310        67
43.320        53
43.330        80
43.340        20
43.350        93
43.360        33
43.370        67
43.380        60
43.390       100
43.400        47
43.410        60
43.420        67
43.430        67
43.440        80
43.450       127
43.460        60
43.470        40
43.480        60
43.490        67
43.500        60
43.510        87
43.520        87
43.530        60
43.540        47
43.550        53
43.560        67
43.570        93
43.580        93
43.590        40
43.600        40
43.610        53
43.620        80
43.630        60
43.640        60
43.650        60
43.660        60
43.670        27
43.680        87
43.690        53
43.700        73
43.710        47
43.720        87
43.730        53
43.740        73
43.750        80
43.760        87
43.770        67
43.780       107
43.790        73
43.800        93
43.810        33
43.820        87
43.830        73
43.840        40
43.850        67
43.860       100
43.870        60
43.880        60
43.890        67
43.900        47
43.910       100
43.920        60
43.930        33
43.940       100
43.950        47
43.960        73
43.970        80
43.980        80
43.990        40
44.000        80
44.010        80
44.020        73
44.030       120
44.040       107
44.050        73
44.060       120
44.070        53
44.080        93
44.090        87
44.100       107
44.110        73
44.120        80
44.130       113
44.140        47
44.150        73
44.160       100
44.170        80
44.180        73
44.190       127
44.200        60
44.210        73
44.220        67
44.230        93
44.240        87
44.250        67
44.260        60
44.270        47
44.280        87
44.290       100
44.300       127
44.310        60
44.320       120
44.330       127
44.340       147
44.350       113
44.360        93
44.370       100
44.380        80
44.390        87
44.400       107
44.410        93
44.420        93
44.430       147
44.440       147
44.450       107
44.460       120
44.470       147
44.480        67
44.490       140
44.500       100
44.510        87
44.520        87
44.530       180
44.540       160
44.550        93
44.560       127
44.570       133
44.580        73
44.590       180
44.600       153
44.610       147
44.620       147
44.630       113
44.640       147
44.650       107
44.660       133
44.670       200
44.680       160
44.690       173
44.700        93
44.710       180
44.720       127
44.730       160
44.740       227
44.750       220
44.760       160
44.770       127
44.780       140
44.790       180
44.800       127
44.810       207
44.820       213
44.830       207
44.840       180
44.850       187
44.860       193
44.870       213
44.880       213
44.890       200
44.900       220
44.910       173
44.920       207
44.930       227
44.940       153
44.950       227
44.960       227
44.970       193
44.980       247
44.990       180
45.000       200
45.010       307
45.020       233
45.030       327
45.040       273
45.050       247
45.060       213
45.070       327
45.080       280
45.090       220
45.100       293
45.110       307
45.120       300
45.130       293
45.140       353
45.150       273
45.160       287
45.170       300
45.180       393
45.190       426
45.200       307
45.210       340
45.220       360
45.230       280
45.240       327
45.250       373
45.260       387
45.270       327
45.280       347
45.290       360
45.300       413
45.310       426
45.320       360
45.330       493
45.340       393
45.350       466
45.360       380
45.370       513
45.380       553
45.390       506
45.400       606
45.410       586
45.420       493
45.430       433
45.440       640
45.450       620
45.460       660
45.470       700
45.480       566
45.490       713
45.500       713
45.510       773
45.520       780
45.530       793
45.540       813
45.550       760
45.560       813
45.570       973
45.580       926
45.590       893
45.600      1146
45.610       913
45.620       980
45.630      1166
45.640      1140
45.650      1146
45.660      1266
45.670      1393
45.680      1426
45.690      1299
45.700      1413
45.710      1586
45.720      1539
45.730      1659
45.740      1639
45.750      1886
45.760      1799
45.770      1946
45.780      1793
45.790      2152
45.800      1986
45.810      2232
45.820      2446
45.830      2466
45.840      2519
45.850      2619
45.860      2692
45.870      2879
45.880      2826
45.890      2925
45.900      3245
45.910      3499
45.920      3385
45.930      3479
45.940      3485
45.950      3639
45.960      3805
45.970      3785
45.980      3958
45.990      4192
46.000      4305
46.010      4192
46.020      4252
46.030      4705
46.040      4678
46.050      4558
46.060      4678
46.070      4791
46.080      5178
46.090      4905
46.100      5424
46.110      5305
46.120      5145
46.130      5205
46.140      5498
46.150      5345
46.160      5718
46.170      5245
46.180      5378
46.190      5751
46.200      5944
46.210      5584
46.220      5684
46.230      5904
46.240      5598
46.250      5698
46.260      5744
46.270      5491
46.280      5325
46.290      5325
46.300      5298
46.310      5724
46.320      5231
46.330      5411
46.340      5398
46.350      5218
46.360      5405
46.370      4951
46.380      4851
46.390      4645
46.400      4638
46.410      4765
46.420      4498
46.430      4392
46.440      4412
46.450      4085
46.460      4565
46.470      4012
46.480      3925
46.490      3752
46.500      4145
46.510      3679
46.520      3785
46.530      3492
46.540      3605
46.550      3272
46.560      3219
46.570      2972
46.580      3239
46.590      2972
46.600      2799
46.610      2799
46.620      2806
46.630      2579
46.640      2639
46.650      2192
46.660      2686
46.670      2112
46.680      2259
46.690      2033
46.700      2146
46.710      2039
46.720      2112
46.730      1853
46.740      1873
46.750      1646
46.760      1753
46.770      1553
46.780      1613
46.790      1359
46.800      1673
46.810      1386
46.820      1419
46.830      1299
46.840      1226
46.850      1286
46.860      1259
46.870      1126
46.880      1173
46.890      1393
46.900      1120
46.910       960
46.920      1033
46.930      1000
46.940       920
46.950       886
46.960       913
46.970       873
46.980       760
46.990       873
47.000       800
47.010       720
47.020       620
47.030       693
47.040       626
47.050       820
47.060       753
47.070       693
47.080       746
47.090       680
47.100       660
47.110       680
47.120       633
47.130       646
47.140       686
47.150       813
47.160       993
47.170      1193
47.180      1419
47.190      1633
47.200      1606
47.210      1579
47.220      1499
47.230      1506
47.240      1359
47.250      1066
47.260       920
47.270       766
47.280       653
47.290       480
47.300       540
47.310       466
47.320       586
47.330       360
47.340       546
47.350       440
47.360       360
47.370       327
47.380       373
47.390       340
47.400       400
47.410       293
47.420       313
47.430       327
47.440       353
47.450       280
47.460       320
47.470       300
47.480       273
47.490       267
47.500       400
47.510       213
47.520       213
47.530       273
47.540       187
47.550       247
47.560       273
47.570       227
47.580       253
47.590       233
47.600       253
47.610       213
47.620       227
47.630       327
47.640       220
47.650       193
47.660       233
47.670       207
47.680       240
47.690       213
47.700       207
47.710       227
47.720       233
47.730       233
47.740       220
47.750       207
47.760       180
47.770       227
47.780       153
47.790       207
47.800       173
47.810       160
47.820       160
47.830       200
47.840       160
47.850       173
47.860       173
47.870       133
47.880       167
47.890       120
47.900        93
47.910       160
47.920       153
47.930       167
47.940       167
47.950       107
47.960       127
47.970       173
47.980        80
47.990       180
48.000       127
48.010       153
48.020       167
48.030       153
48.040       173
48.050       140
48.060       107
48.070       187
48.080       120
48.090       153
48.100        87
48.110       100
48.120       193
48.130       140
48.140       127
48.150       113
48.160       167
48.170       173
48.180       107
48.190       107
48.200       100
48.210       113
48.220       133
48.230       120
48.240       107
48.250       107
48.260       193
48.270       153
48.280       113
48.290       127
48.300       200
48.310        87
48.320        73
48.330       153
48.340       153
48.350       153
48.360        93
48.370       160
48.380        93
48.390       107
48.400       153
48.410       140
48.420       140
48.430        93
48.440       127
48.450       107
48.460       127
48.470       127
48.480       127
48.490       127
48.500        80
48.510        73
48.520       147
48.530       100
48.540        73
48.550       153
48.560        87
48.570       120
48.580       107
48.590       147
48.600       120
48.610       167
48.620        93
48.630       127
48.640       107
48.650        67
48.660       160
48.670       100
48.680        87
48.690        73
48.700       107
48.710       100
48.720       153
48.730        73
48.740       133
48.750       140
48.760       113
48.770       127
48.780       173
48.790       100
48.800        80
48.810       113
48.820        93
48.830        93
48.840       113
48.850       127
48.860       107
48.870       133
48.880        80
48.890       147
48.900       100
48.910       120
48.920        33
48.930       127
48.940        73
48.950        87
48.960       120
48.970        87
48.980       120
48.990        53
49.000       100
49.010       107
49.020       120
49.030       107
49.040        87
49.050        87
49.060       120
49.070        67
49.080       107
49.090        80
49.100        53
49.110        73
49.120        87
49.130       107
49.140        73
49.150       120
49.160        67
49.170        60
49.180        80
49.190        93
49.200        87
49.210       120
49.220        87
49.230        93
49.240        67
49.250        93
49.260        87
49.270        73
49.280        60
49.290       140
49.300        33
49.310        93
49.320       100
49.330       120
49.340        93
49.350        40
49.360       107
49.370        73
49.380       127
49.390       100
49.400       113
49.410        93
49.420       100
49.430        73
49.440        73
49.450       153
49.460        93
49.470       107
49.480        87
49.490        40
49.500        53
49.510       100
49.520       107
49.530        87
49.540        93
49.550        33
49.560        93
49.570       120
49.580        67
49.590       127
49.600        93
49.610        87
49.620        73
49.630        67
49.640        53
49.650        60
49.660        60
49.670       107
49.680        67
49.690       140
49.700        73
49.710       147
49.720        47
49.730        60
49.740       100
49.750        93
49.760        40
49.770        93
49.780        93
49.790        33
49.800       100
49.810        73
49.820       100
49.830       100
49.840        60
49.850       127
49.860        67
49.870        93
49.880        80
49.890        40
49.900        60
49.910        60
49.920       100
49.930       120
49.940        27
49.950        80
49.960        67
49.970        73
49.980        80
49.990       127
50.000        53
50.010        27
50.020        80
50.030        60
50.040        67
50.050        80
50.060        87
50.070        93
50.080       100
50.090        80
50.100       100
50.110        60
50.120        60
50.130        67
50.140        73
50.150        93
50.160        93
50.170       120
50.180        73
50.190        53
50.200        73
50.210       100
50.220        93
50.230        73
50.240       127
50.250        67
50.260        67
50.270       113
50.280        60
50.290        93
50.300        67
50.310        60
50.320        80
50.330        67
50.340       127
50.350        80
50.360        60
50.370        87
50.380        67
50.390        67
50.400        80
50.410        67
50.420        60
50.430       107
50.440        60
50.450        33
50.460       113
50.470        67
50.480       113
50.490        67
50.500        67
50.510        53
50.520        60
50.530       120
50.540        47
50.550        73
50.560        47
50.570        93
50.580       127
50.590        67
50.600        87
50.610       107
50.620        53
50.630        80
50.640       133
50.650       100
50.660       147
50.670       220
50.680       200
50.690       213
50.700       213
50.710       307
50.720       327
50.730       367
50.740       380
50.750       320
50.760       320
50.770       380
50.780       333
50.790       413
50.800       280
50.810       287
50.820       387
50.830       360
50.840       387
50.850       380
50.860       400
50.870       360
50.880       287
50.890       373
50.900       367
50.910       333
50.920       307
50.930       340
50.940       433
50.950       380
50.960       413
50.970       400
50.980       380
50.990       287
51.000       307
51.010       333
51.020       307
51.030       300
51.040       333
51.050       466
51.060       327
51.070       426
51.080       347
51.090       320
51.100       287
51.110       440
51.120       347
51.130       387
51.140       340
51.150       486
51.160       273
51.170       393
51.180       293
51.190       360
51.200       446
51.210       413
51.220       380
51.230       340
51.240       353
51.250       420
51.260       293
51.270       460
51.280       367
51.290       307
51.300       347
51.310       320
51.320       387
51.330       300
51.340       367
51.350       307
51.360       367
51.370       360
51.380       426
51.390       360
51.400       320
51.410       307
51.420       420
51.430       413
51.440       426
51.450       253
51.460       307
51.470       426
51.480       380
51.490       360
51.500       367
51.510       307
51.520       453
51.530       373
51.540       400
51.550       466
51.560       440
51.570       320
51.580       347
51.590       373
51.600       380
51.610       367
51.620       453
51.630       400
51.640       340
51.650       446
51.660       433
51.670       333
51.680       327
51.690       367
51.700       393
51.710       313
51.720       367
51.730       327
51.740       293
51.750       400
51.760       293
51.770       393
51.780       453
51.790       373
51.800       426
51.810       413
51.820       347
51.830       407
51.840       460
51.850       486
51.860       333
51.870       420
51.880       380
51.890       453
51.900       373
51.910       367
51.920       500
51.930       360
51.940       413
51.950       513
51.960       373
51.970       426
51.980       533
51.990       433
52.000       560
52.010       440
52.020       466
52.030       533
52.040       480
52.050       473
52.060       426
52.070       546
52.080       580
52.090       486
52.100       586
52.110       533
52.120       693
52.130       586
52.140       500
52.150       726
52.160       593
52.170       573
52.180       640
52.190       606
52.200       620
52.210       706
52.220       766
52.230       873
52.240       833
52.250       913
52.260       886
52.270      1033
52.280      1100
52.290      1293
52.300      1399
52.310      1606
52.320      1706
52.330      1813
52.340      2206
52.350      2099
52.360      2586
52.370      2639
52.380      2912
52.390      2646
52.400      2719
52.410      2846
52.420      2899
52.430      2906
52.440      3472
52.450      4192
52.460      4478
52.470      5438
52.480      6184
52.490      7190
52.500      8363
52.510     10489
52.520     12762
52.530     16247
52.540     23291
52.550     39111
52.560     63994
52.570     93223
52.580    118879
52.590    135093
52.600    143949
52.610    146948
52.620    142996
52.630    127176
52.640    102712
52.650     71618
52.660     47454
52.670     33460
52.680     30021
52.690     32874
52.700     43056
52.710     57117
52.720     70085
52.730     79428
52.740     83953
52.750     83080
52.760     81234
52.770     72304
52.780     54858
52.790     37805
52.800     24564
52.810     15940
52.820     11475
52.830      9236
52.840      7617
52.850      6411
52.860      6044
52.870      5351
52.880      4738
52.890      4125
52.900      3679
52.910      3299
52.920      2925
52.930      2159
52.940      2059
52.950      1779
52.960      1613
52.970      1499
52.980      1373
52.990      1306
53.000      1426
53.010      1020
53.020      1186
53.030       940
53.040       960
53.050       893
53.060       986
53.070       720
53.080       866
53.090       766
53.100       873
53.110       720
53.120       786
53.130       693
53.140       706
53.150       633
53.160       733
53.170       646
53.180       700
53.190       613
53.200       646
53.210       440
53.220       500
53.230       526
53.240       486
53.250       500
53.260       680
53.270       620
53.280       613
53.290       473
53.300       533
53.310       560
53.320       486
53.330       520
53.340       580
53.350       506
53.360       446
53.370       446
53.380       526
53.390       493
53.400       480
53.410       446
53.420       486
53.430       460
53.440       506
53.450       426
53.460       446
53.470       466
53.480       407
53.490       473
53.500       413
53.510       400
53.520       413
53.530       407
53.540       500
53.550       360
53.560       360
53.570       387
53.580       387
53.590       340
53.600       367
53.610       353
53.620       373
53.630       273
53.640       340
53.650       460
53.660       380
53.670       360
53.680       293
53.690       360
53.700       347
53.710       333
53.720       293
53.730       400
53.740       367
53.750       273
53.760       387
53.770       327
53.780       333
53.790       347
53.800       293
53.810       327
53.820       300
53.830       293
53.840       380
53.850       260
53.860       267
53.870       307
53.880       320
53.890       320
53.900       380
53.910       287
53.920       313
53.930       293
53.940       307
53.950       253
53.960       393
53.970       273
53.980       360
53.990       313
54.000       280
54.010       273
54.020       300
54.030       173
54.040       300
54.050       233
54.060       293
54.070       340
54.080       227
54.090       240
54.100       320
54.110       253
54.120       273
54.130       200
54.140       240
54.150       260
54.160       200
54.170       240
54.180       247
54.190       307
54.200       253
54.210       260
54.220       287
54.230       360
54.240       313
54.250       313
54.260       213
54.270       313
54.280       267
54.290       220
54.300       293
54.310       287
54.320       187
54.330       267
54.340       253
54.350       293
54.360       193
54.370       313
54.380       327
54.390       213
54.400       293
54.410       273
54.420       173
54.430       220
54.440       247
54.450       247
54.460       180
54.470       233
54.480       240
54.490       260
54.500       287
54.510       353
54.520       227
54.530       253
54.540       300
54.550       200
54.560       280
54.570       267
54.580       247
54.590       220
54.600       240
54.610       247
54.620       240
54.630       267
54.640       240
54.650       193
54.660       193
54.670       213
54.680       180
54.690       207
54.700       333
54.710       320
54.720       253
54.730       207
54.740       187
54.750       247
54.760       207
54.770       160
54.780       287
54.790       260
54.800       320
54.810       273
54.820       193
54.830       213
54.840       253
54.850       147
54.860       193
54.870       220
54.880       193
54.890       227
54.900       193
54.910       180
54.920       213
54.930       213
54.940       173
54.950       267
54.960       180
54.970       253
54.980       247
54.990       253
55.000       213
55.010       140
55.020       287
55.030       233
55.040       227
55.050       167
55.060       213
55.070       200
55.080       233
55.090       280
55.100       247
55.110       207
55.120       247
55.130       260
55.140       247
55.150       253
55.160       247
55.170       240
55.180       227
55.190       280
55.200       160
55.210       173
55.220       213
55.230       173
55.240       227
55.250       260
55.260       193
55.270       173
55.280       233
55.290       240
55.300       140
55.310       200
55.320       233
55.330       193
55.340       220
55.350       153
55.360       207
55.370       227
55.380       227
55.390       173
55.400       240
55.410       187
55.420       173
55.430       233
55.440       287
55.450       273
55.460       267
55.470       167
55.480       320
55.490       173
55.500       193
55.510       273
55.520       153
55.530       193
55.540       127
55.550       247
55.560       233
55.570       160
55.580       173
55.590       173
55.600       233
55.610       200
55.620       260
55.630       160
55.640       200
55.650       213
55.660       167
55.670       187
55.680       240
55.690       133
55.700       147
55.710       287
55.720       133
55.730       193
55.740       213
55.750       147
55.760       147
55.770       220
55.780       120
55.790       147
55.800       167
55.810       220
55.820       160
55.830       133
55.840       173
55.850       247
55.860       213
55.870       200
55.880       200
55.890       160
55.900       153
55.910       160
55.920       147
55.930       180
55.940       160
55.950       200
55.960       187
55.970       200
55.980       240
55.990       240
56.000       173
56.010       167
56.020       193
56.030       180
56.040       187
56.050       113
56.060       253
56.070       220
56.080       167
56.090       113
56.100       173
56.110       213
56.120       173
56.130       207
56.140       173
56.150       193
56.160       167
56.170       213
56.180       120
56.190       207
56.200       160
56.210       233
56.220       167
56.230       220
56.240       227
56.250       207
56.260       153
56.270       167
56.280       180
56.290       207
56.300       193
56.310       200
56.320       180
56.330       173
56.340       140
56.350       153
56.360       167
56.370       220
56.380       167
56.390       107
56.400       187
56.410       147
56.420       193
56.430       200
56.440       193
56.450       200
56.460       253
56.470       147
56.480       127
56.490       187
56.500       153
56.510       133
56.520       147
56.530       193
56.540       193
56.550       107
56.560       200
56.570       220
56.580       160
56.590       160
56.600       133
56.610        93
56.620       153
56.630       180
56.640       160
56.650       160
56.660       180
56.670       227
56.680       140
56.690       133
56.700       127
56.710       240
56.720       173
56.730       153
56.740       167
56.750       207
56.760       213
56.770       120
56.780       167
56.790       153
56.800       207
56.810       147
56.820       207
56.830       147
56.840       200
56.850        93
56.860       173
56.870       167
56.880       133
56.890       147
56.900       153
56.910       140
56.920       140
56.930       107
56.940       153
56.950       167
56.960       140
56.970       180
56.980       107
56.990       227
57.000       133
57.010       147
57.020       127
57.030       147
57.040       120
57.050       140
57.060       107
57.070       133
57.080       113
57.090       147
57.100       193
57.110       160
57.120       120
57.130       160
57.140       167
57.150       147
57.160       187
57.170       127
57.180       147
57.190       193
57.200       140
57.210       213
57.220       173
57.230       180
57.240       133
57.250       133
57.260       167
57.270       147
57.280       100
57.290       253
57.300       127
57.310       100
57.320       127
57.330       200
57.340       140
57.350       133
57.360       167
57.370       147
57.380       147
57.390       127
57.400       233
57.410       140
57.420       160
57.430       173
57.440       307
57.450        93
57.460       153
57.470       120
57.480       180
57.490       153
57.500       153
57.510       133
57.520       187
57.530       127
57.540       153
57.550       220
57.560       160
57.570        73
57.580       133
57.590       187
57.600       107
57.610       173
57.620       160
57.630       140
57.640       107
57.650       133
57.660        93
57.670        87
57.680       127
57.690       160
57.700       133
57.710       153
57.720       127
57.730       127
57.740       140
57.750       140
57.760        87
57.770       193
57.780       153
57.790       173
57.800       133
57.810       140
57.820       120
57.830       160
57.840       120
57.850       180
57.860       140
57.870       180
57.880        87
57.890       113
57.900       167
57.910       187
57.920       133
57.930       140
57.940       140
57.950       153
57.960       120
57.970       147
57.980       160
57.990       107
58.000       127
58.010       100
58.020       107
58.030       173
58.040       120
58.050       100
58.060       107
58.070       100
58.080       133
58.090       120
58.100       133
58.110       100
58.120       133
58.130       167
58.140       107
58.150       147
58.160       180
58.170       160
58.180       160
58.190        80
58.200       187
58.210        67
58.220        93
58.230        93
58.240       173
58.250       200
58.260       140
58.270       107
58.280       180
58.290       147
58.300       160
58.310       133
58.320       120
58.330       160
58.340       140
58.350       127
58.360       100
58.370       147
58.380       120
58.390       113
58.400       133
58.410       173
58.420       147
58.430       153
58.440       153
58.450       140
58.460        87
58.470       113
58.480       173
58.490       127
58.500       107
58.510       127
58.520       180
58.530       180
58.540       220
58.550       140
58.560       140
58.570       167
58.580       100
58.590       120
58.600       140
58.610       200
58.620       120
58.630        87
58.640       113
58.650       120
58.660        67
58.670       127
58.680       127
58.690       120
58.700       113
58.710       133
58.720       107
58.730       153
58.740       160
58.750       140
58.760        87
58.770       113
58.780       160
58.790       113
58.800       127
58.810        93
58.820       100
58.830       140
58.840       107
58.850       127
58.860       140
58.870        67
58.880       100
58.890       140
58.900       120
58.910       127
58.920       133
58.930        87
58.940       140
58.950       113
58.960       120
58.970       147
58.980       127
58.990       153
59.000       127
59.010       133
59.020       153
59.030       113
59.040       120
59.050       133
59.060       160
59.070       153
59.080        93
59.090       127
59.100       100
59.110       160
59.120       160
59.130       120
59.140       113
59.150       100
59.160        93
59.170       127
59.180        80
59.190       147
59.200       113
59.210        93
59.220       107
59.230       120
59.240       160
59.250       127
59.260       160
59.270       100
59.280       107
59.290       133
59.300        87
59.310       153
59.320       100
59.330        67
59.340       120
59.350       127
59.360        87
59.370        93
59.380        93
59.390       120
59.400       120
59.410       113
59.420        93
59.430       113
59.440        67
59.450        67
59.460       133
59.470        80
59.480       113
59.490       107
59.500       120
59.510       133
59.520        93
59.530       147
59.540        87
59.550       133
59.560       107
59.570       107
59.580       160
59.590       120
59.600       107
59.610       107
59.620       147
59.630       133
59.640       127
59.650       140
59.660        87
59.670       167
59.680       140
59.690       113
59.700       100
59.710       147
59.720       107
59.730       167
59.740       120
59.750       133
59.760       127
59.770       113
59.780       107
59.790       107
59.800       107
59.810        80
59.820       147
59.830        87
59.840       127
59.850       140
59.860       113
59.870       113
59.880       147
59.890       120
59.900       127
59.910       113
59.920        93
59.930       120
59.940       113
59.950       100
59.960        87
59.970       120
59.980        87
59.990       113
60.000       133
