20.000        27
20.010        27
20.020        53
20.030        60
20.040        33
20.050        33
20.060        67
20.070        47
20.080        67
20.090        27
20.100        53
20.110        47
20.120        27
20.130        20
20.140        13
20.150        27
20.160        53
20.170        67
20.180        47
20.190        87
20.200        27
20.210        47
20.220        33
20.230        47
20.240        20
20.250        53
20.260        53
20.270        20
20.280        53
20.290        20
20.300        40
20.310        40
20.320        47
20.330        47
20.340        27
20.350        53
20.360        27
20.370        20
20.380        40
20.390        33
20.400        40
20.410        67
20.420        40
20.430        40
20.440        73
20.450        47
20.460        20
20.470        33
20.480        20
20.490        33
20.500        27
20.510        33
20.520        40
20.530        40
20.540        93
20.550        33
20.560        60
20.570        40
20.580        40
20.590        80
20.600        20
20.610         7
20.620        53
20.630        40
20.640        40
20.650        53
20.660        20
20.670        53
20.680        13
20.690        40
20.700        67
20.710        20
20.720        27
20.730        40
20.740        47
20.750        20
20.760        73
20.770        60
20.780        47
20.790        40
20.800        33
20.810        73
20.820        27
20.830        73
20.840        53
20.850        67
20.860        67
20.870        87
20.880        47
20.890        40
20.900        40
20.910        47
20.920        53
20.930        60
20.940        53
20.950        60
20.960        13
20.970        27
20.980        47
20.990        53
21.000        40
21.010        67
21.020        47
21.030        13
21.040        53
21.050        27
21.060        27
21.070        53
21.080        47
21.090        53
21.100        60
21.110        47
21.120        20
21.130        33
21.140        33
21.150        53
21.160        27
21.170        47
21.180        27
21.190        40
21.200        27
21.210        20
21.220        33
21.230        27
21.240        33
21.250        60
21.260        27
21.270        27
21.280        20
21.290        53
21.300        47
21.310        27
21.320        53
21.330        67
21.340        80
21.350        47
21.360        47
21.370        27
21.380        27
21.390        73
21.400        40
21.410        47
21.420        80
21.430        67
21.440        40
21.450        47
21.460        73
21.470        73
21.480        60
21.490        60
21.500        67
21.510        73
21.520        13
21.530        93
21.540        47
21.550        53
21.560       127
21.570        67
21.580       100
21.590        60
21.600        80
21.610        67
21.620        87
21.630        13
21.640        87
21.650        80
21.660        73
21.670        60
21.680        80
21.690       140
21.700       100
21.710        80
21.720       107
21.730       140
21.740        73
21.750        93
21.760        73
21.770       113
21.780        87
21.790        87
21.800        73
21.810        73
21.820        67
21.830       120
21.840        73
21.850        33
21.860        60
21.870        33
21.880        73
21.890        33
21.900        20
21.910        27
21.920        47
21.930        80
21.940        73
21.950        33
21.960        80
21.970        40
21.980        47
21.990        47
22.000        73
22.010        73
22.020        60
22.030        60
22.040        40
22.050        73
22.060        40
22.070        60
22.080        53
22.090        67
22.100        67
22.110        13
22.120        53
22.130        47
22.140        33
22.150        40
22.160        47
22.170        40
22.180        73
22.190        33
22.200        47
22.210        53
22.220        40
22.230        40
22.240        47
22.250        13
22.260        33
22.270        80
22.280        40
22.290        40
22.300        47
22.310        47
22.320        27
22.330        20
22.340        33
22.350        27
22.360        67
22.370        47
22.380        40
22.390        67
22.400        33
22.410        47
22.420        20
22.430       153
22.440        53
22.450        40
22.460        53
22.470        53
22.480        33
22.490        27
22.500        27
22.510        53
22.520        67
22.530        47
22.540        40
22.550        33
22.560        27
22.570        47
22.580        27
22.590        13
22.600        67
22.610        40
22.620        67
22.630        60
22.640        53
22.650        33
22.660        40
22.670        27
22.680        13
22.690        67
22.700        20
22.710        20
22.720        53
22.730        53
22.740        20
22.750        27
22.760        27
22.770        20
22.780        13
22.790        27
22.800        33
22.810        47
22.820        20
22.830        40
22.840        13
22.850        20
22.860        27
22.870        13
22.880        13
22.890        47
22.900        40
22.910        33
22.920        93
22.930        20
22.940        33
22.950        67
22.960        33
22.970        27
22.980        20
22.990        40
23.000        40
23.010        53
23.020        60
23.030        20
23.040        40
23.050        53
23.060        40
23.070        27
23.080        20
23.090        27
23.100        47
23.110        33
23.120        20
23.130        47
23.140        33
23.150        73
23.160         0
23.170        13
23.180        27
23.190        33
23.200        20
23.210         7
23.220        27
23.230        33
23.240        13
23.250        53
23.260        33
23.270        47
23.280        33
23.290        33
23.300        40
23.310        47
23.320        47
23.330        40
23.340        53
23.350        20
23.360        33
23.370        27
23.380        60
23.390        33
23.400        33
23.410        40
23.420        53
23.430        40
23.440        27
23.450        33
23.460        27
23.470        47
23.480        20
23.490        53
23.500        13
23.510        60
23.520        27
23.530        20
23.540        33
23.550        13
23.560        33
23.570        20
23.580        27
23.590        60
23.600        60
23.610        40
23.620        33
23.630        33
23.640        47
23.650        27
23.660        20
23.670        47
23.680        27
23.690        47
23.700        40
23.710        33
23.720        33
23.730        40
23.740        27
23.750        73
23.760        33
23.770        33
23.780        47
23.790        33
23.800        13
23.810        33
23.820        53
23.830        53
23.840        27
23.850        27
23.860        20
23.870        27
23.880        67
23.890        20
23.900        27
23.910        27
23.920        40
23.930        47
23.940        33
23.950        20
23.960        40
23.970        27
23.980        40
23.990        47
24.000        47
24.010        33
24.020        47
24.030        13
24.040        53
24.050        33
24.060        33
24.070        27
24.080        20
24.090        20
24.100        13
24.110        53
24.120        33
24.130        40
24.140        27
24.150        47
24.160        27
24.170        67
24.180        27
24.190        53
24.200        27
24.210        20
24.220        53
24.230        47
24.240        27
24.250        13
24.260        47
24.270        27
24.280        60
24.290        40
24.300         0
24.310        20
24.320        33
24.330        13
24.340        33
24.350        40
24.360        33
24.370        33
24.380        13
24.390        20
24.400        47
24.410        40
24.420        20
24.430        33
24.440        20
24.450        53
24.460        13
24.470        27
24.480        53
24.490        40
24.500        27
24.510        20
24.520        27
24.530        20
24.540        20
24.550        20
24.560        53
24.570        27
24.580        33
24.590        27
24.600        40
24.610        33
24.620        40
24.630        47
24.640        20
24.650        27
24.660        47
24.670        20
24.680        33
24.690        40
24.700        20
24.710         0
24.720        33
24.730        33
24.740        20
24.750        20
24.760        33
24.770        20
24.780        40
24.790        47
24.800        60
24.810        33
24.820        33
24.830        20
24.840        53
24.850        27
24.860        33
24.870        40
24.880        33
24.890        47
24.900        33
24.910        40
24.920        33
24.930        53
24.940        40
24.950        27
24.960        40
24.970        53
24.980        33
24.990        33
25.000        27
25.010        27
25.020        13
25.030        27
25.040        20
25.050        33
25.060        27
25.070        20
25.080        73
25.090        47
25.100        27
25.110        27
25.120        40
25.130        33
25.140        27
25.150        20
25.160        40
25.170        40
25.180        67
25.190        40
25.200        47
25.210        20
25.220        40
25.230        33
25.240        33
25.250        53
25.260        27
25.270        20
25.280        47
25.290         7
25.300        47
25.310        27
25.320        20
25.330        40
25.340        40
25.350        13
25.360        47
25.370        47
25.380        13
25.390         0
25.400        40
25.410        53
25.420        33
25.430        47
25.440        20
25.450        13
25.460        27
25.470        13
25.480        20
25.490        33
25.500        33
25.510        40
25.520        27
25.530        60
25.540        40
25.550        27
25.560        67
25.570        33
25.580        53
25.590        40
25.600        27
25.610        33
25.620        33
25.630        33
25.640        40
25.650         7
25.660        47
25.670        40
25.680        40
25.690        33
25.700        60
25.710        20
25.720        67
25.730        20
25.740        27
25.750        33
25.760        40
25.770        60
25.780        27
25.790         7
25.800        27
25.810        33
25.820        20
25.830        13
25.840        47
25.850        27
25.860         7
25.870        13
25.880        13
25.890        33
25.900        53
25.910        33
25.920        13
25.930        33
25.940        33
25.950        13
25.960        20
25.970        20
25.980        20
25.990        27
26.000        40
26.010        47
26.020        13
26.030        33
26.040        40
26.050        33
26.060        33
26.070        47
26.080        20
26.090        47
26.100        20
26.110        20
26.120        27
26.130        53
26.140        20
26.150        60
26.160        20
26.170        53
26.180        40
26.190        60
26.200        20
26.210        53
26.220        20
26.230        13
26.240        33
26.250        27
26.260        40
26.270        53
26.280        13
26.290        20
26.300         7
26.310        20
26.320        20
26.330        40
26.340        27
26.350        13
26.360        27
26.370        53
26.380        13
26.390        27
26.400        33
26.410        13
26.420        33
26.430        40
26.440        67
26.450        47
26.460        33
26.470        20
26.480        33
26.490        40
26.500        33
26.510        13
26.520        27
26.530        40
26.540        33
26.550        27
26.560        27
26.570        33
26.580        27
26.590        47
26.600         7
26.610        47
26.620        27
26.630        20
26.640         7
26.650        87
26.660        13
26.670        40
26.680        47
26.690        33
26.700        27
26.710        47
26.720        33
26.730        33
26.740        27
26.750        20
26.760        27
26.770        53
26.780        20
26.790        60
26.800        27
26.810        13
26.820        33
26.830        20
26.840        60
26.850        33
26.860         7
26.870        13
26.880        33
26.890         7
26.900        27
26.910        33
26.920         7
26.930        47
26.940        20
26.950        53
26.960        33
26.970        47
26.980        40
26.990        40
27.000        27
27.010        27
27.020        33
27.030        27
27.040        20
27.050        60
27.060        27
27.070        27
27.080        27
27.090        53
27.100        87
27.110        33
27.120        13
27.130        27
27.140        13
27.150        53
27.160        67
27.170        27
27.180        40
27.190        20
27.200        27
27.210        47
27.220        53
27.230        27
27.240        60
27.250        27
27.260        20
27.270        27
27.280        33
27.290        67
27.300        47
27.310        40
27.320        20
27.330        20
27.340        53
27.350        20
27.360        27
27.370        47
27.380         7
27.390        27
27.400        20
27.410        47
27.420        40
27.430        60
27.440        33
27.450        20
27.460        20
27.470         7
27.480        33
27.490        33
27.500        53
27.510        40
27.520        27
27.530        53
27.540        33
27.550        27
27.560        47
27.570        53
27.580        27
27.590         0
27.600        13
27.610         7
27.620         0
27.630        33
27.640         0
27.650        13
27.660        27
27.670        33
27.680        40
27.690        27
27.700        60
27.710        60
27.720        20
27.730        47
27.740        40
27.750        40
27.760        27
27.770        20
27.780         7
27.790        53
27.800        33
27.810        27
27.820        13
27.830        20
27.840        27
27.850        27
27.860        27
27.870        13
27.880        20
27.890        27
27.900        13
27.910        33
27.920        33
27.930         7
27.940        27
27.950        40
27.960        27
27.970        40
27.980        27
27.990        53
28.000        13
28.010        33
28.020        20
28.030        53
28.040        20
28.050        40
28.060        33
28.070        27
28.080        53
28.090         7
28.100        40
28.110         7
28.120        27
28.130        33
28.140        60
28.150        33
28.160        40
28.170        13
28.180        53
28.190        13
28.200        27
28.210        53
28.220        40
28.230        20
28.240        27
28.250        47
28.260        13
28.270        40
28.280        13
28.290        40
28.300        33
28.310        20
28.320        13
28.330        33
28.340        33
28.350        47
28.360        27
28.370        13
28.380        27
28.390        27
28.400        27
28.410        27
28.420        40
28.430        27
28.440        27
28.450        27
28.460        13
28.470        33
28.480        13
28.490        20
28.500        40
28.510        33
28.520        20
28.530        27
28.540        53
28.550        33
28.560        33
28.570        27
28.580        27
28.590        33
28.600        20
28.610        20
28.620        47
28.630        40
28.640        33
28.650        47
28.660        27
28.670        33
28.680        27
28.690        13
28.700        13
28.710        20
28.720        20
28.730        20
28.740        47
28.750        47
28.760        27
28.770        20
28.780        40
28.790        27
28.800        27
28.810        27
28.820        20
28.830        20
28.840        27
28.850        20
28.860        13
28.870        20
28.880        27
28.890        13
28.900        20
28.910        33
28.920        40
28.930        33
28.940        27
28.950        27
28.960        20
28.970        13
28.980        47
28.990        33
29.000        33
29.010        27
29.020        13
29.030        20
29.040        27
29.050        33
29.060        20
29.070        53
29.080        53
29.090        27
29.100        47
29.110        40
29.120        27
29.130        60
29.140        33
29.150         7
29.160        13
29.170        33
29.180        20
29.190        27
29.200        53
29.210        27
29.220        33
29.230        33
29.240        27
29.250        53
29.260        20
29.270        27
29.280        20
29.290        20
29.300         0
29.310         0
29.320        53
29.330        13
29.340        27
29.350        27
29.360        20
29.370        20
29.380        27
29.390        20
29.400        20
29.410        40
29.420        27
29.430        33
29.440        53
29.450        33
29.460        53
29.470        60
29.480        40
29.490        20
29.500        20
29.510        33
29.520        20
29.530        40
29.540        47
29.550        40
29.560        20
29.570        53
29.580        27
29.590        13
29.600        27
29.610        60
29.620        27
29.630        47
29.640        53
29.650        47
29.660        13
29.670        20
29.680         7
29.690        20
29.700        33
29.710        33
29.720        20
29.730        40
29.740        13
29.750        47
29.760         7
29.770        33
29.780        20
29.790        13
29.800        40
29.810        33
29.820        27
29.830        40
29.840        33
29.850        13
29.860        20
29.870        47
29.880        20
29.890        20
29.900        40
29.910        40
29.920        27
29.930        13
29.940        20
29.950        47
29.960        47
29.970        53
29.980        27
29.990        27
30.000        20
30.010        33
30.020        33
30.030        33
30.040        27
30.050        13
30.060        40
30.070        47
30.080        33
30.090        47
30.100        33
30.110        20
30.120        80
30.130        47
30.140        60
30.150        47
30.160        13
30.170        20
30.180        40
30.190        40
30.200        20
30.210        53
30.220        13
30.230        87
30.240        47
30.250        33
30.260        40
30.270        20
30.280        60
30.290        13
30.300        13
30.310        47
30.320        47
30.330        27
30.340        93
30.350        53
30.360        33
30.370        40
30.380        47
30.390        13
30.400        27
30.410        27
30.420        33
30.430        53
30.440         7
30.450        13
30.460        27
30.470        33
30.480        27
30.490        20
30.500        20
30.510        33
30.520        27
30.530        47
30.540        27
30.550        67
30.560        47
30.570        60
30.580        60
30.590        73
30.600        73
30.610        53
30.620        47
30.630        87
30.640        73
30.650        73
30.660       160
30.670       127
30.680       167
30.690       147
30.700       147
30.710       120
30.720       240
30.730       187
30.740       267
30.750       247
30.760       233
30.770       327
30.780       307
30.790       340
30.800       387
30.810       347
30.820       526
30.830       533
30.840       553
30.850       387
30.860       566
30.870       666
30.880       660
30.890       700
30.900       666
30.910       633
30.920       606
30.930       566
30.940       633
30.950       666
30.960       513
30.970       500
30.980       420
30.990       426
31.000       380
31.010       360
31.020       227
31.030       227
31.040       293
31.050       220
31.060       187
31.070       180
31.080       120
31.090       107
31.100        93
31.110        87
31.120        73
31.130        73
31.140       100
31.150        47
31.160        67
31.170        73
31.180        60
31.190        60
31.200        53
31.210        33
31.220        87
31.230        40
31.240        33
31.250        67
31.260        47
31.270         7
31.280        47
31.290        33
31.300        27
31.310        67
31.320        27
31.330        40
31.340        73
31.350        27
31.360        67
31.370        33
31.380        40
31.390        60
31.400        40
31.410        73
31.420        60
31.430        13
31.440        33
31.450        27
31.460        47
31.470        60
31.480        33
31.490        60
31.500        47
31.510        33
31.520        53
31.530        33
31.540        27
31.550        40
31.560        33
31.570        47
31.580        53
31.590        40
31.600        47
31.610        40
31.620        13
31.630        53
31.640        33
31.650        60
31.660        13
31.670        27
31.680        53
31.690        13
31.700        40
31.710        47
31.720        67
31.730        53
31.740        60
31.750        20
31.760        33
31.770         7
31.780        40
31.790        27
31.800        40
31.810        27
31.820        20
31.830        47
31.840        27
31.850        20
31.860        20
31.870        33
31.880        47
31.890        13
31.900        13
31.910        13
31.920        40
31.930        20
31.940        20
31.950        53
31.960        27
31.970        27
31.980        33
31.990        40
32.000        33
32.010        27
32.020        20
32.030        40
32.040        33
32.050        40
32.060        13
32.070        33
32.080        33
32.090        20
32.100        40
32.110        67
32.120        33
32.130        33
32.140        27
32.150        20
32.160        27
32.170        27
32.180        20
32.190        40
32.200        20
32.210        13
32.220        40
32.230        33
32.240        20
32.250        33
32.260        20
32.270        20
32.280        13
32.290        20
32.300        27
32.310        20
32.320        40
32.330        20
32.340        53
32.350        13
32.360        40
32.370        33
32.380        13
32.390        20
32.400        40
32.410        33
32.420        27
32.430        13
32.440        47
32.450        13
32.460        20
32.470        33
32.480        27
32.490        13
32.500        20
32.510        33
32.520        33
32.530         7
32.540        20
32.550        27
32.560        27
32.570        47
32.580        13
32.590        33
32.600        20
32.610        53
32.620        47
32.630        20
32.640        27
32.650        20
32.660        33
32.670        20
32.680        33
32.690        40
32.700        20
32.710        33
32.720        27
32.730        13
32.740        20
32.750        33
32.760        27
32.770        27
32.780        40
32.790        20
32.800        13
32.810        20
32.820        13
32.830        53
32.840        40
32.850        20
32.860        33
32.870        33
32.880        40
32.890        40
32.900        27
32.910        13
32.920        27
32.930        13
32.940        47
32.950        33
32.960         7
32.970        27
32.980        53
32.990        33
33.000        27
33.010        40
33.020        27
33.030        33
33.040        27
33.050        27
33.060         0
33.070        13
33.080        27
33.090        33
33.100        13
33.110        47
33.120        33
33.130        33
33.140        27
33.150         0
33.160        33
33.170        13
33.180        20
33.190        13
33.200        60
33.210        47
33.220         0
33.230        13
33.240        47
33.250        13
33.260        20
33.270        13
33.280         7
33.290        13
33.300        40
33.310         7
33.320        13
33.330        27
33.340        27
33.350        13
33.360        40
33.370        33
33.380        27
33.390        27
33.400        27
33.410        33
33.420        20
33.430        40
33.440        13
33.450        53
33.460        13
33.470        53
33.480        27
33.490        40
33.500        13
33.510         7
33.520        20
33.530        47
33.540         7
33.550        27
33.560         7
33.570         7
33.580        40
33.590        20
33.600        13
33.610        27
33.620        27
33.630        40
33.640        27
33.650        13
33.660        40
33.670        27
33.680        13
33.690        33
33.700        20
33.710        20
33.720        67
33.730        47
33.740        13
33.750        13
33.760        33
33.770        47
33.780         7
33.790        40
33.800        20
33.810        13
33.820        13
33.830        13
33.840         7
33.850        20
33.860        33
33.870        33
33.880        20
33.890        27
33.900        20
33.910        27
33.920        33
33.930        60
33.940         7
33.950        13
33.960        60
33.970        13
33.980        27
33.990        33
34.000        33
34.010        27
34.020        33
34.030        60
34.040        27
34.050        13
34.060        33
34.070        27
34.080        33
34.090        20
34.100        33
34.110        20
34.120        47
34.130        13
34.140        27
34.150        13
34.160        27
34.170        27
34.180        20
34.190        33
34.200        13
34.210        20
34.220        33
34.230        27
34.240        20
34.250        13
34.260        33
34.270        13
34.280        47
34.290        27
34.300        27
34.310        13
34.320        53
34.330        13
34.340         7
34.350        27
34.360        27
34.370        40
34.380        13
34.390        20
34.400        47
34.410        40
34.420        13
34.430         0
34.440        20
34.450        40
34.460        27
34.470        33
34.480         7
34.490        13
34.500        33
34.510        13
34.520        13
34.530        13
34.540        20
34.550        33
34.560        20
34.570         7
34.580         7
34.590        20
34.600        13
34.610        33
34.620        13
34.630        40
34.640         7
34.650        20
34.660        33
34.670        40
34.680        13
34.690        13
34.700        20
34.710        13
34.720        13
34.730        13
34.740         7
34.750        20
34.760        40
34.770        20
34.780        47
34.790        27
34.800        40
34.810        20
34.820        13
34.830        53
34.840        40
34.850         7
34.860        20
34.870         7
34.880        20
34.890        20
34.900        27
34.910        27
34.920        27
34.930        33
34.940        13
34.950        33
34.960        33
34.970        33
34.980        27
34.990        27
35.000        33
35.010        20
35.020        40
35.030        20
35.040         7
35.050        13
35.060        20
35.070        27
35.080        53
35.090        53
35.100        27
35.110        33
35.120        47
35.130        13
35.140        53
35.150        73
35.160        80
35.170        53
35.180        60
35.190        47
35.200        67
35.210        27
35.220        53
35.230        73
35.240        53
35.250        40
35.260        33
35.270        40
35.280        20
35.290        47
35.300        40
35.310        53
35.320         7
35.330        33
35.340        27
35.350        27
35.360        20
35.370        20
35.380         7
35.390        20
35.400        33
35.410        13
35.420         7
35.430        20
35.440        13
35.450         0
35.460        60
35.470         7
35.480        27
35.490        33
35.500         0
35.510        20
35.520         7
35.530        33
35.540        13
35.550        47
35.560        20
35.570        20
35.580        33
35.590        27
35.600        13
35.610        40
35.620        13
35.630        20
35.640        40
35.650        27
35.660         7
35.670        20
35.680        47
35.690        13
35.700        20
35.710        13
35.720        40
35.730         7
35.740        40
35.750        20
35.760         7
35.770         7
35.780        13
35.790        47
35.800        13
35.810        53
35.820        13
35.830        33
35.840         0
35.850        20
35.860        20
35.870         7
35.880        20
35.890        20
35.900        20
35.910        33
35.920        33
35.930        13
35.940        20
35.950         7
35.960        40
35.970         7
35.980        27
35.990         0
36.000        13
36.010        20
36.020        40
36.030        33
36.040        27
36.050        20
36.060        33
36.070        27
36.080         7
36.090        13
36.100        20
36.110         7
36.120        33
36.130        40
36.140        13
36.150        13
36.160        27
36.170        27
36.180        13
36.190        33
36.200        33
36.210        40
36.220        27
36.230        40
36.240        13
36.250        13
36.260         7
36.270        47
36.280        47
36.290        13
36.300        13
36.310        27
36.320        13
36.330        27
36.340        27
36.350        20
36.360        13
36.370        40
36.380        20
36.390        27
36.400        27
36.410        27
36.420        13
36.430        20
36.440        27
36.450        13
36.460        13
36.470         0
36.480         0
36.490         0
36.500        20
36.510        20
36.520        20
36.530        13
36.540         7
36.550         0
36.560        33
36.570        27
36.580        33
36.590        27
36.600        27
36.610        33
36.620        13
36.630        33
36.640        20
36.650        20
36.660        33
36.670        47
36.680        33
36.690        13
36.700        20
36.710        27
36.720        60
36.730        20
36.740        20
36.750        40
36.760         7
36.770        27
36.780        27
36.790        13
36.800        27
36.810        13
36.820        13
36.830        20
36.840        20
36.850         7
36.860        33
36.870        27
36.880        20
36.890        20
36.900        27
36.910        40
36.920        20
36.930        20
36.940        47
36.950        27
36.960        27
36.970         7
36.980         0
36.990        20
37.000        33
37.010        13
37.020        13
37.030         0
37.040         7
37.050        20
37.060        20
37.070        13
37.080        20
37.090        13
37.100        27
37.110        13
37.120        13
37.130        20
37.140        20
37.150        13
37.160        33
37.170        27
37.180        33
37.190        40
37.200        27
37.210        13
37.220        20
37.230        33
37.240         7
37.250        40
37.260        20
37.270        33
37.280         0
37.290        13
37.300        47
37.310        33
37.320        27
37.330        20
37.340        40
37.350        47
37.360        47
37.370        20
37.380        27
37.390         7
37.400        33
37.410        27
37.420        27
37.430        13
37.440        27
37.450        13
37.460        40
37.470        33
37.480        40
37.490        13
37.500        27
37.510        60
37.520        33
37.530        27
37.540        27
37.550         7
37.560        13
37.570        13
37.580        20
37.590        33
37.600        27
37.610        40
37.620        33
37.630         7
37.640        33
37.650        27
37.660         0
37.670         7
37.680        13
37.690        27
37.700        13
37.710        27
37.720        33
37.730        47
37.740        33
37.750        13
37.760        13
37.770        20
37.780        20
37.790        20
37.800        20
37.810        13
37.820        13
37.830        13
37.840        13
37.850        33
37.860        27
37.870        27
37.880        20
37.890        13
37.900        47
37.910        53
37.920        20
37.930        40
37.940        47
37.950        20
37.960        53
37.970        40
37.980        40
37.990        47
38.000        40
38.010        73
38.020        53
38.030       100
38.040        60
38.050        73
38.060        67
38.070       100
38.080       160
38.090       153
38.100       107
38.110       200
38.120       247
38.130       220
38.140       240
38.150       187
38.160       260
38.170       280
38.180       213
38.190       207
38.200       187
38.210       207
38.220       227
38.230       113
38.240       120
38.250       160
38.260       187
38.270       120
38.280       173
38.290       140
38.300        73
38.310        87
38.320        73
38.330        73
38.340        67
38.350        73
38.360        60
38.370        73
38.380        40
38.390        33
38.400        27
38.410        27
38.420         7
38.430        47
38.440        13
38.450        33
38.460        13
38.470        27
38.480        27
38.490        33
38.500        13
38.510        27
38.520        40
38.530        27
38.540        13
38.550        40
38.560        13
38.570        33
38.580        27
38.590        13
38.600        27
38.610        20
38.620        33
38.630        20
38.640        53
38.650        27
38.660        40
38.670        33
38.680         7
38.690        27
38.700        27
38.710         7
38.720        53
38.730        60
38.740        47
38.750        33
38.760        20
38.770        33
38.780        33
38.790        40
38.800        13
38.810        33
38.820        20
38.830        47
38.840         7
38.850        27
38.860        33
38.870         7
38.880         7
38.890        33
38.900        27
38.910        47
38.920        47
38.930        33
38.940        33
38.950        13
38.960        20
38.970        20
38.980        47
38.990        20
39.000         7
39.010        20
39.020        27
39.030        13
39.040         7
39.050        33
39.060         0
39.070        13
39.080        33
39.090        13
39.100        33
39.110        20
39.120         7
39.130         7
39.140        27
39.150        13
39.160        13
39.170        20
39.180        27
39.190        20
39.200        33
39.210        20
39.220        33
39.230        27
39.240        33
39.250        53
39.260        27
39.270        13
39.280        40
39.290        20
39.300        13
39.310        33
39.320        20
39.330        27
39.340        20
39.350         7
39.360        20
39.370        20
39.380         0
39.390        40
39.400         0
39.410        20
39.420        27
39.430        13
39.440        20
39.450        40
39.460        27
39.470        33
39.480        33
39.490        13
39.500        20
39.510         7
39.520        20
39.530        47
39.540        20
39.550        27
39.560        33
39.570        20
39.580        27
39.590        27
39.600        20
39.610        27
39.620        13
39.630        33
39.640        20
39.650        33
39.660        20
39.670         7
39.680        13
39.690        20
39.700        27
39.710        33
39.720        53
39.730        27
39.740        13
39.750        13
39.760         7
39.770        40
39.780        47
39.790        40
39.800        13
39.810        20
39.820        33
39.830        33
39.840        40
39.850        47
39.860         7
39.870        60
39.880        40
39.890        20
39.900        53
39.910        20
39.920        20
39.930         7
39.940        27
39.950        27
39.960         7
39.970        20
39.980        27
39.990         0
40.000        40
40.010        40
40.020        27
40.030        20
40.040        40
40.050        27
40.060        40
40.070        20
40.080        40
40.090        47
40.100        33
40.110        27
40.120        13
40.130         7
40.140        27
40.150        20
40.160        13
40.170        53
40.180        13
40.190        27
40.200        33
40.210        40
40.220        27
40.230        27
40.240        20
40.250         7
40.260         7
40.270        33
40.280        40
40.290        33
40.300        33
40.310        40
40.320         7
40.330        33
40.340        13
40.350        27
40.360        47
40.370        27
40.380        33
40.390        20
40.400         0
40.410        27
40.420        27
40.430        20
40.440         7
40.450         7
40.460         7
40.470        47
40.480         7
40.490        13
40.500        27
40.510        13
40.520         0
40.530         0
40.540        53
40.550        33
40.560        13
40.570        27
40.580        27
40.590        13
40.600        27
40.610        13
40.620        13
40.630        33
40.640        40
40.650        33
40.660        13
40.670         7
40.680         0
40.690         0
40.700        13
40.710        13
40.720        27
40.730        47
40.740         7
40.750        33
40.760        33
40.770        13
40.780        33
40.790        33
40.800        20
40.810        13
40.820        20
40.830        20
40.840        20
40.850         0
40.860        27
40.870        20
40.880        33
40.890        20
40.900        13
40.910        20
40.920        20
40.930        20
40.940        27
40.950        27
40.960        27
40.970        13
40.980        33
40.990        33
41.000        20
41.010        20
41.020        13
41.030        27
41.040        27
41.050        20
41.060        33
41.070        27
41.080        27
41.090        60
41.100        27
41.110        27
41.120        33
41.130         7
41.140        27
41.150        20
41.160        40
41.170         7
41.180        13
41.190        13
41.200        47
41.210        33
41.220        20
41.230         7
41.240        40
41.250        40
41.260        20
41.270        33
41.280         7
41.290        27
41.300         7
41.310        27
41.320        20
41.330        27
41.340        40
41.350        20
41.360        20
41.370        47
41.380        33
41.390        20
41.400         7
41.410        33
41.420        13
41.430         7
41.440        27
41.450        27
41.460        13
41.470        33
41.480        20
41.490        27
41.500        33
41.510        13
41.520        60
41.530        13
41.540        13
41.550        47
41.560        60
41.570        20
41.580        13
41.590        47
41.600        40
41.610        27
41.620        60
41.630        40
41.640        47
41.650        40
41.660        73
41.670        53
41.680       107
41.690        87
41.700       173
41.710        93
41.720        80
41.730        80
41.740        47
41.750        73
41.760        87
41.770        87
41.780        13
41.790        80
41.800        40
41.810        33
41.820        80
41.830       120
41.840        40
41.850        47
41.860        40
41.870        33
41.880        40
41.890        27
41.900        27
41.910        27
41.920        53
41.930        13
41.940         7
41.950        27
41.960         7
41.970        27
41.980        33
41.990        20
42.000        27
42.010        33
42.020        20
42.030        20
42.040        40
42.050         7
42.060        13
42.070        20
42.080        33
42.090        40
42.100        33
42.110        27
42.120        33
42.130        20
42.140        33
42.150        20
42.160        40
42.170        20
42.180        40
42.190        40
42.200        40
42.210        13
42.220        13
42.230        13
42.240        47
42.250        20
42.260        20
42.270        13
42.280        40
42.290        47
42.300        40
42.310        13
42.320        20
42.330        40
42.340        33
42.350        13
42.360        20
42.370        20
42.380        40
42.390        13
42.400        13
42.410        20
42.420        27
42.430        33
42.440         0
42.450        20
42.460         0
42.470        33
42.480        33
42.490        40
42.500        40
42.510        20
42.520        13
42.530        27
42.540        33
42.550        47
42.560        13
42.570        33
42.580        20
42.590         7
42.600        33
42.610        47
42.620        20
42.630        47
42.640        27
42.650        20
42.660        20
42.670        13
42.680        33
42.690        27
42.700        33
42.710        27
42.720        33
42.730        27
42.740        33
42.750         7
42.760        20
42.770        47
42.780        40
42.790        67
42.800        13
42.810        33
42.820        40
42.830        40
42.840        47
42.850         7
42.860        13
42.870         7
42.880        33
42.890        47
42.900        20
42.910        13
42.920        40
42.930        27
42.940        13
42.950        13
42.960        20
42.970        13
42.980        40
42.990        33
43.000        27
43.010        67
43.020        27
43.030        33
43.040        53
43.050        27
43.060        13
43.070        13
43.080        40
43.090        27
43.100        27
43.110        33
43.120        27
43.130        33
43.140        53
43.150        13
43.160        20
43.170        27
43.180        20
43.190        33
43.200        13
43.210        13
43.220        33
43.230        40
43.240        20
43.250        20
43.260        20
43.270        33
43.280        47
43.290        27
43.300        20
43.310         7
43.320        40
43.330        33
43.340        53
43.350        53
43.360        47
43.370        60
43.380        60
43.390       120
43.400       113
43.410       120
43.420        87
43.430        60
43.440        67
43.450        47
43.460        47
43.470        40
43.480        67
43.490        53
43.500        93
43.510        87
43.520        73
43.530        53
43.540        33
43.550        60
43.560        33
43.570        40
43.580        13
43.590        33
43.600        40
43.610        47
43.620        33
43.630        33
43.640        27
43.650        33
43.660        40
43.670        33
43.680        27
43.690        47
43.700        13
43.710        40
43.720        40
43.730        27
43.740        40
43.750        40
43.760        47
43.770        40
43.780        33
43.790        13
43.800        20
43.810         7
43.820        33
43.830        20
43.840        27
43.850        53
43.860        33
43.870         7
43.880        33
43.890        40
43.900        53
43.910        60
43.920        60
43.930        20
43.940        47
43.950        53
43.960        33
43.970        20
43.980        33
43.990        73
44.000        40
44.010        87
44.020        53
44.030        40
44.040        67
44.050        40
44.060        87
44.070       100
44.080        67
44.090       140
44.100       100
44.110       193
44.120       200
44.130       107
44.140       140
44.150       140
44.160       120
44.170       140
44.180       193
44.190       233
44.200       160
44.210       280
44.220       300
44.230       347
44.240       267
44.250       287
44.260       240
44.270       293
44.280       400
44.290       300
44.300       367
44.310       387
44.320       333
44.330       293
44.340       287
44.350       280
44.360       327
44.370       333
44.380       240
44.390       200
44.400       253
44.410       247
44.420       240
44.430       213
44.440       220
44.450       227
44.460       220
44.470       120
44.480       107
44.490       120
44.500       133
44.510       113
44.520        93
44.530       147
44.540        67
44.550       107
44.560       113
44.570        87
44.580        87
44.590        73
44.600        60
44.610        47
44.620        47
44.630        67
44.640        27
44.650        87
44.660        53
44.670        47
44.680        67
44.690        67
44.700        53
44.710        13
44.720        60
44.730        33
44.740        33
44.750        40
44.760        33
44.770        27
44.780        27
44.790        40
44.800        40
44.810        13
44.820        20
44.830        40
44.840        27
44.850        33
44.860        53
44.870        20
44.880        47
44.890        40
44.900        27
44.910        20
44.920         7
44.930        13
44.940        40
44.950        40
44.960        20
44.970        13
44.980        27
44.990        27
45.000        33
45.010        67
45.020        13
45.030        33
45.040        47
45.050        33
45.060        13
45.070        40
45.080        33
45.090        67
45.100        47
45.110        47
45.120        67
45.130        33
45.140        20
45.150        47
45.160        20
45.170        33
45.180        47
45.190         7
45.200        20
45.210         7
45.220        47
45.230        53
45.240        13
45.250        20
45.260        20
45.270        33
45.280        13
45.290        47
45.300        27
45.310        20
45.320        27
45.330        27
45.340        33
45.350        33
45.360        40
45.370        33
45.380        20
45.390         7
45.400        33
45.410         7
45.420         7
45.430        27
45.440        20
45.450        33
45.460        20
45.470        33
45.480        13
45.490        33
45.500        33
45.510        33
45.520         7
45.530        20
45.540        27
45.550        40
45.560         7
45.570        20
45.580        20
45.590        13
45.600        33
45.610        40
45.620        33
45.630        47
45.640        20
45.650        53
45.660        27
45.670        13
45.680        20
45.690         0
45.700        27
45.710        27
45.720        40
45.730        20
45.740        33
45.750         7
45.760        47
45.770        13
45.780        27
45.790         7
45.800        47
45.810        20
45.820        47
45.830        20
45.840        20
45.850        40
45.860        13
45.870        40
45.880        13
45.890        20
45.900        20
45.910        33
45.920        13
45.930        27
45.940        27
45.950        20
45.960         7
45.970        13
45.980        27
45.990        13
46.000        20
46.010        20
46.020         0
46.030        13
46.040        33
46.050        13
46.060        13
46.070        13
46.080        13
46.090        27
46.100        20
46.110        20
46.120        33
46.130        20
46.140        40
46.150        40
46.160        13
46.170        27
46.180         7
46.190        20
46.200        47
46.210        20
46.220        20
46.230        40
46.240        67
46.250        13
46.260        20
46.270        13
46.280        13
46.290        13
46.300         0
46.310        47
46.320        47
46.330        13
46.340        13
46.350        27
46.360        33
46.370        20
46.380        20
46.390        27
46.400        13
46.410        27
46.420        27
46.430        20
46.440        47
46.450        27
46.460        20
46.470        27
46.480        33
46.490        13
46.500        13
46.510         7
46.520         0
46.530        27
46.540        20
46.550        33
46.560        33
46.570        20
46.580        20
46.590        40
46.600        20
46.610        53
46.620        27
46.630        33
46.640        27
46.650        27
46.660        20
46.670        27
46.680        20
46.690        20
46.700        47
46.710        27
46.720        27
46.730        33
46.740        40
46.750        33
46.760        27
46.770        33
46.780         7
46.790        20
46.800        27
46.810        27
46.820        27
46.830        27
46.840        13
46.850        27
46.860        27
46.870        60
46.880         7
46.890        20
46.900        13
46.910        33
46.920        13
46.930        33
46.940        13
46.950        13
46.960        13
46.970        40
46.980        20
46.990        27
47.000        13
47.010        13
47.020         0
47.030        33
47.040        40
47.050        33
47.060        20
47.070        13
47.080        27
47.090         7
47.100        13
47.110        13
47.120        13
47.130        20
47.140         7
47.150        13
47.160        27
47.170        13
47.180        20
47.190        20
47.200        33
47.210        13
47.220         0
47.230        20
47.240        47
47.250        20
47.260        27
47.270        20
47.280        33
47.290        33
47.300        20
47.310        40
47.320        20
47.330        20
47.340        20
47.350        40
47.360         7
47.370        20
47.380        33
47.390        20
47.400        20
47.410        20
47.420        20
47.430        33
47.440        33
47.450        20
47.460         7
47.470        20
47.480        27
47.490        33
47.500        27
47.510        13
47.520        33
47.530        13
47.540        13
47.550        20
47.560        13
47.570        13
47.580        27
47.590        20
47.600        47
47.610        20
47.620        13
47.630        20
47.640        13
47.650        27
47.660        20
47.670         0
47.680         7
47.690        13
47.700        27
47.710        20
47.720        47
47.730        33
47.740        33
47.750        13
47.760        27
47.770        27
47.780        20
47.790        20
47.800        20
47.810        27
47.820        40
47.830        60
47.840        20
47.850        27
47.860        27
47.870        33
47.880        13
47.890         0
47.900        13
47.910        20
47.920        27
47.930        40
47.940         7
47.950         7
47.960        13
47.970        13
47.980        13
47.990        33
48.000        13
48.010        13
48.020        27
48.030        20
48.040        40
48.050        33
48.060        27
48.070        13
48.080        53
48.090        20
48.100        20
48.110        40
48.120        13
48.130        13
48.140        27
48.150        13
48.160        20
48.170        27
48.180        13
48.190        13
48.200        20
48.210        27
48.220        27
48.230        13
48.240         7
48.250        20
48.260        20
48.270        33
48.280         0
48.290         7
48.300        20
48.310        27
48.320        20
48.330        20
48.340        27
48.350        13
48.360        33
48.370        20
48.380        27
48.390         0
48.400        27
48.410        33
48.420        13
48.430        13
48.440         7
48.450         7
48.460         7
48.470        13
48.480        47
48.490        13
48.500         7
48.510        20
48.520         7
48.530        33
48.540        40
48.550        27
48.560         0
48.570        33
48.580        47
48.590        20
48.600        27
48.610        33
48.620        27
48.630         0
48.640        47
48.650        13
48.660        20
48.670         7
48.680         0
48.690        13
48.700        27
48.710         7
48.720        40
48.730        13
48.740         0
48.750        13
48.760        33
48.770        27
48.780        20
48.790        13
48.800        27
48.810         7
48.820        20
48.830        13
48.840        13
48.850        33
48.860        13
48.870        13
48.880        33
48.890        20
48.900        20
48.910        13
48.920        27
48.930        47
48.940        33
48.950        13
48.960        13
48.970        13
48.980        13
48.990        20
49.000        27
49.010        33
49.020        13
49.030        13
49.040        40
49.050         7
49.060        20
49.070        13
49.080        13
49.090        40
49.100        33
49.110        40
49.120        33
49.130        27
49.140        27
49.150         7
49.160        33
49.170        33
49.180        27
49.190         0
49.200        53
49.210        20
49.220        40
49.230        20
49.240        33
49.250        13
49.260         7
49.270        13
49.280        33
49.290        33
49.300        20
49.310        27
49.320        27
49.330        40
49.340        27
49.350        20
49.360        13
49.370        27
49.380        20
49.390        13
49.400        27
49.410         7
49.420        20
49.430        20
49.440        33
49.450        20
49.460        27
49.470        13
49.480        53
49.490        13
49.500         7
49.510         7
49.520         7
49.530         7
49.540        13
49.550        13
49.560        47
49.570        33
49.580        27
49.590         7
49.600        13
49.610        27
49.620        33
49.630        20
49.640        13
49.650        13
49.660        20
49.670        13
49.680        20
49.690         7
49.700         7
49.710        13
49.720        20
49.730        27
49.740        20
49.750        33
49.760         7
49.770        33
49.780        40
49.790         7
49.800        40
49.810        40
49.820        20
49.830        13
49.840         7
49.850         7
49.860        33
49.870        27
49.880        27
49.890         7
49.900        27
49.910        33
49.920        13
49.930        60
49.940        27
49.950        27
49.960        20
49.970        13
49.980         7
49.990        13
50.000        33
50.010        20
50.020        33
50.030        27
50.040        20
50.050        13
50.060        20
50.070         7
50.080        27
50.090        20
50.100        33
50.110        20
50.120         0
50.130         0
50.140        27
50.150        13
50.160        20
50.170        20
50.180        13
50.190        13
50.200         7
50.210        13
50.220        13
50.230         7
50.240        27
50.250        33
50.260        20
50.270        13
50.280         7
50.290        13
50.300        20
50.310        40
50.320         7
50.330        13
50.340        13
50.350        13
50.360        20
50.370         7
50.380        20
50.390        27
50.400        27
50.410        20
50.420        27
50.430         7
50.440        20
50.450        13
50.460         7
50.470        13
50.480        27
50.490         7
50.500        27
50.510         7
50.520        20
50.530        13
50.540        13
50.550        27
50.560        13
50.570        20
50.580        40
50.590        13
50.600        27
50.610        47
50.620        20
50.630        20
50.640        27
50.650        27
50.660        20
50.670        33
50.680         7
50.690        27
50.700        13
50.710        20
50.720        20
50.730        47
50.740        27
50.750        20
50.760        13
50.770        20
50.780         7
50.790        27
50.800        27
50.810        33
50.820        27
50.830        33
50.840        27
50.850        53
50.860        13
50.870        20
50.880        27
50.890        40
50.900        27
50.910        27
50.920        33
50.930        27
50.940        13
50.950        20
50.960        27
50.970        13
50.980        13
50.990         0
51.000         0
51.010         7
51.020         7
51.030         0
51.040        27
51.050         0
51.060         7
51.070        20
51.080        20
51.090        13
51.100        27
51.110        20
51.120        40
51.130        20
51.140        33
51.150        27
51.160        13
51.170        20
51.180        33
51.190        33
51.200         7
51.210        40
51.220        40
51.230        20
51.240        13
51.250        33
51.260        27
51.270         7
51.280         0
51.290        33
51.300        13
51.310        20
51.320        20
51.330         7
51.340        13
51.350        20
51.360        20
51.370        13
51.380        20
51.390        27
51.400        20
51.410         7
51.420        20
51.430         7
51.440        40
51.450        20
51.460        27
51.470         7
51.480        40
51.490        13
51.500        27
51.510        33
51.520        13
51.530        20
51.540        33
51.550        40
51.560        20
51.570        20
51.580        33
51.590         0
51.600        27
51.610         0
51.620        20
51.630         0
51.640         7
51.650        20
51.660        33
51.670        20
51.680        20
51.690        13
51.700        13
51.710         0
51.720         7
51.730        33
51.740        13
51.750        13
51.760        20
51.770        13
51.780        40
51.790        20
51.800        20
51.810        13
51.820        20
51.830        33
51.840        13
51.850        20
51.860        20
51.870        20
51.880        33
51.890        13
51.900        27
51.910         7
51.920         7
51.930        33
51.940        20
51.950         7
51.960        27
51.970         7
51.980        13
51.990        27
52.000        27
52.010        20
52.020        13
52.030        33
52.040        13
52.050        13
52.060        20
52.070        27
52.080         7
52.090         7
52.100        20
52.110        47
52.120        20
52.130         7
52.140        13
52.150        33
52.160        33
52.170        20
52.180         7
52.190        13
52.200         7
52.210        13
52.220        13
52.230        27
52.240        13
52.250         0
52.260         7
52.270         7
52.280         7
52.290         7
52.300        33
52.310         7
52.320         7
52.330         0
52.340         7
52.350        13
52.360        20
52.370        13
52.380        13
52.390        20
52.400         0
52.410        20
52.420        13
52.430        33
52.440        33
52.450        13
52.460        40
52.470        33
52.480        13
52.490        13
52.500         7
52.510        13
52.520         7
52.530        13
52.540        27
52.550        20
52.560        27
52.570         0
52.580        13
52.590        27
52.600        13
52.610        27
52.620        20
52.630        20
52.640        13
52.650        27
52.660        20
52.670         7
52.680        20
52.690        33
52.700        47
52.710        20
52.720         7
52.730        53
52.740        20
52.750         7
52.760        27
52.770         7
52.780        13
52.790         7
52.800        27
52.810        20
52.820        27
52.830         7
52.840        27
52.850         7
52.860        13
52.870        20
52.880         7
52.890         7
52.900        27
52.910        20
52.920        13
52.930        13
52.940         0
52.950        13
52.960        20
52.970        13
52.980        13
52.990        13
53.000        13
53.010        33
53.020        33
53.030        20
53.040        13
53.050         0
53.060        33
53.070        40
53.080        27
53.090         7
53.100         7
53.110         7
53.120        13
53.130        20
53.140        27
53.150        33
53.160        27
53.170        33
53.180        13
53.190        33
53.200        33
53.210        13
53.220        20
53.230         7
53.240        20
53.250        27
53.260        27
53.270        13
53.280        20
53.290        27
53.300         7
53.310        13
53.320        27
53.330        20
53.340        27
53.350         0
53.360        13
53.370        33
53.380        53
53.390        20
53.400        20
53.410        13
53.420        20
53.430        27
53.440        33
53.450        13
53.460         0
53.470        53
53.480        27
53.490        20
53.500        20
53.510        13
53.520        27
53.530        20
53.540        20
53.550        13
53.560         7
53.570        27
53.580        27
53.590        13
53.600        13
53.610        20
53.620        20
53.630        20
53.640         7
53.650        27
53.660        40
53.670         7
53.680         7
53.690        20
53.700        53
53.710        27
53.720        13
53.730        13
53.740         7
53.750        20
53.760        27
53.770        20
53.780        33
53.790        27
53.800        13
53.810        33
53.820        20
53.830        13
53.840        27
53.850         7
53.860        13
53.870        27
53.880        40
53.890        27
53.900        13
53.910        20
53.920         7
53.930        13
53.940        20
53.950         7
53.960        20
53.970        27
53.980        13
53.990        27
54.000        13
54.010        13
54.020         7
54.030        20
54.040         7
54.050         7
54.060         7
54.070        13
54.080        60
54.090        13
54.100        27
54.110         7
54.120        33
54.130         7
54.140        33
54.150        13
54.160        27
54.170        33
54.180        40
54.190         0
54.200         0
54.210        27
54.220        13
54.230        13
54.240        20
54.250        13
54.260        20
54.270        47
54.280        20
54.290        27
54.300        40
54.310        13
54.320         0
54.330        20
54.340        13
54.350         7
54.360        20
54.370        27
54.380        20
54.390        20
54.400         7
54.410        27
54.420        20
54.430         7
54.440        27
54.450        13
54.460         7
54.470        20
54.480        13
54.490        20
54.500        40
54.510        33
54.520        27
54.530        13
54.540        33
54.550        33
54.560        13
54.570        33
54.580         7
54.590        40
54.600        33
54.610         7
54.620        40
54.630        40
54.640        27
54.650        27
54.660        33
54.670        40
54.680        40
54.690        47
54.700        13
54.710        27
54.720        27
54.730        40
54.740        33
54.750        47
54.760        53
54.770        20
54.780        20
54.790        47
54.800         0
54.810        47
54.820        67
54.830        47
54.840        47
54.850        33
54.860        87
54.870        40
54.880        60
54.890        73
54.900        53
54.910        47
54.920        67
54.930       153
54.940       167
54.950       127
54.960       180
54.970       113
54.980       160
54.990       160
55.000       167
55.010       187
55.020       167
55.030       173
55.040       193
55.050       213
55.060       153
55.070       220
55.080       180
55.090       187
55.100       200
55.110       180
55.120       187
55.130       167
55.140       147
55.150       127
55.160       127
55.170       187
55.180       100
55.190       120
55.200       113
55.210       147
55.220       120
55.230       127
55.240        80
55.250        60
55.260        53
55.270        93
55.280        47
55.290        87
55.300        53
55.310        80
55.320        40
55.330        47
55.340        33
55.350        53
55.360        67
55.370        20
55.380        47
55.390        40
55.400        33
55.410        33
55.420        27
55.430        20
55.440        20
55.450        40
55.460        20
55.470        27
55.480        20
55.490        27
55.500         7
55.510        20
55.520         7
55.530        33
55.540        27
55.550        13
55.560        40
55.570        27
55.580        13
55.590        27
55.600        13
55.610        13
55.620         7
55.630        20
55.640        13
55.650        13
55.660        13
55.670        20
55.680        47
55.690        33
55.700        33
55.710        27
55.720        20
55.730        27
55.740        60
55.750         7
55.760        13
55.770        13
55.780        33
55.790        13
55.800        33
55.810        13
55.820        27
55.830        20
55.840        20
55.850         7
55.860        20
55.870        20
55.880        20
55.890        27
55.900        13
55.910         7
55.920        20
55.930        27
55.940        13
55.950        20
55.960         7
55.970        40
55.980        13
55.990         7
56.000        20
56.010        27
56.020        20
56.030        27
56.040        27
56.050        33
56.060        20
56.070        60
56.080        20
56.090        27
56.100        27
56.110        27
56.120         7
56.130        27
56.140        20
56.150        33
56.160         7
56.170        13
56.180        13
56.190        47
56.200         7
56.210        20
56.220        20
56.230        20
56.240         7
56.250        13
56.260        33
56.270        13
56.280         0
56.290         0
56.300        20
56.310        13
56.320        53
56.330        20
56.340        20
56.350        33
56.360        33
56.370        13
56.380        20
56.390        13
56.400        20
56.410         7
56.420        20
56.430        47
56.440        27
56.450        13
56.460        13
56.470        13
56.480        13
56.490        13
56.500        20
56.510        13
56.520        40
56.530        27
56.540        13
56.550        33
56.560         0
56.570        13
56.580        33
56.590        47
56.600        20
56.610         7
56.620        27
56.630         0
56.640        13
56.650        13
56.660        13
56.670         7
56.680        13
56.690         7
56.700        20
56.710        20
56.720         7
56.730        27
56.740         7
56.750         7
56.760        20
56.770        27
56.780        27
56.790         7
56.800        27
56.810         7
56.820        20
56.830        20
56.840        13
56.850        13
56.860         0
56.870        33
56.880        33
56.890        33
56.900        53
56.910        13
56.920         7
56.930         7
56.940        33
56.950        20
56.960        33
56.970        13
56.980        33
56.990        13
57.000        13
57.010        27
57.020        20
57.030        33
57.040        13
57.050        20
57.060        20
57.070        40
57.080         0
57.090        27
57.100        13
57.110         0
57.120         7
57.130         7
57.140         7
57.150        13
57.160         7
57.170        20
57.180        27
57.190        33
57.200        20
57.210        13
57.220        20
57.230        20
57.240        33
57.250         7
57.260        20
57.270         0
57.280        13
57.290        13
57.300        27
57.310        20
57.320        27
57.330        27
57.340        13
57.350        13
57.360        13
57.370        40
57.380        20
57.390         7
57.400         7
57.410        20
57.420        53
57.430        13
57.440        20
57.450        33
57.460        40
57.470        20
57.480        40
57.490        20
57.500        27
57.510        53
57.520        80
57.530        47
57.540        73
57.550        33
57.560        27
57.570        47
57.580        67
57.590        67
57.600        53
57.610        53
57.620        27
57.630        67
57.640        20
57.650        27
57.660        47
57.670        27
57.680        47
57.690        13
57.700        40
57.710        13
57.720        60
57.730        47
57.740        33
57.750        33
57.760        40
57.770        27
57.780         7
57.790        20
57.800        33
57.810         0
57.820         7
57.830        20
57.840        20
57.850         7
57.860        20
57.870        27
57.880        20
57.890        20
57.900        20
57.910        20
57.920         0
57.930         7
57.940        27
57.950        13
57.960        13
57.970        13
57.980         7
57.990         7
58.000        27
58.010        27
58.020        27
58.030         7
58.040        33
58.050        13
58.060        13
58.070        13
58.080         0
58.090         7
58.100        20
58.110        27
58.120         7
58.130        13
58.140         7
58.150        20
58.160        40
58.170        67
58.180        13
58.190         7
58.200        13
58.210        20
58.220        27
58.230         7
58.240        13
58.250        13
58.260         7
58.270        20
58.280        13
58.290         7
58.300        13
58.310        13
58.320         7
58.330         0
58.340        27
58.350        33
58.360        13
58.370        27
58.380         7
58.390        20
58.400        20
58.410         0
58.420         7
58.430        13
58.440         7
58.450         7
58.460        20
58.470         0
58.480         0
58.490        13
58.500        20
58.510         7
58.520        13
58.530         7
58.540         0
58.550        20
58.560        27
58.570         0
58.580         7
58.590        27
58.600         7
58.610        13
58.620        27
58.630        13
58.640        20
58.650        13
58.660         7
58.670        13
58.680        13
58.690         0
58.700         0
58.710        33
58.720        13
58.730        20
58.740        13
58.750        33
58.760         7
58.770        27
58.780         7
58.790        13
58.800        13
58.810        13
58.820         7
58.830        20
58.840         0
58.850         7
58.860        20
58.870        13
58.880         0
58.890        13
58.900         7
58.910        13
58.920        27
58.930        20
58.940         7
58.950        13
58.960        13
58.970        47
58.980        27
58.990        13
59.000        13
59.010        13
59.020         7
59.030        27
59.040         0
59.050        13
59.060        20
59.070         7
59.080        20
59.090        13
59.100        40
59.110         7
59.120        13
59.130        13
59.140        27
59.150        20
59.160        13
59.170        27
59.180        13
59.190         7
59.200        20
59.210        13
59.220        27
59.230        33
59.240        13
59.250        13
59.260        20
59.270        13
59.280        47
59.290        20
59.300        13
59.310         0
59.320        33
59.330         7
59.340        27
59.350        20
59.360         7
59.370        33
59.380         7
59.390        13
59.400        13
59.410        33
59.420         7
59.430        53
59.440        47
59.450        27
59.460         0
59.470        13
59.480         7
59.490        20
59.500         7
59.510        20
59.520        27
59.530        13
59.540        27
59.550        20
59.560        20
59.570        27
59.580        20
59.590        27
59.600         7
59.610         0
59.620         7
59.630        67
59.640        33
59.650        13
59.660        27
59.670        20
59.680        13
59.690        33
59.700        13
59.710        33
59.720         7
59.730        13
59.740        20
59.750         7
59.760        20
59.770         7
59.780        20
59.790         0
59.800        13
59.810         0
59.820        27
59.830        20
59.840        27
59.850        27
59.860        27
59.870        13
59.880        20
59.890        20
59.900         7
59.910        13
59.920        27
59.930         7
59.940         0
59.950         7
59.960         0
59.970         7
59.980        13
59.990         7
60.000         7
