20.000        67
20.010        33
20.020        80
20.030        73
20.040        53
20.050        73
20.060        47
20.070        87
20.080        87
20.090        93
20.100        53
20.110        40
20.120       113
20.130        87
20.140        60
20.150       127
20.160        60
20.170        93
20.180        60
20.190       113
20.200        47
20.210        47
20.220        73
20.230        47
20.240        53
20.250        33
20.260        47
20.270        27
20.280        67
20.290        80
20.300        53
20.310        80
20.320        53
20.330        27
20.340        53
20.350        53
20.360        53
20.370        53
20.380        67
20.390        73
20.400        40
20.410        33
20.420        13
20.430        73
20.440        47
20.450        20
20.460        47
20.470        60
20.480        67
20.490        53
20.500        33
20.510        53
20.520        20
20.530        60
20.540        33
20.550        67
20.560        53
20.570        33
20.580        53
20.590        40
20.600        67
20.610        40
20.620        53
20.630        60
20.640        33
20.650        60
20.660         0
20.670        33
20.680        33
20.690        33
20.700        27
20.710        40
20.720        33
20.730        33
20.740        27
20.750        47
20.760        40
20.770        40
20.780        20
20.790        33
20.800        53
20.810        67
20.820        47
20.830        20
20.840        53
20.850        33
20.860        13
20.870        67
20.880        40
20.890        27
20.900        80
20.910        27
20.920        40
20.930        27
20.940        73
20.950        27
20.960        33
20.970        53
20.980        27
20.990        60
21.000        47
21.010        53
21.020        67
21.030        53
21.040        40
21.050        47
21.060        27
21.070        73
21.080        27
21.090        40
21.100        40
21.110        33
21.120        60
21.130        53
21.140        60
21.150        67
21.160        40
21.170        53
21.180        60
21.190        40
21.200        33
21.210        27
21.220        40
21.230        60
21.240        40
21.250        60
21.260        60
21.270        40
21.280        53
21.290        73
21.300        47
21.310        53
21.320        67
21.330        47
21.340        40
21.350        80
21.360        40
21.370        27
21.380        20
21.390        47
21.400        47
21.410        67
21.420        27
21.430        53
21.440        33
21.450        60
21.460        60
21.470        33
21.480        33
21.490        33
21.500        20
21.510        27
21.520        80
21.530        33
21.540        53
21.550        60
21.560        33
21.570        27
21.580        67
21.590        13
21.600        47
21.610        33
21.620        67
21.630        73
21.640        40
21.650        47
21.660        47
21.670        67
21.680        33
21.690        40
21.700        47
21.710        40
21.720        20
21.730        40
21.740        67
21.750        60
21.760       113
21.770        53
21.780        33
21.790        27
21.800        47
21.810        47
21.820        40
21.830        60
21.840        53
21.850        40
21.860        53
21.870        33
21.880        27
21.890        27
21.900        40
21.910        33
21.920        33
21.930        53
21.940        27
21.950        53
21.960        53
21.970        80
21.980        33
21.990        53
22.000        53
22.010        87
22.020        60
22.030        80
22.040        67
22.050        20
22.060        33
22.070        33
22.080        80
22.090        80
22.100        47
22.110        87
22.120        67
22.130        67
22.140        53
22.150        40
22.160        67
22.170        47
22.180        87
22.190        47
22.200        53
22.210        40
22.220        53
22.230       113
22.240        93
22.250        93
22.260       100
22.270       167
22.280        87
22.290       133
22.300        93
22.310       120
22.320       187
22.330       147
22.340       167
22.350       127
22.360       187
22.370       287
22.380       293
22.390       247
22.400       293
22.410       367
22.420       367
22.430       353
22.440       446
22.450       466
22.460       506
22.470       626
22.480       633
22.490       773
22.500       786
22.510       800
22.520       746
22.530       760
22.540       900
22.550       833
22.560       886
22.570       813
22.580       766
22.590       720
22.600       686
22.610       653
22.620       526
22.630       580
22.640       480
22.650       387
22.660       373
22.670       307
22.680       300
22.690       240
22.700       287
22.710       187
22.720       173
22.730       133
22.740        53
22.750       133
22.760       100
22.770        87
22.780       100
22.790        60
22.800        93
22.810        53
22.820        47
22.830        40
22.840        53
22.850        40
22.860        47
22.870        27
22.880        47
22.890        53
22.900        27
22.910        60
22.920        53
22.930        40
22.940        27
22.950        73
22.960        33
22.970        53
22.980        13
22.990        67
23.000        47
23.010        93
23.020        73
23.030        33
23.040        33
23.050        53
23.060        67
23.070        80
23.080        47
23.090        40
23.100        73
23.110        53
23.120        60
23.130        40
23.140        53
23.150        60
23.160        53
23.170        67
23.180        60
23.190        53
23.200        47
23.210        33
23.220        20
23.230        53
23.240        53
23.250        67
23.260        33
23.270        53
23.280        53
23.290        60
23.300        53
23.310        27
23.320        47
23.330        27
23.340        27
23.350        60
23.360        60
23.370        47
23.380        67
23.390        27
23.400        47
23.410        53
23.420        53
23.430        27
23.440        53
23.450        53
23.460        47
23.470        40
23.480        53
23.490        60
23.500        27
23.510        53
23.520        80
23.530        53
23.540        67
23.550        40
23.560        80
23.570        40
23.580        93
23.590        47
23.600        60
23.610        40
23.620        40
23.630        93
23.640        33
23.650        60
23.660        20
23.670        53
23.680        27
23.690        27
23.700        33
23.710        60
23.720        20
23.730        27
23.740        20
23.750        40
23.760        60
23.770        80
23.780        47
23.790        40
23.800        27
23.810        53
23.820        80
23.830        67
23.840        40
23.850        40
23.860        80
23.870        13
23.880        33
23.890        20
23.900        53
23.910        67
23.920        13
23.930        60
23.940        40
23.950        53
23.960        53
23.970        47
23.980        53
23.990        40
24.000        33
24.010        40
24.020        27
24.030        20
24.040        53
24.050        20
24.060        27
24.070        60
24.080        73
24.090        47
24.100       120
24.110        80
24.120        67
24.130        47
24.140        47
24.150        27
24.160        33
24.170        60
24.180        60
24.190        73
24.200         7
24.210        40
24.220        40
24.230        33
24.240        33
24.250        27
24.260        27
24.270        47
24.280        47
24.290        13
24.300        73
24.310        53
24.320        33
24.330        20
24.340        40
24.350        53
24.360        67
24.370        53
24.380        33
24.390        60
24.400        60
24.410        73
24.420        47
24.430        47
24.440        60
24.450        40
24.460        40
24.470        33
24.480        53
24.490        47
24.500        53
24.510        20
24.520        53
24.530        60
24.540        20
24.550        20
24.560        53
24.570        40
24.580        20
24.590        60
24.600        53
24.610        67
24.620        33
24.630        47
24.640        73
24.650        33
24.660        53
24.670        20
24.680        40
24.690        40
24.700        27
24.710        40
24.720        53
24.730        53
24.740        40
24.750        33
24.760        60
24.770        47
24.780        60
24.790        20
24.800        47
24.810        60
24.820        33
24.830        60
24.840        60
24.850        47
24.860        53
24.870        40
24.880        27
24.890        33
24.900        40
24.910        60
24.920        67
24.930        67
24.940        53
24.950        73
24.960        20
24.970        33
24.980        53
24.990        27
25.000        73
25.010        53
25.020        67
25.030        60
25.040        87
25.050        40
25.060        33
25.070        53
25.080        67
25.090        20
25.100        47
25.110        33
25.120        53
25.130        47
25.140        80
25.150        33
25.160        47
25.170        47
25.180        33
25.190        47
25.200        33
25.210        53
25.220        53
25.230        20
25.240        20
25.250        53
25.260        33
25.270        47
25.280        47
25.290        40
25.300        60
25.310        33
25.320        40
25.330        53
25.340        40
25.350        60
25.360        33
25.370        40
25.380        60
25.390        87
25.400        33
25.410        47
25.420        80
25.430        67
25.440       107
25.450        87
25.460        73
25.470       100
25.480       133
25.490       100
25.500       200
25.510       127
25.520       127
25.530       133
25.540       147
25.550       147
25.560       173
25.570       173
25.580       293
25.590       220
25.600       287
25.610       240
25.620       367
25.630       327
25.640       353
25.650       353
25.660       540
25.670       466
25.680       573
25.690       520
25.700       713
25.710       753
25.720       906
25.730       953
25.740       980
25.750      1133
25.760      1193
25.770      1093
25.780      1233
25.790      1193
25.800      1273
25.810      1080
25.820      1046
25.830       853
25.840       833
25.850       733
25.860       720
25.870       540
25.880       387
25.890       380
25.900       347
25.910       260
25.920       220
25.930       267
25.940       160
25.950       120
25.960       127
25.970        53
25.980       167
25.990       107
26.000       153
26.010        67
26.020        80
26.030        67
26.040        60
26.050        87
26.060        60
26.070        40
26.080        33
26.090        67
26.100        80
26.110        27
26.120        33
26.130        60
26.140        40
26.150        67
26.160        40
26.170        67
26.180        60
26.190        67
26.200        47
26.210        53
26.220        60
26.230        40
26.240        47
26.250        60
26.260        73
26.270        53
26.280        53
26.290        60
26.300        40
26.310        33
26.320        20
26.330        40
26.340        33
26.350        40
26.360        40
26.370        47
26.380        67
26.390        33
26.400        47
26.410        27
26.420        33
26.430        13
26.440        60
26.450        20
26.460        33
26.470        60
26.480        40
26.490        20
26.500        47
26.510        20
26.520        27
26.530        47
26.540        47
26.550        47
26.560        40
26.570        80
26.580        53
26.590        33
26.600        47
26.610        27
26.620        67
26.630        27
26.640        53
26.650        13
26.660        53
26.670        67
26.680        53
26.690        33
26.700        87
26.710        80
26.720        53
26.730        40
26.740        47
26.750        53
26.760        60
26.770        33
26.780        67
26.790        73
26.800        53
26.810        40
26.820         7
26.830        13
26.840        60
26.850        47
26.860        53
26.870        47
26.880        60
26.890        40
26.900        20
26.910        40
26.920        27
26.930        27
26.940        33
26.950        33
26.960        40
26.970        33
26.980        33
26.990        47
27.000        33
27.010        33
27.020        40
27.030        33
27.040        20
27.050        27
27.060        40
27.070        60
27.080        47
27.090        47
27.100        27
27.110        33
27.120        20
27.130        47
27.140        67
27.150        47
27.160        47
27.170        40
27.180        20
27.190        67
27.200        60
27.210        20
27.220        40
27.230        53
27.240        60
27.250        53
27.260        40
27.270        33
27.280        47
27.290        33
27.300        27
27.310        53
27.320        47
27.330        67
27.340        60
27.350        33
27.360        53
27.370        40
27.380        33
27.390        40
27.400        20
27.410        47
27.420        53
27.430        40
27.440        67
27.450        13
27.460        27
27.470        60
27.480        27
27.490        27
27.500        47
27.510        40
27.520        33
27.530        27
27.540        20
27.550        20
27.560        33
27.570        13
27.580        27
27.590        73
27.600        60
27.610        73
27.620        60
27.630        20
27.640        53
27.650        60
27.660        40
27.670        40
27.680        53
27.690        47
27.700        93
27.710       100
27.720        20
27.730        67
27.740        73
27.750        67
27.760        47
27.770        33
27.780        67
27.790        47
27.800        33
27.810        93
27.820        40
27.830        27
27.840        27
27.850        67
27.860        33
27.870        47
27.880        60
27.890        47
27.900        47
27.910        20
27.920        60
27.930        40
27.940        73
27.950        53
27.960        47
27.970        33
27.980        53
27.990        40
28.000        27
28.010        33
28.020        40
28.030        20
28.040        33
28.050        33
28.060        33
28.070        33
28.080        67
28.090        47
28.100        27
28.110        27
28.120        47
28.130        33
28.140        60
28.150        33
28.160        53
28.170        87
28.180        60
28.190        27
28.200        60
28.210        67
28.220        40
28.230        20
28.240        47
28.250        27
28.260        27
28.270        33
28.280        33
28.290        67
28.300        47
28.310        47
28.320        33
28.330        47
28.340        60
28.350        33
28.360        33
28.370        33
28.380        47
28.390        40
28.400        27
28.410        20
28.420        47
28.430        47
28.440        53
28.450        47
28.460        20
28.470        33
28.480        20
28.490        87
28.500        47
28.510        13
28.520        33
28.530        67
28.540        73
28.550        53
28.560        67
28.570       113
28.580        53
28.590        87
28.600        67
28.610        80
28.620       107
28.630        60
28.640        87
28.650       127
28.660       113
28.670        93
28.680       133
28.690       113
28.700        93
28.710        67
28.720        60
28.730        67
28.740        80
28.750        73
28.760        53
28.770       120
28.780        87
28.790        87
28.800        53
28.810        67
28.820        73
28.830        60
28.840        53
28.850        47
28.860        60
28.870        47
28.880        60
28.890        47
28.900        60
28.910        47
28.920        60
28.930        33
28.940        47
28.950        13
28.960        80
28.970        33
28.980        73
28.990        40
29.000        67
29.010        33
29.020        60
29.030        53
29.040        33
29.050        40
29.060        67
29.070        20
29.080        47
29.090        60
29.100        53
29.110        40
29.120        27
29.130        53
29.140        60
29.150        47
29.160        87
29.170        33
29.180        80
29.190        67
29.200        53
29.210        20
29.220        40
29.230        40
29.240        60
29.250        40
29.260        60
29.270        47
29.280        60
29.290        47
29.300        67
29.310        73
29.320       120
29.330       120
29.340       107
29.350        87
29.360       160
29.370       133
29.380       187
29.390       160
29.400       220
29.410       160
29.420       200
29.430       293
29.440       373
29.450       347
29.460       493
29.470       426
29.480       586
29.490       560
29.500       626
29.510       726
29.520       773
29.530      1073
29.540      1066
29.550      1240
29.560      1113
29.570      1173
29.580      1186
29.590      1040
29.600       933
29.610       860
29.620      1026
29.630       753
29.640       646
29.650       680
29.660       613
29.670       546
29.680       453
29.690       387
29.700       387
29.710       273
29.720       307
29.730       207
29.740       173
29.750       193
29.760       140
29.770       120
29.780       180
29.790       133
29.800       167
29.810        87
29.820       127
29.830        73
29.840        93
29.850        93
29.860        80
29.870        73
29.880        40
29.890        60
29.900        87
29.910        53
29.920        67
29.930        60
29.940        67
29.950        53
29.960        40
29.970        73
29.980        60
29.990        13
30.000        40
30.010        33
30.020        53
30.030        53
30.040        20
30.050        47
30.060        47
30.070        73
30.080        67
30.090        60
30.100        73
30.110        67
30.120        53
30.130        80
30.140        47
30.150        93
30.160        73
30.170        87
30.180        87
30.190       107
30.200       113
30.210       120
30.220       153
30.230       173
30.240       127
30.250       193
30.260       180
30.270       147
30.280       200
30.290       247
30.300       267
30.310       187
30.320       280
30.330       307
30.340       327
30.350       307
30.360       433
30.370       440
30.380       633
30.390       593
30.400       700
30.410       860
30.420       840
30.430       840
30.440       726
30.450       820
30.460       700
30.470       726
30.480       693
30.490       673
30.500       560
30.510       526
30.520       533
30.530       453
30.540       373
30.550       446
30.560       267
30.570       260
30.580       233
30.590       187
30.600       193
30.610       160
30.620        87
30.630        73
30.640        53
30.650       140
30.660        80
30.670        60
30.680        40
30.690        80
30.700        73
30.710        87
30.720        47
30.730        73
30.740        47
30.750        53
30.760        73
30.770        73
30.780        60
30.790        73
30.800        33
30.810        40
30.820        20
30.830        40
30.840        47
30.850        33
30.860        67
30.870        53
30.880        53
30.890        20
30.900        53
30.910        53
30.920        27
30.930        33
30.940        53
30.950        40
30.960        33
30.970        27
30.980        33
30.990        60
31.000        40
31.010        60
31.020        40
31.030        53
31.040        27
31.050        27
31.060        27
31.070        27
31.080        40
31.090        33
31.100        27
31.110        13
31.120        53
31.130        40
31.140        13
31.150        53
31.160        40
31.170        73
31.180        53
31.190        27
31.200        53
31.210        40
31.220        13
31.230        67
31.240        60
31.250        47
31.260        20
31.270        60
31.280        47
31.290        53
31.300        27
31.310        47
31.320        47
31.330        53
31.340        20
31.350        53
31.360        40
31.370        80
31.380         7
31.390        60
31.400        60
31.410        67
31.420        47
31.430         7
31.440        27
31.450         7
31.460         7
31.470        33
31.480        13
31.490        47
31.500        53
31.510        33
31.520        27
31.530        73
31.540        67
31.550        40
31.560        20
31.570        47
31.580        60
31.590        47
31.600        13
31.610        47
31.620        33
31.630        53
31.640        53
31.650         0
31.660        27
31.670        53
31.680        47
31.690        53
31.700        33
31.710        40
31.720        40
31.730        40
31.740        27
31.750        53
31.760        40
31.770        53
31.780        47
31.790        27
31.800        40
31.810        93
31.820        53
31.830        67
31.840        67
31.850        73
31.860        47
31.870        33
31.880        93
31.890        80
31.900        87
31.910        87
31.920       140
31.930       107
31.940       140
31.950       153
31.960       167
31.970       173
31.980       173
31.990       227
32.000       187
32.010       273
32.020       287
32.030       247
32.040       380
32.050       440
32.060       533
32.070       453
32.080       606
32.090       566
32.100       700
32.110       693
32.120       620
32.130       706
32.140       733
32.150       560
32.160       773
32.170       720
32.180       620
32.190       500
32.200       560
32.210       480
32.220       460
32.230       433
32.240       426
32.250       400
32.260       300
32.270       307
32.280       173
32.290       180
32.300       193
32.310       120
32.320       180
32.330       133
32.340        87
32.350        73
32.360        53
32.370        80
32.380        73
32.390        80
32.400        67
32.410        40
32.420        47
32.430        47
32.440        33
32.450        53
32.460        40
32.470        33
32.480        47
32.490        53
32.500        27
32.510        33
32.520        60
32.530        93
32.540        53
32.550        40
32.560        53
32.570        60
32.580        53
32.590        47
32.600        40
32.610        27
32.620        33
32.630        80
32.640        47
32.650        53
32.660        40
32.670        20
32.680        40
32.690        40
32.700        47
32.710        40
32.720        33
32.730        60
32.740        13
32.750        20
32.760        40
32.770        40
32.780        33
32.790        47
32.800         7
32.810        20
32.820        13
32.830        33
32.840        27
32.850         0
32.860        20
32.870        40
32.880        33
32.890        27
32.900        13
32.910        27
32.920        40
32.930        27
32.940        20
32.950        33
32.960        33
32.970        33
32.980        27
32.990        33
33.000        33
33.010        13
33.020        60
33.030        40
33.040         7
33.050        27
33.060        20
33.070        73
33.080        53
33.090         7
33.100        27
33.110         0
33.120        33
33.130        20
33.140        27
33.150        27
33.160        40
33.170        40
33.180         0
33.190        33
33.200        27
33.210        27
33.220        27
33.230        33
33.240        27
33.250        27
33.260        27
33.270        13
33.280        27
33.290        33
33.300        20
33.310        20
33.320        20
33.330        13
33.340        20
33.350        33
33.360        47
33.370        27
33.380        27
33.390        40
33.400        47
33.410        27
33.420        20
33.430        40
33.440        33
33.450        33
33.460        20
33.470        20
33.480        20
33.490        13
33.500        40
33.510        13
33.520        40
33.530         0
33.540        13
33.550        27
33.560        13
33.570        33
33.580        20
33.590        13
33.600        27
33.610        20
33.620        33
33.630        33
33.640        47
33.650        20
33.660        47
33.670        53
33.680        33
33.690        60
33.700        13
33.710        20
33.720        20
33.730        20
33.740        27
33.750        33
33.760        47
33.770        27
33.780        40
33.790        13
33.800        13
33.810        27
33.820        60
33.830        20
33.840        33
33.850         7
33.860        13
33.870        33
33.880        27
33.890        27
33.900        53
33.910        40
33.920        33
33.930        20
33.940        13
33.950        27
33.960        40
33.970        13
33.980        13
33.990        27
34.000        13
34.010        27
34.020         7
34.030        33
34.040         7
34.050        40
34.060        47
34.070        13
34.080        40
34.090        40
34.100        27
34.110        40
34.120        20
34.130        20
34.140        13
34.150        27
34.160        40
34.170        20
34.180        33
34.190        60
34.200        53
34.210        33
34.220        20
34.230        27
34.240        27
34.250        33
34.260        53
34.270        33
34.280        27
34.290        20
34.300        27
34.310        20
34.320        33
34.330        13
34.340        27
34.350        13
34.360        73
34.370         7
34.380        20
34.390        20
34.400        20
34.410        13
34.420        47
34.430        27
34.440        33
34.450        27
34.460        33
34.470        40
34.480        20
34.490        40
34.500        20
34.510        33
34.520        33
34.530        33
34.540        20
34.550        47
34.560        33
34.570        27
34.580        13
34.590        47
34.600        67
34.610        40
34.620        33
34.630        47
34.640        20
34.650        27
34.660        27
34.670        20
34.680         7
34.690        20
34.700        20
34.710        27
34.720        40
34.730        27
34.740        47
34.750        40
34.760        27
34.770        13
34.780        53
34.790        47
34.800        27
34.810         7
34.820        27
34.830        33
34.840        27
34.850        33
34.860        33
34.870        33
34.880        33
34.890         7
34.900        33
34.910        27
34.920        20
34.930        13
34.940        20
34.950        27
34.960         7
34.970        47
34.980         0
34.990        13
35.000        47
35.010        27
35.020        33
35.030        13
35.040         0
35.050        47
35.060        20
35.070        27
35.080        13
35.090         7
35.100        20
35.110        13
35.120        13
35.130        33
35.140        33
35.150        13
35.160        47
35.170        20
35.180        27
35.190        13
35.200         7
35.210        33
35.220         7
35.230        13
35.240        33
35.250        13
35.260        33
35.270        33
35.280        20
35.290        53
35.300        13
35.310        33
35.320        27
35.330        33
35.340        13
35.350        27
35.360        33
35.370        13
35.380        47
35.390        40
35.400        27
35.410        13
35.420        33
35.430        47
35.440        33
35.450        33
35.460        13
35.470        27
35.480        33
35.490        47
35.500        33
35.510         7
35.520        27
35.530        53
35.540        13
35.550        20
35.560        20
35.570        20
35.580        20
35.590         7
35.600         7
35.610        13
35.620        20
35.630        20
35.640        27
35.650        27
35.660        27
35.670         7
35.680        13
35.690        13
35.700        33
35.710        40
35.720        20
35.730        27
35.740        20
35.750        27
35.760         7
35.770        20
35.780        13
35.790         7
35.800        20
35.810        47
35.820        47
35.830        13
35.840        20
35.850        40
35.860        27
35.870         7
35.880         0
35.890        67
35.900        27
35.910        40
35.920        20
35.930        20
35.940        13
35.950        20
35.960        33
35.970        13
35.980        40
35.990        20
36.000        53
36.010        27
36.020        20
36.030        20
36.040        40
36.050        13
36.060        20
36.070        27
36.080        53
36.090        27
36.100        27
36.110        27
36.120        27
36.130        40
36.140        27
36.150        20
36.160        27
36.170        20
36.180        20
36.190         7
36.200        27
36.210        33
36.220        20
36.230        53
36.240        40
36.250        27
36.260        20
36.270        13
36.280         0
36.290        20
36.300        27
36.310        20
36.320        27
36.330        20
36.340        20
36.350        47
36.360        13
36.370        47
36.380        27
36.390        20
36.400        33
36.410        47
36.420        20
36.430        20
36.440        27
36.450        33
36.460         7
36.470        27
36.480        20
36.490        33
36.500        27
36.510        27
36.520        13
36.530        27
36.540        27
36.550        20
36.560        20
36.570        47
36.580        27
36.590        40
36.600        27
36.610        27
36.620        20
36.630        47
36.640         7
36.650         7
36.660        20
36.670        13
36.680        40
36.690        27
36.700        53
36.710        27
36.720        20
36.730        33
36.740        33
36.750        27
36.760        27
36.770        20
36.780        20
36.790        40
36.800        20
36.810        40
36.820        27
36.830        27
36.840        13
36.850        27
36.860        27
36.870        40
36.880        27
36.890        40
36.900        20
36.910         7
36.920        13
36.930         7
36.940        27
36.950        27
36.960        47
36.970        27
36.980         7
36.990         7
37.000        20
37.010        20
37.020        20
37.030        13
37.040        13
37.050        27
37.060        20
37.070        27
37.080         7
37.090        27
37.100        20
37.110        47
37.120         7
37.130        13
37.140        27
37.150         7
37.160        13
37.170        27
37.180         7
37.190        20
37.200        13
37.210        47
37.220        13
37.230        20
37.240        27
37.250        13
37.260        47
37.270        27
37.280        33
37.290        20
37.300        33
37.310        13
37.320        20
37.330         7
37.340        20
37.350        20
37.360        13
37.370        27
37.380        13
37.390        13
37.400        47
37.410        20
37.420        27
37.430        27
37.440        33
37.450        13
37.460        13
37.470        33
37.480        33
37.490        20
37.500         7
37.510        40
37.520        20
37.530        13
37.540        40
37.550        27
37.560        20
37.570        13
37.580         7
37.590        20
37.600        27
37.610         7
37.620         7
37.630        27
37.640        20
37.650        47
37.660        20
37.670         7
37.680        27
37.690        13
37.700        13
37.710        47
37.720        13
37.730         7
37.740         7
37.750        33
37.760        13
37.770         0
37.780        20
37.790         0
37.800        33
37.810        13
37.820        27
37.830        27
37.840        20
37.850        33
37.860        13
37.870        40
37.880        13
37.890        20
37.900        13
37.910        33
37.920        47
37.930        67
37.940        40
37.950        33
37.960        13
37.970        33
37.980        33
37.990        33
38.000        13
38.010        27
38.020        33
38.030        33
38.040        27
38.050         7
38.060        33
38.070        13
38.080        47
38.090        67
38.100         7
38.110        33
38.120        27
38.130        20
38.140        13
38.150         7
38.160        40
38.170        27
38.180        13
38.190        20
38.200        20
38.210        27
38.220        40
38.230        33
38.240         7
38.250        13
38.260        27
38.270        27
38.280        40
38.290        33
38.300        27
38.310        20
38.320        40
38.330         7
38.340        27
38.350        47
38.360        40
38.370        33
38.380        27
38.390        27
38.400        20
38.410        13
38.420        33
38.430         7
38.440        47
38.450        27
38.460        27
38.470        27
38.480        20
38.490        27
38.500        20
38.510        33
38.520        47
38.530        20
38.540        40
38.550        20
38.560        13
38.570        20
38.580        33
38.590        20
38.600        60
38.610        33
38.620        27
38.630        40
38.640        13
38.650        13
38.660        20
38.670        20
38.680        27
38.690        20
38.700        20
38.710        40
38.720        13
38.730        47
38.740        40
38.750        20
38.760        40
38.770        47
38.780        47
38.790        20
38.800        53
38.810        27
38.820        47
38.830        60
38.840        53
38.850        53
38.860        60
38.870        60
38.880       107
38.890       107
38.900       153
38.910        73
38.920       107
38.930       147
38.940        60
38.950        87
38.960       113
38.970        87
38.980        67
38.990        87
39.000        93
39.010       127
39.020        47
39.030        73
39.040       107
39.050        60
39.060        53
39.070       100
39.080        47
39.090        47
39.100        33
39.110        47
39.120        47
39.130        33
39.140        13
39.150        47
39.160        20
39.170        27
39.180        13
39.190        40
39.200        33
39.210        40
39.220        40
39.230        13
39.240        27
39.250        20
39.260        33
39.270        27
39.280        27
39.290        27
39.300        20
39.310        27
39.320        40
39.330        20
39.340        47
39.350        27
39.360        27
39.370        13
39.380        20
39.390        40
39.400        47
39.410        27
39.420        33
39.430        27
39.440        13
39.450        27
39.460        20
39.470        13
39.480        27
39.490        13
39.500        20
39.510        33
39.520        20
39.530        40
39.540        20
39.550        27
39.560         7
39.570        27
39.580        53
39.590         7
39.600         7
39.610         7
39.620        27
39.630        20
39.640        20
39.650        13
39.660        20
39.670        20
39.680        13
39.690        40
39.700        13
39.710        27
39.720        27
39.730        27
39.740        13
39.750        20
39.760         7
39.770        13
39.780         7
39.790        13
39.800        33
39.810        13
39.820         7
39.830        33
39.840         7
39.850        13
39.860        33
39.870        13
39.880        27
39.890        13
39.900         0
39.910        13
39.920        27
39.930        47
39.940        27
39.950        27
39.960        33
39.970        40
39.980        20
39.990         0
40.000         7
40.010        53
40.020        53
40.030        40
40.040        33
40.050        27
40.060        20
40.070         7
40.080        27
40.090        20
40.100        27
40.110        33
40.120        33
40.130        20
40.140        27
40.150        33
40.160        33
40.170        20
40.180        13
40.190        13
40.200         7
40.210         0
40.220        27
40.230        13
40.240        20
40.250        13
40.260        60
40.270        40
40.280        47
40.290        20
40.300        13
40.310        53
40.320        27
40.330        40
40.340        20
40.350        27
40.360        40
40.370        20
40.380        20
40.390        20
40.400        53
40.410        53
40.420        33
40.430        20
40.440        13
40.450        27
40.460        13
40.470        47
40.480        20
40.490        13
40.500        40
40.510        33
40.520        20
40.530         0
40.540        20
40.550        27
40.560        13
40.570         7
40.580        27
40.590         7
40.600         7
40.610         7
40.620        27
40.630        27
40.640        27
40.650        33
40.660        20
40.670         7
40.680        27
40.690        20
40.700        20
40.710        27
40.720        33
40.730        27
40.740        33
40.750        53
40.760        13
40.770        13
40.780        53
40.790        53
40.800        20
40.810        27
40.820        27
40.830        27
40.840        33
40.850        47
40.860        13
40.870        13
40.880        27
40.890        40
40.900        33
40.910        53
40.920        20
40.930        40
40.940        27
40.950        33
40.960        80
40.970        80
40.980        60
40.990        60
41.000        20
41.010        53
41.020        33
41.030        40
41.040        47
41.050        40
41.060        60
41.070         7
41.080        27
41.090        47
41.100        20
41.110        40
41.120        33
41.130        40
41.140        53
41.150        27
41.160        47
41.170        47
41.180        27
41.190        27
41.200        33
41.210        33
41.220        33
41.230        40
41.240        53
41.250        20
41.260        27
41.270        27
41.280        20
41.290        27
41.300        33
41.310        33
41.320        27
41.330        13
41.340        27
41.350        33
41.360        13
41.370        40
41.380        33
41.390        13
41.400        20
41.410         7
41.420        13
41.430        27
41.440        27
41.450        40
41.460        13
41.470        20
41.480        13
41.490        13
41.500        47
41.510        47
41.520        27
41.530        27
41.540        33
41.550         0
41.560        27
41.570        47
41.580        33
41.590        13
41.600        27
41.610        40
41.620        33
41.630        47
41.640        13
41.650        53
41.660        33
41.670        13
41.680        33
41.690        27
41.700        27
41.710        27
41.720        40
41.730        53
41.740        27
41.750        33
41.760        27
41.770        13
41.780        27
41.790        20
41.800        40
41.810        20
41.820        20
41.830        20
41.840        27
41.850        40
41.860        13
41.870        20
41.880        40
41.890        27
41.900        20
41.910         7
41.920        33
41.930        33
41.940        27
41.950        27
41.960        33
41.970        33
41.980        73
41.990        47
42.000        47
42.010        73
42.020        40
42.030        67
42.040        27
42.050        67
42.060        60
42.070        47
42.080       100
42.090       100
42.100        60
42.110        93
42.120       140
42.130       133
42.140       120
42.150       180
42.160       140
42.170       147
42.180       200
42.190       133
42.200       100
42.210       153
42.220       200
42.230       260
42.240       300
42.250       260
42.260       220
42.270       320
42.280       380
42.290       307
42.300       407
42.310       333
42.320       407
42.330       353
42.340       453
42.350       387
42.360       353
42.370       347
42.380       333
42.390       327
42.400       260
42.410       273
42.420       193
42.430       160
42.440       200
42.450       233
42.460       153
42.470       147
42.480       180
42.490       107
42.500       120
42.510        80
42.520        87
42.530       107
42.540        73
42.550        80
42.560        60
42.570        20
42.580        40
42.590        53
42.600        40
42.610        53
42.620        47
42.630        40
42.640        33
42.650        47
42.660        60
42.670        47
42.680        80
42.690         7
42.700        33
42.710        40
42.720        20
42.730        20
42.740        40
42.750        40
42.760        13
42.770        40
42.780        20
42.790        20
42.800        33
42.810        13
42.820        33
42.830        33
42.840        13
42.850        20
42.860        47
42.870        47
42.880        20
42.890         7
42.900        13
42.910        27
42.920        33
42.930        27
42.940         7
42.950        27
42.960         7
42.970        33
42.980        13
42.990        53
43.000        13
43.010        33
43.020        27
43.030        47
43.040        40
43.050        40
43.060        27
43.070         0
43.080        40
43.090        13
43.100        20
43.110        13
43.120        33
43.130        33
43.140        20
43.150        20
43.160        20
43.170        13
43.180        27
43.190        33
43.200        20
43.210        27
43.220        20
43.230        33
43.240        13
43.250        40
43.260         0
43.270        27
43.280        33
43.290        13
43.300        47
43.310        40
43.320        53
43.330        47
43.340        47
43.350        27
43.360        20
43.370        13
43.380        13
43.390        13
43.400        27
43.410        27
43.420        13
43.430        13
43.440        20
43.450        20
43.460        33
43.470        33
43.480         7
43.490        13
43.500        13
43.510        40
43.520        60
43.530        20
43.540        67
43.550        40
43.560        53
43.570        53
43.580        40
43.590        33
43.600        53
43.610        33
43.620        60
43.630        40
43.640        47
43.650        40
43.660        40
43.670        67
43.680        33
43.690        20
43.700        33
43.710        47
43.720        27
43.730        53
43.740        33
43.750        47
43.760        40
43.770        20
43.780         7
43.790        20
43.800        13
43.810        27
43.820        60
43.830        27
43.840        27
43.850        27
43.860        20
43.870        20
43.880        40
43.890        13
43.900        40
43.910        40
43.920        13
43.930        33
43.940        40
43.950        20
43.960        33
43.970        33
43.980        27
43.990        53
44.000        60
44.010         7
44.020        47
44.030        27
44.040        13
44.050        13
44.060        40
44.070        33
44.080        47
44.090        20
44.100        13
44.110         7
44.120        20
44.130        27
44.140        33
44.150        47
44.160        40
44.170        20
44.180        13
44.190        27
44.200        27
44.210        33
44.220        33
44.230        13
44.240        27
44.250        33
44.260        20
44.270        40
44.280        40
44.290        20
44.300        13
44.310        33
44.320         7
44.330        53
44.340        20
44.350        60
44.360        40
44.370        40
44.380        40
44.390        13
44.400         7
44.410        47
44.420        20
44.430        33
44.440        33
44.450        93
44.460        27
44.470         7
44.480        33
44.490        33
44.500        13
44.510        27
44.520        20
44.530         7
44.540         7
44.550        20
44.560         7
44.570        47
44.580        13
44.590        20
44.600        33
44.610        40
44.620        33
44.630        27
44.640        53
44.650        27
44.660        33
44.670        40
44.680        53
44.690        40
44.700        13
44.710        47
44.720        33
44.730        20
44.740        13
44.750        33
44.760        33
44.770        20
44.780        27
44.790        40
44.800        13
44.810        40
44.820        27
44.830        20
44.840        47
44.850        53
44.860        33
44.870        33
44.880        33
44.890        20
44.900        13
44.910        27
44.920        33
44.930        40
44.940        53
44.950        27
44.960        27
44.970        40
44.980        20
44.990        47
45.000        27
45.010        40
45.020        13
45.030        40
45.040        27
45.050        33
45.060        27
45.070        13
45.080        20
45.090        40
45.100        27
45.110        27
45.120        27
45.130        27
45.140        27
45.150        47
45.160        13
45.170        13
45.180        40
45.190        33
45.200        20
45.210        47
45.220        40
45.230        20
45.240        33
45.250        33
45.260        13
45.270         7
45.280        27
45.290        33
45.300        13
45.310         0
45.320        40
45.330        13
45.340        13
45.350        13
45.360        33
45.370        53
45.380        27
45.390        33
45.400         7
45.410        27
45.420        33
45.430        40
45.440        20
45.450        20
45.460        27
45.470        20
45.480        27
45.490        33
45.500        40
45.510        60
45.520        53
45.530        33
45.540        33
45.550        20
45.560        47
45.570        27
45.580        20
45.590        60
45.600        33
45.610        20
45.620        60
45.630        13
45.640        13
45.650        27
45.660        27
45.670        53
45.680        60
45.690        40
45.700        47
45.710        67
45.720        20
45.730       107
45.740        47
45.750        60
45.760        67
45.770        40
45.780        40
45.790        67
45.800        67
45.810        93
45.820       120
45.830        93
45.840        93
45.850        93
45.860       133
45.870       160
45.880       200
45.890       207
45.900       180
45.910       233
45.920       260
45.930       287
45.940       327
45.950       167
45.960       353
45.970       333
45.980       273
45.990       327
46.000       340
46.010       300
46.020       380
46.030       393
46.040       433
46.050       626
46.060       546
46.070       446
46.080       380
46.090       546
46.100       466
46.110       466
46.120       453
46.130       426
46.140       327
46.150       393
46.160       353
46.170       446
46.180       373
46.190       360
46.200       393
46.210       333
46.220       293
46.230       320
46.240       300
46.250       320
46.260       207
46.270       233
46.280       300
46.290       193
46.300       187
46.310       200
46.320       140
46.330       160
46.340       160
46.350       153
46.360       107
46.370       140
46.380       127
46.390       133
46.400       120
46.410       100
46.420        93
46.430        73
46.440        80
46.450        27
46.460        80
46.470        67
46.480        73
46.490        87
46.500        60
46.510        53
46.520        73
46.530        60
46.540        47
46.550        67
46.560        53
46.570        67
46.580        60
46.590        67
46.600        53
46.610        67
46.620        67
46.630        47
46.640        93
46.650       113
46.660       107
46.670        47
46.680        80
46.690        60
46.700        67
46.710       100
46.720        60
46.730        80
46.740        67
46.750        73
46.760        40
46.770        73
46.780        53
46.790        53
46.800        73
46.810        33
46.820        60
46.830        27
46.840        80
46.850        27
46.860        13
46.870        40
46.880        53
46.890        60
46.900        53
46.910        60
46.920        53
46.930        60
46.940        27
46.950        33
46.960        33
46.970        40
46.980        33
46.990        27
47.000        60
47.010        27
47.020        33
47.030        33
47.040        33
47.050        27
47.060        20
47.070        40
47.080        20
47.090        13
47.100        27
47.110        47
47.120        20
47.130        27
47.140        27
47.150        33
47.160        40
47.170        13
47.180        47
47.190        20
47.200        40
47.210        40
47.220        67
47.230        47
47.240        13
47.250        20
47.260        53
47.270        33
47.280        40
47.290        33
47.300        33
47.310        40
47.320        33
47.330        60
47.340        33
47.350        27
47.360        27
47.370        27
47.380        40
47.390        33
47.400        20
47.410        13
47.420        13
47.430        53
47.440        47
47.450        53
47.460        27
47.470        27
47.480        47
47.490        27
47.500        27
47.510         7
47.520        13
47.530        27
47.540        47
47.550        33
47.560        40
47.570        20
47.580        40
47.590        27
47.600        20
47.610        67
47.620         7
47.630        40
47.640        20
47.650        13
47.660        20
47.670         7
47.680        20
47.690        27
47.700        13
47.710        40
47.720        40
47.730        27
47.740        27
47.750        40
47.760        80
47.770        47
47.780        13
47.790        33
47.800        13
47.810        40
47.820        33
47.830        13
47.840        13
47.850        40
47.860        47
47.870        33
47.880        20
47.890        13
47.900        53
47.910        53
47.920        13
47.930        27
47.940        27
47.950        13
47.960        33
47.970        13
47.980        33
47.990        27
48.000        13
48.010        53
48.020        27
48.030        27
48.040        20
48.050        33
48.060         7
48.070        20
48.080        13
48.090        33
48.100        20
48.110        27
48.120        33
48.130        20
48.140        40
48.150        13
48.160        27
48.170        33
48.180        33
48.190        47
48.200        40
48.210        40
48.220        40
48.230        33
48.240        40
48.250        13
48.260         7
48.270        40
48.280        27
48.290        40
48.300        40
48.310        20
48.320        40
48.330        20
48.340        53
48.350        27
48.360        27
48.370        27
48.380        20
48.390        20
48.400        53
48.410        33
48.420        27
48.430        47
48.440        27
48.450        13
48.460        47
48.470         7
48.480        40
48.490        60
48.500        33
48.510        13
48.520         0
48.530        33
48.540        53
48.550        27
48.560        13
48.570        27
48.580        33
48.590        33
48.600        40
48.610        27
48.620        47
48.630        40
48.640        33
48.650        20
48.660        27
48.670        27
48.680        47
48.690        40
48.700        33
48.710        67
48.720        40
48.730        60
48.740        33
48.750        87
48.760        53
48.770        67
48.780        60
48.790        60
48.800       107
48.810       100
48.820        67
48.830        93
48.840       120
48.850        73
48.860       120
48.870       160
48.880       140
48.890       100
48.900       160
48.910       200
48.920       153
48.930       160
48.940       187
48.950       233
48.960       267
48.970       253
48.980       260
48.990       300
49.000       347
49.010       260
49.020       347
49.030       353
49.040       333
49.050       253
49.060       307
49.070       307
49.080       347
49.090       360
49.100       307
49.110       300
49.120       247
49.130       307
49.140       320
49.150       307
49.160       320
49.170       247
49.180       200
49.190       280
49.200       227
49.210       260
49.220       227
49.230       247
49.240       153
49.250       173
49.260       253
49.270        87
49.280        87
49.290       120
49.300       100
49.310        53
49.320       107
49.330        87
49.340        73
49.350       107
49.360        67
49.370        67
49.380        73
49.390        53
49.400        33
49.410        67
49.420        20
49.430        40
49.440        40
49.450        33
49.460        27
49.470        47
49.480        20
49.490        80
49.500        40
49.510        27
49.520        27
49.530        13
49.540        13
49.550        27
49.560        47
49.570        47
49.580        47
49.590        27
49.600        20
49.610        40
49.620        33
49.630        20
49.640        53
49.650        27
49.660        13
49.670        40
49.680        47
49.690        33
49.700        20
49.710        33
49.720        27
49.730        47
49.740         7
49.750        27
49.760        20
49.770        27
49.780        13
49.790        47
49.800        33
49.810        27
49.820        27
49.830        33
49.840        27
49.850        20
49.860        20
49.870        33
49.880        20
49.890        27
49.900        60
49.910        80
49.920        27
49.930        33
49.940        40
49.950        47
49.960        20
49.970        20
49.980        33
49.990        13
50.000         7
50.010        27
50.020        33
50.030        20
50.040        40
50.050        27
50.060        33
50.070        27
50.080        40
50.090        33
50.100        13
50.110        27
50.120        53
50.130        33
50.140        40
50.150        33
50.160        47
50.170        40
50.180        47
50.190        27
50.200        33
50.210        27
50.220        47
50.230        53
50.240        33
50.250        27
50.260        33
50.270        27
50.280        13
50.290        40
50.300        27
50.310        27
50.320         7
50.330         7
50.340        40
50.350        40
50.360        33
50.370         0
50.380        47
50.390        60
50.400        53
50.410        20
50.420        47
50.430        40
50.440        20
50.450        20
50.460        40
50.470        33
50.480         7
50.490        40
50.500        47
50.510        40
50.520        40
50.530         7
50.540        20
50.550        47
50.560        47
50.570        33
50.580        53
50.590        13
50.600        27
50.610        13
50.620        13
50.630        13
50.640        20
50.650        20
50.660        20
50.670        53
50.680        20
50.690        13
50.700        33
50.710        20
50.720        20
50.730        40
50.740        60
50.750        20
50.760        53
50.770         7
50.780        33
50.790        40
50.800        20
50.810        47
50.820        33
50.830        27
50.840        27
50.850        40
50.860        33
50.870        27
50.880        27
50.890        33
50.900        33
50.910        20
50.920        40
50.930        27
50.940        33
50.950        20
50.960        47
50.970        40
50.980        40
50.990        13
51.000        47
51.010        13
51.020        20
51.030        27
51.040        40
51.050        20
51.060        33
51.070        13
51.080         7
51.090        40
51.100        33
51.110        33
51.120        27
51.130        87
51.140        33
51.150        47
51.160        47
51.170        27
51.180        53
51.190        60
51.200        47
51.210        40
51.220        27
51.230        33
51.240        40
51.250        40
51.260        53
51.270        33
51.280        53
51.290        67
51.300        20
51.310        60
51.320        53
51.330        33
51.340        60
51.350        40
51.360        53
51.370        27
51.380        20
51.390        53
51.400        27
51.410        60
51.420        27
51.430        67
51.440        20
51.450        33
51.460        47
51.470        53
51.480        33
51.490        67
51.500        47
51.510        40
51.520        93
51.530        33
51.540        47
51.550        60
51.560        53
51.570        60
51.580        87
51.590        80
51.600        67
51.610       133
51.620        47
51.630        93
51.640        47
51.650        93
51.660       133
51.670       127
51.680       107
51.690       127
51.700       140
51.710       160
51.720       140
51.730       140
51.740       160
51.750       287
51.760       227
51.770       220
51.780       247
51.790       260
51.800       380
51.810       260
51.820       373
51.830       407
51.840       380
51.850       446
51.860       413
51.870       600
51.880       520
51.890       453
51.900       586
51.910       500
51.920       453
51.930       486
51.940       606
51.950       466
51.960       367
51.970       593
51.980       440
51.990       413
52.000       400
52.010       360
52.020       387
52.030       380
52.040       313
52.050       420
52.060       320
52.070       353
52.080       280
52.090       260
52.100       240
52.110       233
52.120       220
52.130       233
52.140       200
52.150       140
52.160       140
52.170       147
52.180        87
52.190       127
52.200       100
52.210       113
52.220        93
52.230        67
52.240       100
52.250        47
52.260       153
52.270       107
52.280        67
52.290       100
52.300       100
52.310        73
52.320        73
52.330        47
52.340        67
52.350        80
52.360        60
52.370        27
52.380        53
52.390        93
52.400        53
52.410        93
52.420        73
52.430        40
52.440        60
52.450        47
52.460        73
52.470        73
52.480        93
52.490        33
52.500        80
52.510        13
52.520        40
52.530        87
52.540        33
52.550        60
52.560        87
52.570        33
52.580        87
52.590        53
52.600        80
52.610        60
52.620        60
52.630        47
52.640        47
52.650        40
52.660        47
52.670        73
52.680        33
52.690        87
52.700        47
52.710        33
52.720        60
52.730        20
52.740        40
52.750        33
52.760        33
52.770        60
52.780        47
52.790        60
52.800        27
52.810        53
52.820        40
52.830        27
52.840        87
52.850        27
52.860        47
52.870        60
52.880        53
52.890        40
52.900        40
52.910        60
52.920        60
52.930        13
52.940        20
52.950        60
52.960        47
52.970        20
52.980        33
52.990        60
53.000        53
53.010        27
53.020        33
53.030        47
53.040        40
53.050        40
53.060        33
53.070        53
53.080        33
53.090        40
53.100        60
53.110        40
53.120        40
53.130        40
53.140        40
53.150        60
53.160        27
53.170        53
53.180        53
53.190        53
53.200        47
53.210        27
53.220        60
53.230        33
53.240        53
53.250        53
53.260        53
53.270        40
53.280        33
53.290        60
53.300        40
53.310        33
53.320        47
53.330        33
53.340        53
53.350        40
53.360        27
53.370        53
53.380        47
53.390        47
53.400        67
53.410        60
53.420        60
53.430        40
53.440        47
53.450        40
53.460        47
53.470        47
53.480        80
53.490        80
53.500        33
53.510        40
53.520        53
53.530        67
53.540        60
53.550        47
53.560        27
53.570        40
53.580        47
53.590        47
53.600        33
53.610        67
53.620        47
53.630        47
53.640        40
53.650        73
53.660        53
53.670        40
53.680        47
53.690        53
53.700        33
53.710        67
53.720        40
53.730        53
53.740        60
53.750        40
53.760        20
53.770        20
53.780        53
53.790        27
53.800        27
53.810        47
53.820        53
53.830        27
53.840        40
53.850        27
53.860        60
53.870        27
53.880        40
53.890        27
53.900        27
53.910        33
53.920        60
53.930        20
53.940        20
53.950         7
53.960        20
53.970        20
53.980        40
53.990        20
54.000        13
54.010        47
54.020        20
54.030        40
54.040        33
54.050        13
54.060        47
54.070        40
54.080        47
54.090        33
54.100        20
54.110        27
54.120        33
54.130        20
54.140        47
54.150         0
54.160        33
54.170        20
54.180        67
54.190         7
54.200        27
54.210        27
54.220        20
54.230        27
54.240        33
54.250        20
54.260        73
54.270        53
54.280        27
54.290        13
54.300        20
54.310        20
54.320        47
54.330        27
54.340        13
54.350        40
54.360         0
54.370        20
54.380        27
54.390        13
54.400         7
54.410        33
54.420        20
54.430        40
54.440        33
54.450        13
54.460        60
54.470        47
54.480        47
54.490        27
54.500        27
54.510        13
54.520        47
54.530        40
54.540        40
54.550        47
54.560        13
54.570        33
54.580        13
54.590        27
54.600        20
54.610        40
54.620        20
54.630        27
54.640        27
54.650        27
54.660        20
54.670        20
54.680        20
54.690        93
54.700         7
54.710        33
54.720        27
54.730        13
54.740        13
54.750        20
54.760        27
54.770        47
54.780        13
54.790        53
54.800        53
54.810        20
54.820        33
54.830        33
54.840        13
54.850        47
54.860        33
54.870        47
54.880        27
54.890        27
54.900        13
54.910         0
54.920        20
54.930        27
54.940        20
54.950        20
54.960        20
54.970         7
54.980        40
54.990        53
55.000        27
55.010        20
55.020        20
55.030        33
55.040        40
55.050        13
55.060        20
55.070        27
55.080        40
55.090         7
55.100        20
55.110         7
55.120        20
55.130         7
55.140        40
55.150        27
55.160        40
55.170        13
55.180        13
55.190        27
55.200        27
55.210         7
55.220        13
55.230        53
55.240        27
55.250        13
55.260        40
55.270        13
55.280        27
55.290        20
55.300         7
55.310        20
55.320        33
55.330        27
55.340        33
55.350        33
55.360        40
55.370        40
55.380        13
55.390        27
55.400         7
55.410        20
55.420        27
55.430        47
55.440        20
55.450        27
55.460        13
55.470        20
55.480        40
55.490         7
55.500        20
55.510         7
55.520        20
55.530        20
55.540        60
55.550        20
55.560        20
55.570        53
55.580         7
55.590        47
55.600        33
55.610        33
55.620        20
55.630        53
55.640        27
55.650        27
55.660        13
55.670         7
55.680        27
55.690        33
55.700        40
55.710         7
55.720        53
55.730        13
55.740        27
55.750        27
55.760        33
55.770        13
55.780        27
55.790        67
55.800        27
55.810        20
55.820        40
55.830        47
55.840         0
55.850        53
55.860        20
55.870        20
55.880        47
55.890        53
55.900        13
55.910         0
55.920        20
55.930        33
55.940        33
55.950        40
55.960        13
55.970        53
55.980         7
55.990        27
56.000        27
56.010        20
56.020        27
56.030        40
56.040        20
56.050        20
56.060        53
56.070        27
56.080        27
56.090        20
56.100        40
56.110        33
56.120        73
56.130        40
56.140        60
56.150        33
56.160        40
56.170        20
56.180        40
56.190        33
56.200        53
56.210        20
56.220        40
56.230        53
56.240        40
56.250        40
56.260        27
56.270        27
56.280        47
56.290        40
56.300        33
56.310        27
56.320        53
56.330        40
56.340        33
56.350        27
56.360        27
56.370        20
56.380        40
56.390        20
56.400        20
56.410        47
56.420        40
56.430        53
56.440         7
56.450        13
56.460        33
56.470        40
56.480        33
56.490        60
56.500        13
56.510        33
56.520        13
56.530        47
56.540        27
56.550        33
56.560        27
56.570        53
56.580        33
56.590        27
56.600        13
56.610        13
56.620        40
56.630        33
56.640        40
56.650        20
56.660        20
56.670        27
56.680         7
56.690        20
56.700        20
56.710        20
56.720         0
56.730        33
56.740        27
56.750        20
56.760        27
56.770        53
56.780        47
56.790        20
56.800        40
56.810        27
56.820        13
56.830        13
56.840        27
56.850        13
56.860        27
56.870        13
56.880        33
56.890        27
56.900        27
56.910         7
56.920        33
56.930        47
56.940         7
56.950        13
56.960        13
56.970         7
56.980        40
56.990        33
57.000        33
57.010        27
57.020        40
57.030         7
57.040        27
57.050        27
57.060        33
57.070        33
57.080        13
57.090        33
57.100         7
57.110        33
57.120        33
57.130        53
57.140        13
57.150        13
57.160        33
57.170        40
57.180        47
57.190        33
57.200        27
57.210        27
57.220        47
57.230        13
57.240        13
57.250        33
57.260         7
57.270        40
57.280        67
57.290        20
57.300        27
57.310         0
57.320        40
57.330        33
57.340        27
57.350        27
57.360        33
57.370        33
57.380        33
57.390         7
57.400        60
57.410        13
57.420        33
57.430        27
57.440        40
57.450        27
57.460         7
57.470        13
57.480        47
57.490        20
57.500        27
57.510         0
57.520        47
57.530        53
57.540        33
57.550        33
57.560        27
57.570        40
57.580        20
57.590        33
57.600        33
57.610        33
57.620        13
57.630        40
57.640        13
57.650        47
57.660        47
57.670        33
57.680        20
57.690        40
57.700        13
57.710        33
57.720        20
57.730        40
57.740        33
57.750        47
57.760        47
57.770        20
57.780        47
57.790        47
57.800        53
57.810        67
57.820        40
57.830        60
57.840        20
57.850        27
57.860        20
57.870        53
57.880        33
57.890        40
57.900        53
57.910        20
57.920        13
57.930        27
57.940        33
57.950        53
57.960        20
57.970        13
57.980        27
57.990        20
58.000        60
58.010        13
58.020        27
58.030        20
58.040        27
58.050        20
58.060        27
58.070        33
58.080        47
58.090        13
58.100        13
58.110        20
58.120        13
58.130        27
58.140        20
58.150        33
58.160         7
58.170         7
58.180        40
58.190        20
58.200        47
58.210        13
58.220        13
58.230        40
58.240        27
58.250         0
58.260        20
58.270         7
58.280        33
58.290        20
58.300        20
58.310         7
58.320        27
58.330         7
58.340        13
58.350        20
58.360        33
58.370        27
58.380        33
58.390        33
58.400        27
58.410        33
58.420        20
58.430        13
58.440        27
58.450         7
58.460        13
58.470        13
58.480        13
58.490        27
58.500        13
58.510        27
58.520        53
58.530        13
58.540        27
58.550        47
58.560         0
58.570        13
58.580        27
58.590        40
58.600        60
58.610        27
58.620        13
58.630         7
58.640         7
58.650        20
58.660         7
58.670         7
58.680         7
58.690        33
58.700         7
58.710        27
58.720        13
58.730        20
58.740        47
58.750        20
58.760        20
58.770        13
58.780        20
58.790        33
58.800        13
58.810        13
58.820         0
58.830        27
58.840        40
58.850         7
58.860         0
58.870        27
58.880        27
58.890        40
58.900        13
58.910        27
58.920        33
58.930        33
58.940        13
58.950        20
58.960         0
58.970        13
58.980         7
58.990        20
59.000        20
59.010        20
59.020        13
59.030        20
59.040         0
59.050        20
59.060        47
59.070        20
59.080        13
59.090        20
59.100        27
59.110        13
59.120        13
59.130        13
59.140        27
59.150         7
59.160        33
59.170        13
59.180         7
59.190        13
59.200        27
59.210        53
59.220        20
59.230        53
59.240        53
59.250        33
59.260        20
59.270        13
59.280         7
59.290        67
59.300        33
59.310        33
59.320        27
59.330        47
59.340         7
59.350        40
59.360        73
59.370        40
59.380        33
59.390        67
59.400        20
59.410        13
59.420        27
59.430        40
59.440        27
59.450        33
59.460        13
59.470        13
59.480        33
59.490        27
59.500        27
59.510        40
59.520        33
59.530        53
59.540        47
59.550        13
59.560        27
59.570        20
59.580        20
59.590        13
59.600         7
59.610        33
59.620        47
59.630        40
59.640        53
59.650        53
59.660        60
59.670        27
59.680        40
59.690        40
59.700        53
59.710        47
59.720        27
59.730        40
59.740        27
59.750        20
59.760        27
59.770        20
59.780        60
59.790        40
59.800        53
59.810        33
59.820        73
59.830        73
59.840        60
59.850        73
59.860        73
59.870        53
59.880        60
59.890        67
59.900        40
59.910        40
59.920        47
59.930        33
59.940       100
59.950        67
59.960        60
59.970        33
59.980        47
59.990        33
60.000        33
