20.000         7
20.010         7
20.020        53
20.030        47
20.040        47
20.050        67
20.060        67
20.070        33
20.080        80
20.090        73
20.100        53
20.110        33
20.120        67
20.130        60
20.140        80
20.150        67
20.160        53
20.170        80
20.180        67
20.190        53
20.200        33
20.210        60
20.220        47
20.230        80
20.240        73
20.250        73
20.260        67
20.270        73
20.280        73
20.290        27
20.300        87
20.310        60
20.320        53
20.330        67
20.340        20
20.350        47
20.360        33
20.370        67
20.380        47
20.390        47
20.400        47
20.410        27
20.420        53
20.430        73
20.440        53
20.450        47
20.460        20
20.470        53
20.480        53
20.490        47
20.500        60
20.510        67
20.520        20
20.530        60
20.540        47
20.550        67
20.560        87
20.570        40
20.580        73
20.590        60
20.600        53
20.610        93
20.620        47
20.630        80
20.640        47
20.650        47
20.660        67
20.670        60
20.680        47
20.690        33
20.700        33
20.710        40
20.720        53
20.730        53
20.740        73
20.750        53
20.760        80
20.770        60
20.780        47
20.790        33
20.800       113
20.810        80
20.820        47
20.830        47
20.840        60
20.850       107
20.860        40
20.870        27
20.880        73
20.890        47
20.900        40
20.910        40
20.920        40
20.930        20
20.940        80
20.950        53
20.960        20
20.970        27
20.980        67
20.990        47
21.000        13
21.010        60
21.020        40
21.030        27
21.040        33
21.050        53
21.060        93
21.070        67
21.080        27
21.090        47
21.100        33
21.110        80
21.120        67
21.130        33
21.140        33
21.150        47
21.160        60
21.170        67
21.180        47
21.190        40
21.200        20
21.210        40
21.220        27
21.230        60
21.240        60
21.250        40
21.260        67
21.270        47
21.280        73
21.290        27
21.300        33
21.310        33
21.320        40
21.330        67
21.340        67
21.350        40
21.360        47
21.370        53
21.380        40
21.390        33
21.400        87
21.410        60
21.420        87
21.430        27
21.440        87
21.450        80
21.460        27
21.470        47
21.480        33
21.490        53
21.500        73
21.510        47
21.520        47
21.530        80
21.540        40
21.550        40
21.560        67
21.570        47
21.580        27
21.590        53
21.600        33
21.610        13
21.620        53
21.630        40
21.640        53
21.650        60
21.660        67
21.670        60
21.680        60
21.690        60
21.700        60
21.710        27
21.720        73
21.730        33
21.740        27
21.750        60
21.760        73
21.770        47
21.780        20
21.790        27
21.800        33
21.810        33
21.820        60
21.830        53
21.840       107
21.850        33
21.860        87
21.870        40
21.880        60
21.890        60
21.900        60
21.910        27
21.920        87
21.930        40
21.940        40
21.950        73
21.960        40
21.970        60
21.980        27
21.990        40
22.000        27
22.010        40
22.020        33
22.030        87
22.040        47
22.050        47
22.060        40
22.070        53
22.080        53
22.090        33
22.100        33
22.110        40
22.120        73
22.130        53
22.140        33
22.150        67
22.160        73
22.170        40
22.180        67
22.190        47
22.200        67
22.210        47
22.220        60
22.230        87
22.240        93
22.250        20
22.260       120
22.270        53
22.280        93
22.290        87
22.300        93
22.310       100
22.320       140
22.330       140
22.340        53
22.350       127
22.360       120
22.370       133
22.380       133
22.390       167
22.400       167
22.410       200
22.420       180
22.430       267
22.440       280
22.450       307
22.460       260
22.470       307
22.480       367
22.490       393
22.500       506
22.510       520
22.520       473
22.530       486
22.540       526
22.550       613
22.560       820
22.570       726
22.580       686
22.590       606
22.600       666
22.610       653
22.620       660
22.630       666
22.640       533
22.650       407
22.660       353
22.670       340
22.680       333
22.690       287
22.700       267
22.710       240
22.720       193
22.730       167
22.740       193
22.750       147
22.760       153
22.770       173
22.780       167
22.790       153
22.800       147
22.810       133
22.820       140
22.830       133
22.840       153
22.850       167
22.860       173
22.870       247
22.880       153
22.890       153
22.900       120
22.910       193
22.920       227
22.930       213
22.940       140
22.950       187
22.960       167
22.970       200
22.980       193
22.990       233
23.000       153
23.010       193
23.020       207
23.030       193
23.040       180
23.050       153
23.060       220
23.070       187
23.080       113
23.090       107
23.100       100
23.110        80
23.120        93
23.130       127
23.140        80
23.150       113
23.160        80
23.170        87
23.180        73
23.190        80
23.200        60
23.210        60
23.220        47
23.230        80
23.240        67
23.250        80
23.260        67
23.270        33
23.280        47
23.290        67
23.300        60
23.310        73
23.320        93
23.330        40
23.340        67
23.350        53
23.360        40
23.370        20
23.380        33
23.390        60
23.400        40
23.410        40
23.420        60
23.430        53
23.440        73
23.450        27
23.460        40
23.470        53
23.480        67
23.490        67
23.500        87
23.510        47
23.520        47
23.530        40
23.540        27
23.550        87
23.560       113
23.570        53
23.580        20
23.590        40
23.600        40
23.610        33
23.620        80
23.630        73
23.640        67
23.650        73
23.660        67
23.670        67
23.680        60
23.690        47
23.700        67
23.710        67
23.720        40
23.730        87
23.740        13
23.750        40
23.760        60
23.770        67
23.780        53
23.790        33
23.800        53
23.810        20
23.820        80
23.830        67
23.840        67
23.850        47
23.860        60
23.870        47
23.880        73
23.890        33
23.900        60
23.910        73
23.920        60
23.930       113
23.940        73
23.950        53
23.960        60
23.970        40
23.980        27
23.990        87
24.000        53
24.010        27
24.020        20
24.030        60
24.040        40
24.050        67
24.060        80
24.070       100
24.080        53
24.090        53
24.100        47
24.110        40
24.120         7
24.130        67
24.140        60
24.150        47
24.160        73
24.170        20
24.180        47
24.190        73
24.200        53
24.210        60
24.220        60
24.230        87
24.240        80
24.250        53
24.260        67
24.270        60
24.280        53
24.290        40
24.300        27
24.310        33
24.320        67
24.330        33
24.340        73
24.350        60
24.360        53
24.370        87
24.380        73
24.390        47
24.400        53
24.410        33
24.420        47
24.430        47
24.440        67
24.450        60
24.460        60
24.470        27
24.480        13
24.490        60
24.500        53
24.510        27
24.520        13
24.530        53
24.540        20
24.550        40
24.560        47
24.570        60
24.580        47
24.590        73
24.600        60
24.610        73
24.620        67
24.630        47
24.640        47
24.650        67
24.660        47
24.670        93
24.680        20
24.690        80
24.700        60
24.710        73
24.720        40
24.730        53
24.740        73
24.750        53
24.760        60
24.770        53
24.780        67
24.790        60
24.800        40
24.810        27
24.820        47
24.830        27
24.840        47
24.850        80
24.860        73
24.870        67
24.880        47
24.890        33
24.900        80
24.910        80
24.920        60
24.930        53
24.940        67
24.950        27
24.960        60
24.970        67
24.980        60
24.990        60
25.000        67
25.010        53
25.020        80
25.030       100
25.040        60
25.050        73
25.060        87
25.070        40
25.080        27
25.090        80
25.100        53
25.110        40
25.120        67
25.130        40
25.140        27
25.150        60
25.160        40
25.170        33
25.180        13
25.190        73
25.200        73
25.210        27
25.220        33
25.230        73
25.240        53
25.250        47
25.260        67
25.270        60
25.280        40
25.290        87
25.300        40
25.310        60
25.320        40
25.330        73
25.340        80
25.350        87
25.360        47
25.370        47
25.380        87
25.390        73
25.400        47
25.410        80
25.420        87
25.430        67
25.440        93
25.450       107
25.460        93
25.470       113
25.480       107
25.490        73
25.500        80
25.510       147
25.520       107
25.530       113
25.540       127
25.550       173
25.560       227
25.570       193
25.580       267
25.590       367
25.600       380
25.610       413
25.620       486
25.630       393
25.640       393
25.650       367
25.660       333
25.670       267
25.680       260
25.690       307
25.700       353
25.710       273
25.720       340
25.730       233
25.740       273
25.750       340
25.760       400
25.770       466
25.780       606
25.790       526
25.800       540
25.810       546
25.820       553
25.830       633
25.840       620
25.850       486
25.860       440
25.870       573
25.880       553
25.890       446
25.900       267
25.910       360
25.920       300
25.930       240
25.940       153
25.950       113
25.960       127
25.970       133
25.980       127
25.990       107
26.000        53
26.010        93
26.020        80
26.030        73
26.040        73
26.050        33
26.060        73
26.070        40
26.080        53
26.090        73
26.100        47
26.110        27
26.120        73
26.130        60
26.140        73
26.150        53
26.160        53
26.170        87
26.180        40
26.190        40
26.200        20
26.210        53
26.220        40
26.230        47
26.240        60
26.250        40
26.260        67
26.270        67
26.280        40
26.290        20
26.300        73
26.310        67
26.320        33
26.330        53
26.340        13
26.350        53
26.360        53
26.370        73
26.380        27
26.390        67
26.400        33
26.410        60
26.420        73
26.430        33
26.440        20
26.450        40
26.460        40
26.470        40
26.480        67
26.490        47
26.500        40
26.510        67
26.520        33
26.530        33
26.540        33
26.550        33
26.560        47
26.570        73
26.580        60
26.590        27
26.600        73
26.610        67
26.620        47
26.630        27
26.640        33
26.650        40
26.660        47
26.670        27
26.680        40
26.690        87
26.700        53
26.710        53
26.720        47
26.730        33
26.740         7
26.750        87
26.760        47
26.770        93
26.780        40
26.790        67
26.800        67
26.810        60
26.820        27
26.830        47
26.840        80
26.850        67
26.860        27
26.870       100
26.880        60
26.890        33
26.900        60
26.910        73
26.920        53
26.930        87
26.940        60
26.950        53
26.960        13
26.970        47
26.980        40
26.990        33
27.000        33
27.010        33
27.020        40
27.030        33
27.040        53
27.050        53
27.060        47
27.070        53
27.080        53
27.090        27
27.100        67
27.110        67
27.120        13
27.130        47
27.140        27
27.150        67
27.160        53
27.170        27
27.180        73
27.190        47
27.200        33
27.210        40
27.220        40
27.230        53
27.240        60
27.250        73
27.260        60
27.270        40
27.280        20
27.290        40
27.300        53
27.310        20
27.320        40
27.330        53
27.340        40
27.350        80
27.360        40
27.370        20
27.380        67
27.390        40
27.400        87
27.410        60
27.420        27
27.430        47
27.440        67
27.450        87
27.460        67
27.470        67
27.480        60
27.490        47
27.500        60
27.510        47
27.520        87
27.530        73
27.540        33
27.550        47
27.560       100
27.570        53
27.580        67
27.590        40
27.600        40
27.610        73
27.620        33
27.630        67
27.640       140
27.650        73
27.660       133
27.670       140
27.680       113
27.690       100
27.700       133
27.710       113
27.720       147
27.730        93
27.740        93
27.750       153
27.760       187
27.770       160
27.780       120
27.790       140
27.800       120
27.810       133
27.820        80
27.830       113
27.840        60
27.850       153
27.860       107
27.870        80
27.880        87
27.890        93
27.900        73
27.910        73
27.920        27
27.930        60
27.940        53
27.950        67
27.960        60
27.970        73
27.980        67
27.990        53
28.000        40
28.010        47
28.020        80
28.030        73
28.040        80
28.050       100
28.060        53
28.070        40
28.080        27
28.090        87
28.100        73
28.110        73
28.120        67
28.130        67
28.140        53
28.150       107
28.160        93
28.170        67
28.180        67
28.190        80
28.200        80
28.210        47
28.220        53
28.230       107
28.240        93
28.250        93
28.260       113
28.270       113
28.280        47
28.290        93
28.300       133
28.310       133
28.320       113
28.330        87
28.340        67
28.350       107
28.360       120
28.370        40
28.380       147
28.390       107
28.400       133
28.410        73
28.420        47
28.430        40
28.440        93
28.450        73
28.460       100
28.470        93
28.480        53
28.490        67
28.500        80
28.510        40
28.520        53
28.530        67
28.540        67
28.550        80
28.560        20
28.570        40
28.580       100
28.590        47
28.600        60
28.610       107
28.620       100
28.630       140
28.640        80
28.650        60
28.660        73
28.670        80
28.680        73
28.690        67
28.700        60
28.710        80
28.720        60
28.730       120
28.740        27
28.750        67
28.760       100
28.770        93
28.780        80
28.790        67
28.800        53
28.810        33
28.820        67
28.830        67
28.840        40
28.850        40
28.860        73
28.870        47
28.880        53
28.890        67
28.900        60
28.910        60
28.920        47
28.930        73
28.940        73
28.950        47
28.960        80
28.970        60
28.980        53
28.990        60
29.000        47
29.010        53
29.020        27
29.030        40
29.040        73
29.050        13
29.060        80
29.070        73
29.080        40
29.090        93
29.100        27
29.110        93
29.120        47
29.130        67
29.140        33
29.150        47
29.160        53
29.170        20
29.180        67
29.190        47
29.200        87
29.210       113
29.220        73
29.230        53
29.240        47
29.250        60
29.260        47
29.270        87
29.280        47
29.290        47
29.300        33
29.310        53
29.320        67
29.330        80
29.340        93
29.350        53
29.360        47
29.370        73
29.380       120
29.390        67
29.400        80
29.410       100
29.420       107
29.430        73
29.440       127
29.450       133
29.460       120
29.470       113
29.480       133
29.490       187
29.500       167
29.510       213
29.520       173
29.530       273
29.540       267
29.550       240
29.560       367
29.570       293
29.580       320
29.590       247
29.600       320
29.610       360
29.620       333
29.630       293
29.640       373
29.650       313
29.660       267
29.670       280
29.680       280
29.690       280
29.700       267
29.710       207
29.720       187
29.730       233
29.740       200
29.750       133
29.760       133
29.770       133
29.780       107
29.790        80
29.800       113
29.810        73
29.820        53
29.830        87
29.840        73
29.850        60
29.860        40
29.870        33
29.880        93
29.890        67
29.900        60
29.910        67
29.920        47
29.930        53
29.940        47
29.950        40
29.960        53
29.970        53
29.980        67
29.990        60
30.000        33
30.010        60
30.020        53
30.030        40
30.040        60
30.050        20
30.060        60
30.070        33
30.080        53
30.090        20
30.100       100
30.110        47
30.120        60
30.130        27
30.140        87
30.150        53
30.160        60
30.170        47
30.180        80
30.190        73
30.200        53
30.210        60
30.220        20
30.230        47
30.240        73
30.250        60
30.260        40
30.270        93
30.280        67
30.290       127
30.300        73
30.310       107
30.320       127
30.330        87
30.340       107
30.350       120
30.360       127
30.370       147
30.380       193
30.390       180
30.400       113
30.410       260
30.420       180
30.430       267
30.440       320
30.450       267
30.460       307
30.470       353
30.480       280
30.490       273
30.500       293
30.510       333
30.520       293
30.530       307
30.540       260
30.550       273
30.560       127
30.570       240
30.580       173
30.590       167
30.600       120
30.610       107
30.620       107
30.630        87
30.640       140
30.650       100
30.660        67
30.670        93
30.680        93
30.690        87
30.700        73
30.710        40
30.720        53
30.730        60
30.740        53
30.750        73
30.760        27
30.770        53
30.780        60
30.790         7
30.800        47
30.810        33
30.820        33
30.830        27
30.840        53
30.850        33
30.860        73
30.870        20
30.880        27
30.890        27
30.900        40
30.910        13
30.920        40
30.930        53
30.940        27
30.950        67
30.960        40
30.970        40
30.980        73
30.990        73
31.000        53
31.010        33
31.020        27
31.030        20
31.040        33
31.050        47
31.060        47
31.070        33
31.080        27
31.090        53
31.100        60
31.110        47
31.120        53
31.130        40
31.140        60
31.150        33
31.160        20
31.170        73
31.180        53
31.190        40
31.200        33
31.210        60
31.220        47
31.230        40
31.240        60
31.250        47
31.260        73
31.270        47
31.280        33
31.290        27
31.300        73
31.310        27
31.320        27
31.330        47
31.340        13
31.350        27
31.360       100
31.370        47
31.380        47
31.390        67
31.400        33
31.410        53
31.420        40
31.430        33
31.440        20
31.450        33
31.460        60
31.470        47
31.480        47
31.490        60
31.500        20
31.510        60
31.520        53
31.530         0
31.540        13
31.550        27
31.560        47
31.570        53
31.580        33
31.590        13
31.600        80
31.610        20
31.620        53
31.630        47
31.640        47
31.650        47
31.660        73
31.670        33
31.680        47
31.690        80
31.700        80
31.710        33
31.720        60
31.730        53
31.740        67
31.750        53
31.760        60
31.770        47
31.780        47
31.790        27
31.800        20
31.810        60
31.820        67
31.830        60
31.840        27
31.850        60
31.860        40
31.870        33
31.880        53
31.890        47
31.900        33
31.910        87
31.920        80
31.930        93
31.940        60
31.950        73
31.960       100
31.970        73
31.980       120
31.990        73
32.000        73
32.010       107
32.020       120
32.030       133
32.040       133
32.050       140
32.060       133
32.070       220
32.080       127
32.090       280
32.100       267
32.110       227
32.120       313
32.130       373
32.140       333
32.150       353
32.160       453
32.170       393
32.180       433
32.190       347
32.200       413
32.210       380
32.220       227
32.230       313
32.240       307
32.250       307
32.260       233
32.270       180
32.280       213
32.290       213
32.300       153
32.310       160
32.320        87
32.330       127
32.340        80
32.350        73
32.360       107
32.370        67
32.380        87
32.390        67
32.400        67
32.410        27
32.420        53
32.430        47
32.440        53
32.450        47
32.460        53
32.470        27
32.480        73
32.490        73
32.500        47
32.510        27
32.520        40
32.530        27
32.540        20
32.550        13
32.560        40
32.570        27
32.580        27
32.590        27
32.600        33
32.610        73
32.620        53
32.630        53
32.640        67
32.650        33
32.660         7
32.670        40
32.680        27
32.690        13
32.700        47
32.710        53
32.720        40
32.730        40
32.740        27
32.750        40
32.760        60
32.770        20
32.780        53
32.790        40
32.800        53
32.810        33
32.820         7
32.830        33
32.840         7
32.850        40
32.860        40
32.870        60
32.880        47
32.890        27
32.900         7
32.910        87
32.920        73
32.930        40
32.940        67
32.950        13
32.960        40
32.970        53
32.980        27
32.990        13
33.000        20
33.010        20
33.020        47
33.030        40
33.040        27
33.050        20
33.060        27
33.070        53
33.080         7
33.090        33
33.100        27
33.110        33
33.120        67
33.130        40
33.140        33
33.150        53
33.160        60
33.170        53
33.180        13
33.190        13
33.200        47
33.210        60
33.220        20
33.230        27
33.240        33
33.250        40
33.260        47
33.270        27
33.280        67
33.290        47
33.300        20
33.310        20
33.320         7
33.330        47
33.340        33
33.350        40
33.360        73
33.370        53
33.380        27
33.390        53
33.400        20
33.410        27
33.420        33
33.430        67
33.440        47
33.450        47
33.460         7
33.470        13
33.480        13
33.490        53
33.500        13
33.510        47
33.520        73
33.530        13
33.540        13
33.550        40
33.560        20
33.570        27
33.580        13
33.590        27
33.600        33
33.610        20
33.620        53
33.630        27
33.640        53
33.650        13
33.660        13
33.670        27
33.680        27
33.690        13
33.700        47
33.710        20
33.720        40
33.730        20
33.740         7
33.750        33
33.760        13
33.770        20
33.780        53
33.790        27
33.800        53
33.810        33
33.820        27
33.830        53
33.840        33
33.850         0
33.860        20
33.870        13
33.880        20
33.890        47
33.900        33
33.910        20
33.920        40
33.930        20
33.940        53
33.950        40
33.960         7
33.970        40
33.980        33
33.990         7
34.000        33
34.010        20
34.020        13
34.030        27
34.040        53
34.050        40
34.060        27
34.070        33
34.080        47
34.090        67
34.100        47
34.110        33
34.120        33
34.130        27
34.140        27
34.150        33
34.160        27
34.170        33
34.180         7
34.190        53
34.200        53
34.210        53
34.220         7
34.230        33
34.240        27
34.250        47
34.260        33
34.270        47
34.280        53
34.290         7
34.300        33
34.310        33
34.320        33
34.330        40
34.340        27
34.350        40
34.360        33
34.370        40
34.380        20
34.390        27
34.400        60
34.410        40
34.420        47
34.430        13
34.440        33
34.450        20
34.460        60
34.470        27
34.480        40
34.490        60
34.500        67
34.510        60
34.520        40
34.530        67
34.540        73
34.550        53
34.560        87
34.570        33
34.580       100
34.590        67
34.600        47
34.610        20
34.620        33
34.630        80
34.640        87
34.650        33
34.660        53
34.670        47
34.680        33
34.690        27
34.700        33
34.710        27
34.720        67
34.730        27
34.740        33
34.750        47
34.760        47
34.770        20
34.780        33
34.790        60
34.800        20
34.810        53
34.820        53
34.830        40
34.840        27
34.850        73
34.860        60
34.870        40
34.880        60
34.890        33
34.900        53
34.910        67
34.920        53
34.930        33
34.940        93
34.950        80
34.960        73
34.970        27
34.980       113
34.990        87
35.000       127
35.010       180
35.020       140
35.030       233
35.040       253
35.050       273
35.060       367
35.070       293
35.080       320
35.090       426
35.100       400
35.110       367
35.120       407
35.130       566
35.140       826
35.150       973
35.160       980
35.170       946
35.180      1100
35.190      1146
35.200       873
35.210       886
35.220       700
35.230       833
35.240       593
35.250       613
35.260       580
35.270       673
35.280       513
35.290       493
35.300       353
35.310       293
35.320       193
35.330       167
35.340        87
35.350        73
35.360        33
35.370        53
35.380        53
35.390        67
35.400        60
35.410        53
35.420        60
35.430        40
35.440        47
35.450        80
35.460        27
35.470        47
35.480        47
35.490        40
35.500        53
35.510        27
35.520        33
35.530        40
35.540        33
35.550        33
35.560        40
35.570        27
35.580        40
35.590        27
35.600        20
35.610        47
35.620        27
35.630        27
35.640        13
35.650        33
35.660        20
35.670        40
35.680        33
35.690        53
35.700        47
35.710        60
35.720        33
35.730        33
35.740        13
35.750        33
35.760        20
35.770        13
35.780        33
35.790        53
35.800        33
35.810        47
35.820        27
35.830        40
35.840        27
35.850        47
35.860        73
35.870        40
35.880        40
35.890        40
35.900        27
35.910        27
35.920        33
35.930        53
35.940        13
35.950        13
35.960        20
35.970        27
35.980        20
35.990        13
36.000        20
36.010        27
36.020        27
36.030        33
36.040         7
36.050        27
36.060        20
36.070        40
36.080        20
36.090        40
36.100        40
36.110        33
36.120        20
36.130        27
36.140        27
36.150        47
36.160         7
36.170        27
36.180        33
36.190        33
36.200        53
36.210        27
36.220        47
36.230        27
36.240        27
36.250        27
36.260        47
36.270        40
36.280        27
36.290         7
36.300        20
36.310        27
36.320        27
36.330        40
36.340        13
36.350        40
36.360        67
36.370        40
36.380        13
36.390        13
36.400        27
36.410        40
36.420        27
36.430        13
36.440        27
36.450        20
36.460        33
36.470        13
36.480        20
36.490        13
36.500        13
36.510        13
36.520        40
36.530        40
36.540        13
36.550        27
36.560        47
36.570        27
36.580        20
36.590        53
36.600        73
36.610        40
36.620        27
36.630         7
36.640        33
36.650        20
36.660        33
36.670        33
36.680        27
36.690        60
36.700        27
36.710        13
36.720        33
36.730        27
36.740        20
36.750        53
36.760        87
36.770        60
36.780        27
36.790        20
36.800        33
36.810        27
36.820        27
36.830        20
36.840        33
36.850        33
36.860        47
36.870        53
36.880        27
36.890        67
36.900        40
36.910        53
36.920        33
36.930        53
36.940         7
36.950        33
36.960        27
36.970        40
36.980        13
36.990        33
37.000        13
37.010        20
37.020        27
37.030        20
37.040        47
37.050        47
37.060        20
37.070         7
37.080        40
37.090        53
37.100        40
37.110        20
37.120        13
37.130        13
37.140        13
37.150        33
37.160        33
37.170        40
37.180        27
37.190        73
37.200        27
37.210        33
37.220        47
37.230        53
37.240         7
37.250        27
37.260        40
37.270        27
37.280        20
37.290        20
37.300        47
37.310        33
37.320        40
37.330        27
37.340        33
37.350        20
37.360        27
37.370        27
37.380        47
37.390        33
37.400        13
37.410        20
37.420        20
37.430         7
37.440        27
37.450         7
37.460         7
37.470        27
37.480        40
37.490        33
37.500        27
37.510        33
37.520        20
37.530        33
37.540        33
37.550        53
37.560        53
37.570        20
37.580        40
37.590        33
37.600        13
37.610        53
37.620        40
37.630        27
37.640        40
37.650        33
37.660        47
37.670        53
37.680        27
37.690        33
37.700        47
37.710        53
37.720        33
37.730        67
37.740        60
37.750        47
37.760        20
37.770        47
37.780        73
37.790        93
37.800        93
37.810        80
37.820        60
37.830        87
37.840        80
37.850        60
37.860        33
37.870        13
37.880        73
37.890        73
37.900        40
37.910        53
37.920        53
37.930        67
37.940        33
37.950        73
37.960        27
37.970        40
37.980        13
37.990        47
38.000        47
38.010        40
38.020         7
38.030        67
38.040        27
38.050        13
38.060        53
38.070        53
38.080        33
38.090        27
38.100        47
38.110        53
38.120         7
38.130        27
38.140        20
38.150        40
38.160        40
38.170        27
38.180        27
38.190         7
38.200        47
38.210        47
38.220        33
38.230        13
38.240        33
38.250        33
38.260         7
38.270        20
38.280        27
38.290        27
38.300        33
38.310        47
38.320        47
38.330        13
38.340        40
38.350        27
38.360        27
38.370        53
38.380        20
38.390        20
38.400        60
38.410        33
38.420        13
38.430        40
38.440        53
38.450        13
38.460        40
38.470        33
38.480        53
38.490        27
38.500        20
38.510        27
38.520        27
38.530        20
38.540        33
38.550        13
38.560        27
38.570        80
38.580        47
38.590        27
38.600        47
38.610        20
38.620         7
38.630        27
38.640        27
38.650        47
38.660        13
38.670        33
38.680        33
38.690        53
38.700        27
38.710         7
38.720        40
38.730        20
38.740        40
38.750         7
38.760        20
38.770        20
38.780        27
38.790        60
38.800        60
38.810        53
38.820        33
38.830        47
38.840        27
38.850        27
38.860        20
38.870        47
38.880        27
38.890        13
38.900        53
38.910        27
38.920        53
38.930        33
38.940        47
38.950        20
38.960        47
38.970        53
38.980        33
38.990        53
39.000        60
39.010        40
39.020        20
39.030        47
39.040        47
39.050        40
39.060        20
39.070        40
39.080        40
39.090         7
39.100        20
39.110        13
39.120        40
39.130        40
39.140        20
39.150        40
39.160        40
39.170        33
39.180        20
39.190        27
39.200        40
39.210        13
39.220        27
39.230        13
39.240        13
39.250        67
39.260         7
39.270        20
39.280        13
39.290        27
39.300        27
39.310        27
39.320        53
39.330        33
39.340        27
39.350         0
39.360        40
39.370        40
39.380        33
39.390        33
39.400        40
39.410        33
39.420        33
39.430        53
39.440        33
39.450        33
39.460        20
39.470        20
39.480        20
39.490        40
39.500        20
39.510        27
39.520        40
39.530        47
39.540        20
39.550        40
39.560        33
39.570        60
39.580        40
39.590        33
39.600        27
39.610        33
39.620        20
39.630        13
39.640        33
39.650        27
39.660        27
39.670        33
39.680        47
39.690        40
39.700        20
39.710        53
39.720        67
39.730         0
39.740        20
39.750        27
39.760        20
39.770        13
39.780        20
39.790        47
39.800        20
39.810        47
39.820        27
39.830        20
39.840         7
39.850        20
39.860        13
39.870        27
39.880        27
39.890        53
39.900        47
39.910        27
39.920        20
39.930        27
39.940        20
39.950        13
39.960        13
39.970        47
39.980         7
39.990        27
40.000        20
40.010         7
40.020        27
40.030        33
40.040        13
40.050        27
40.060         7
40.070        33
40.080         7
40.090        27
40.100        27
40.110        20
40.120         7
40.130        47
40.140        33
40.150        40
40.160        47
40.170        20
40.180        13
40.190        13
40.200        40
40.210        27
40.220        27
40.230        53
40.240        27
40.250        13
40.260        47
40.270        33
40.280        27
40.290        40
40.300        33
40.310        27
40.320         7
40.330        27
40.340        47
40.350        13
40.360        33
40.370        27
40.380        20
40.390        33
40.400        33
40.410         0
40.420        27
40.430        13
40.440        13
40.450        13
40.460        40
40.470        20
40.480        27
40.490        33
40.500        33
40.510        13
40.520        33
40.530        27
40.540        40
40.550        27
40.560        47
40.570        13
40.580        27
40.590        27
40.600        40
40.610        20
40.620        27
40.630        20
40.640        20
40.650        33
40.660        40
40.670        13
40.680         0
40.690        33
40.700         7
40.710        27
40.720        20
40.730        20
40.740        40
40.750        13
40.760        33
40.770        27
40.780        20
40.790        20
40.800        33
40.810        60
40.820        33
40.830        20
40.840        53
40.850        27
40.860        20
40.870        13
40.880        33
40.890        13
40.900        47
40.910        33
40.920        27
40.930        87
40.940        33
40.950        40
40.960        13
40.970         0
40.980        33
40.990        33
41.000        47
41.010        20
41.020        33
41.030        47
41.040        27
41.050        40
41.060        47
41.070        13
41.080        47
41.090        53
41.100        27
41.110        40
41.120         7
41.130        20
41.140        40
41.150         7
41.160        47
41.170        47
41.180        20
41.190        13
41.200        40
41.210        13
41.220        13
41.230        13
41.240         7
41.250        33
41.260        40
41.270        27
41.280         7
41.290        47
41.300        27
41.310        33
41.320        27
41.330        20
41.340        33
41.350        27
41.360        33
41.370         0
41.380        33
41.390        13
41.400        47
41.410        13
41.420        47
41.430        47
41.440         7
41.450         7
41.460        27
41.470        33
41.480        33
41.490        33
41.500        13
41.510         7
41.520        27
41.530        27
41.540        33
41.550        40
41.560        33
41.570        47
41.580        33
41.590        20
41.600        47
41.610        27
41.620        33
41.630        47
41.640        67
41.650        53
41.660        47
41.670        60
41.680        40
41.690        53
41.700        67
41.710        40
41.720        67
41.730        60
41.740        53
41.750        60
41.760        60
41.770        33
41.780        13
41.790        33
41.800        40
41.810        80
41.820        47
41.830        67
41.840        40
41.850        20
41.860        33
41.870        53
41.880        13
41.890        27
41.900         7
41.910        20
41.920         7
41.930        27
41.940        53
41.950        27
41.960        27
41.970        47
41.980        33
41.990        27
42.000        27
42.010        33
42.020        33
42.030        27
42.040        40
42.050         7
42.060        27
42.070        40
42.080        40
42.090        20
42.100        47
42.110        40
42.120        20
42.130        27
42.140        53
42.150        73
42.160        60
42.170        60
42.180        87
42.190        33
42.200        47
42.210        67
42.220        60
42.230        27
42.240        73
42.250        67
42.260       120
42.270        67
42.280        80
42.290       127
42.300        73
42.310       133
42.320       120
42.330       173
42.340       140
42.350       100
42.360       120
42.370       120
42.380       147
42.390       127
42.400       140
42.410        73
42.420       133
42.430        87
42.440       113
42.450        93
42.460        73
42.470       107
42.480       113
42.490        80
42.500        87
42.510        20
42.520        40
42.530        60
42.540        67
42.550        33
42.560        40
42.570        80
42.580        33
42.590        40
42.600        47
42.610        53
42.620        47
42.630        13
42.640        33
42.650         7
42.660        33
42.670        13
42.680         7
42.690        20
42.700        20
42.710        20
42.720        47
42.730        20
42.740        33
42.750        27
42.760         7
42.770        40
42.780        27
42.790        33
42.800        33
42.810        20
42.820        20
42.830        27
42.840        20
42.850        33
42.860        33
42.870        20
42.880         0
42.890        13
42.900        20
42.910        27
42.920        20
42.930        40
42.940        27
42.950        13
42.960        33
42.970        27
42.980         7
42.990        13
43.000        27
43.010        53
43.020         7
43.030        40
43.040        40
43.050        40
43.060        27
43.070        27
43.080        27
43.090        40
43.100         7
43.110        33
43.120        47
43.130        47
43.140        33
43.150        33
43.160        80
43.170        33
43.180        47
43.190        27
43.200        53
43.210        60
43.220        67
43.230       100
43.240       100
43.250       113
43.260       120
43.270       120
43.280        93
43.290       140
43.300       100
43.310       233
43.320       280
43.330       353
43.340       420
43.350       553
43.360       720
43.370       513
43.380       520
43.390       540
43.400       333
43.410       287
43.420       273
43.430       193
43.440       273
43.450       247
43.460       267
43.470       313
43.480       213
43.490       287
43.500       247
43.510       160
43.520       133
43.530       107
43.540       100
43.550        53
43.560        53
43.570        40
43.580        40
43.590        47
43.600        47
43.610        20
43.620        27
43.630        27
43.640        20
43.650        20
43.660        27
43.670        33
43.680        40
43.690         7
43.700        47
43.710        20
43.720        33
43.730        27
43.740        33
43.750        13
43.760        40
43.770         7
43.780        27
43.790        20
43.800        20
43.810        20
43.820        20
43.830        13
43.840        27
43.850        20
43.860        60
43.870        20
43.880        40
43.890        13
43.900        33
43.910         0
43.920        27
43.930        40
43.940        27
43.950        27
43.960        20
43.970        33
43.980         7
43.990        27
44.000        33
44.010        27
44.020        47
44.030        13
44.040        20
44.050        33
44.060         7
44.070        27
44.080        27
44.090        20
44.100        27
44.110        33
44.120        27
44.130        20
44.140        20
44.150        13
44.160         7
44.170         0
44.180        33
44.190        53
44.200        13
44.210        13
44.220        20
44.230        27
44.240        13
44.250         7
44.260        47
44.270        27
44.280        47
44.290        40
44.300        13
44.310        40
44.320        13
44.330        13
44.340        13
44.350        20
44.360        33
44.370        27
44.380        40
44.390        20
44.400        40
44.410        27
44.420        33
44.430        27
44.440        20
44.450        13
44.460        33
44.470        20
44.480        13
44.490        20
44.500        13
44.510        13
44.520        47
44.530        20
44.540        20
44.550        27
44.560        20
44.570         7
44.580        27
44.590        47
44.600        27
44.610        27
44.620         7
44.630        40
44.640         7
44.650        20
44.660        40
44.670         0
44.680         7
44.690        20
44.700        27
44.710        53
44.720        60
44.730        27
44.740        27
44.750        13
44.760        13
44.770        33
44.780        13
44.790         7
44.800        20
44.810        13
44.820         7
44.830        33
44.840        13
44.850        53
44.860        33
44.870        33
44.880        47
44.890        13
44.900        20
44.910        27
44.920        40
44.930        27
44.940        20
44.950         7
44.960        13
44.970        13
44.980        40
44.990        20
45.000        20
45.010         7
45.020        47
45.030        27
45.040        33
45.050        40
45.060        27
45.070        20
45.080        27
45.090        60
45.100        13
45.110         0
45.120        33
45.130        33
45.140        20
45.150        20
45.160        33
45.170        33
45.180        13
45.190        20
45.200        33
45.210        27
45.220        40
45.230        20
45.240        27
45.250        20
45.260        47
45.270        13
45.280        20
45.290        40
45.300        40
45.310        27
45.320         0
45.330        27
45.340        27
45.350        27
45.360        13
45.370        13
45.380        40
45.390        33
45.400        27
45.410        27
45.420        13
45.430        20
45.440        13
45.450        33
45.460         7
45.470        13
45.480        27
45.490        40
45.500        27
45.510        20
45.520        13
45.530        33
45.540        47
45.550        20
45.560         7
45.570        13
45.580        27
45.590        33
45.600        20
45.610        20
45.620        20
45.630        40
45.640        13
45.650        40
45.660        27
45.670        40
45.680        27
45.690        33
45.700        40
45.710        13
45.720        27
45.730        47
45.740        33
45.750        27
45.760        53
45.770        27
45.780        40
45.790        33
45.800        60
45.810        53
45.820        27
45.830        40
45.840        67
45.850        47
45.860        60
45.870        87
45.880        73
45.890        87
45.900        87
45.910       153
45.920       107
45.930        80
45.940       113
45.950       153
45.960       120
45.970       213
45.980       213
45.990       273
46.000       200
46.010       207
46.020       267
46.030       267
46.040       267
46.050       187
46.060       227
46.070       233
46.080       187
46.090       227
46.100       293
46.110       260
46.120       167
46.130       220
46.140       280
46.150       200
46.160       253
46.170       160
46.180       200
46.190       200
46.200       187
46.210       147
46.220       127
46.230       167
46.240       133
46.250       133
46.260       113
46.270       100
46.280       113
46.290       100
46.300       127
46.310       107
46.320        73
46.330        87
46.340        53
46.350        33
46.360        53
46.370        87
46.380        47
46.390        80
46.400        20
46.410        60
46.420        27
46.430        60
46.440        73
46.450        47
46.460        40
46.470        33
46.480        47
46.490        53
46.500        33
46.510        47
46.520        33
46.530        47
46.540        47
46.550        27
46.560        53
46.570        53
46.580        27
46.590        40
46.600        53
46.610        53
46.620        40
46.630        40
46.640        33
46.650        27
46.660        27
46.670        67
46.680        53
46.690        60
46.700        53
46.710        53
46.720        73
46.730        60
46.740        47
46.750        73
46.760        60
46.770        67
46.780        53
46.790        47
46.800        47
46.810        47
46.820        87
46.830        40
46.840        80
46.850        40
46.860        67
46.870        73
46.880        53
46.890       120
46.900        87
46.910        93
46.920       100
46.930        80
46.940        73
46.950        80
46.960        80
46.970        80
46.980        27
46.990       107
47.000        53
47.010        40
47.020        53
47.030       113
47.040        87
47.050        93
47.060        93
47.070        53
47.080        80
47.090        60
47.100        47
47.110        87
47.120        20
47.130        53
47.140        87
47.150        47
47.160        40
47.170        40
47.180        53
47.190        40
47.200        20
47.210        27
47.220        33
47.230        27
47.240        40
47.250        13
47.260        33
47.270        20
47.280        20
47.290        33
47.300        27
47.310        20
47.320        40
47.330        13
47.340        53
47.350        13
47.360        33
47.370        27
47.380        40
47.390        13
47.400        27
47.410        33
47.420         7
47.430        13
47.440         7
47.450        27
47.460        33
47.470        13
47.480         7
47.490        47
47.500        20
47.510        33
47.520        20
47.530        33
47.540        20
47.550         0
47.560        47
47.570        20
47.580        27
47.590        33
47.600        27
47.610        40
47.620        27
47.630        20
47.640        20
47.650        27
47.660        20
47.670        33
47.680        13
47.690        27
47.700        27
47.710        33
47.720         7
47.730         7
47.740        13
47.750        13
47.760        27
47.770        13
47.780         7
47.790        40
47.800        47
47.810        40
47.820         7
47.830        20
47.840        27
47.850         0
47.860        13
47.870        20
47.880         7
47.890        13
47.900        40
47.910         7
47.920        40
47.930        13
47.940        27
47.950        33
47.960        27
47.970        20
47.980        20
47.990        20
48.000        27
48.010        20
48.020        13
48.030        13
48.040        20
48.050         7
48.060        33
48.070         7
48.080        27
48.090        40
48.100        27
48.110         7
48.120        27
48.130        13
48.140        13
48.150        27
48.160        20
48.170         7
48.180        27
48.190        33
48.200        13
48.210        13
48.220        33
48.230        27
48.240         0
48.250        13
48.260        60
48.270        13
48.280        13
48.290        27
48.300        40
48.310        47
48.320        27
48.330        27
48.340        27
48.350        20
48.360        47
48.370        20
48.380         7
48.390        20
48.400        53
48.410        53
48.420        33
48.430        13
48.440        33
48.450         7
48.460        27
48.470        13
48.480        20
48.490         7
48.500        20
48.510         7
48.520         0
48.530         7
48.540        20
48.550        27
48.560        20
48.570        20
48.580        27
48.590        47
48.600        20
48.610        40
48.620        33
48.630        20
48.640        33
48.650        33
48.660        20
48.670        27
48.680         7
48.690        20
48.700        40
48.710        20
48.720        33
48.730        27
48.740        40
48.750        27
48.760         7
48.770        33
48.780        33
48.790        27
48.800        27
48.810        33
48.820        27
48.830        27
48.840        20
48.850        27
48.860        33
48.870        27
48.880        53
48.890        27
48.900        20
48.910        47
48.920        47
48.930        40
48.940        40
48.950        27
48.960        47
48.970        33
48.980        27
48.990        73
49.000        13
49.010        60
49.020        67
49.030        67
49.040        93
49.050       107
49.060        87
49.070        60
49.080       140
49.090       113
49.100        93
49.110       120
49.120        80
49.130       120
49.140        87
49.150        73
49.160        87
49.170        80
49.180       127
49.190        93
49.200        93
49.210        73
49.220        67
49.230        80
49.240        53
49.250        60
49.260        73
49.270        47
49.280        67
49.290        27
49.300        60
49.310        47
49.320        47
49.330        40
49.340        47
49.350        33
49.360        33
49.370        40
49.380         7
49.390        27
49.400        20
49.410        20
49.420        33
49.430        40
49.440        20
49.450        13
49.460        13
49.470        20
49.480        20
49.490        27
49.500        40
49.510         0
49.520        20
49.530         7
49.540        33
49.550        27
49.560        33
49.570        13
49.580         0
49.590        20
49.600        13
49.610        33
49.620        33
49.630        20
49.640        40
49.650        27
49.660        13
49.670        13
49.680        20
49.690        27
49.700        13
49.710        27
49.720        13
49.730        27
49.740        20
49.750        40
49.760        13
49.770         7
49.780        13
49.790        13
49.800         7
49.810        13
49.820        47
49.830        20
49.840        33
49.850        27
49.860        13
49.870        13
49.880        20
49.890        40
49.900        13
49.910        13
49.920        33
49.930        13
49.940        27
49.950        27
49.960        73
49.970        40
49.980        20
49.990        40
50.000        20
50.010        47
50.020        13
50.030        47
50.040        33
50.050        47
50.060        27
50.070        13
50.080        67
50.090        27
50.100        20
50.110         7
50.120        53
50.130        40
50.140        27
50.150        13
50.160        13
50.170        13
50.180        20
50.190        13
50.200        47
50.210         0
50.220         7
50.230        33
50.240         7
50.250        40
50.260        27
50.270        27
50.280        33
50.290        20
50.300        33
50.310        27
50.320        27
50.330        40
50.340        20
50.350        20
50.360        13
50.370         7
50.380        40
50.390        27
50.400        20
50.410        20
50.420        20
50.430        40
50.440        33
50.450        20
50.460        13
50.470        20
50.480        20
50.490        47
50.500        27
50.510        33
50.520        27
50.530        20
50.540        27
50.550        33
50.560        20
50.570        40
50.580        27
50.590        13
50.600        33
50.610         0
50.620        20
50.630        20
50.640        33
50.650        13
50.660        47
50.670        20
50.680        40
50.690         0
50.700        20
50.710        47
50.720        20
50.730        13
50.740         0
50.750        20
50.760        20
50.770        27
50.780        13
50.790        13
50.800        27
50.810         7
50.820        13
50.830        20
50.840        20
50.850        13
50.860        33
50.870         0
50.880        13
50.890        47
50.900        27
50.910        13
50.920        20
50.930        33
50.940        20
50.950        20
50.960        20
50.970        27
50.980        13
50.990        33
51.000        33
51.010        20
51.020         7
51.030        13
51.040        13
51.050        20
51.060        33
51.070        13
51.080        27
51.090        20
51.100        20
51.110        40
51.120        20
51.130        27
51.140        13
51.150        13
51.160        40
51.170        20
51.180        20
51.190        20
51.200        27
51.210        20
51.220        27
51.230        13
51.240        33
51.250        20
51.260        27
51.270        13
51.280        13
51.290         7
51.300        20
51.310        20
51.320        27
51.330        27
51.340        20
51.350        33
51.360        27
51.370        47
51.380        13
51.390        27
51.400        13
51.410        20
51.420        40
51.430         7
51.440        13
51.450        27
51.460        27
51.470        27
51.480        20
51.490        20
51.500        13
51.510         7
51.520        20
51.530        27
51.540        40
51.550        20
51.560        20
51.570        33
51.580        60
51.590        47
51.600        27
51.610        47
51.620         0
51.630        20
51.640        20
51.650        20
51.660        20
51.670        13
51.680        47
51.690        13
51.700         7
51.710        40
51.720        47
51.730        53
51.740        33
51.750        53
51.760        47
51.770        47
51.780        93
51.790        33
51.800        80
51.810        87
51.820        80
51.830        40
51.840        93
51.850        87
51.860       100
51.870       100
51.880       160
51.890        93
51.900        93
51.910        73
51.920        67
51.930       147
51.940       120
51.950       127
51.960        87
51.970        73
51.980       100
51.990        67
52.000       127
52.010       147
52.020       127
52.030        80
52.040        67
52.050       120
52.060        73
52.070        80
52.080        67
52.090        87
52.100        80
52.110        87
52.120        73
52.130        53
52.140        40
52.150        60
52.160        53
52.170        60
52.180        67
52.190        40
52.200        33
52.210        20
52.220        27
52.230        27
52.240        47
52.250        27
52.260        27
52.270        33
52.280        47
52.290        13
52.300        20
52.310        27
52.320        13
52.330        40
52.340        27
52.350        33
52.360        40
52.370        47
52.380        27
52.390        27
52.400        20
52.410        27
52.420        20
52.430        27
52.440        33
52.450        20
52.460        13
52.470        27
52.480        40
52.490         7
52.500        40
52.510        20
52.520        40
52.530        40
52.540        87
52.550        73
52.560        33
52.570        80
52.580        40
52.590        60
52.600        33
52.610        47
52.620        20
52.630        13
52.640        33
52.650        40
52.660        20
52.670        13
52.680        47
52.690        33
52.700        20
52.710         7
52.720        20
52.730        40
52.740        27
52.750        27
52.760        27
52.770        20
52.780        33
52.790        20
52.800        27
52.810        33
52.820        27
52.830        40
52.840         7
52.850        13
52.860        47
52.870         7
52.880        20
52.890        27
52.900        20
52.910        20
52.920        40
52.930         0
52.940        33
52.950        20
52.960        27
52.970         7
52.980        13
52.990        20
53.000         7
53.010        20
53.020         7
53.030        33
53.040        13
53.050        13
53.060        13
53.070        20
53.080        40
53.090         7
53.100        13
53.110        13
53.120        20
53.130        27
53.140        13
53.150        13
53.160        20
53.170        13
53.180         7
53.190         7
53.200        27
53.210        33
53.220        27
53.230         0
53.240        27
53.250        20
53.260        13
53.270        27
53.280        27
53.290        13
53.300        20
53.310        33
53.320        20
53.330        33
53.340        13
53.350        13
53.360         7
53.370        20
53.380        27
53.390        27
53.400        27
53.410         0
53.420        20
53.430        13
53.440         0
53.450        27
53.460        27
53.470        27
53.480        33
53.490        13
53.500        40
53.510        33
53.520        20
53.530        20
53.540        20
53.550        13
53.560        20
53.570        20
53.580        60
53.590        33
53.600        47
53.610        20
53.620         7
53.630        33
53.640        13
53.650        20
53.660        20
53.670        20
53.680         7
53.690        33
53.700        13
53.710        27
53.720        40
53.730        33
53.740        27
53.750        47
53.760        13
53.770        33
53.780        20
53.790        40
53.800        47
53.810        20
53.820         7
53.830        33
53.840         7
53.850        33
53.860        20
53.870        20
53.880        27
53.890         0
53.900        27
53.910        27
53.920        47
53.930        13
53.940        27
53.950        20
53.960         7
53.970        13
53.980        27
53.990        20
54.000        13
54.010        33
54.020        27
54.030         7
54.040        20
54.050        33
54.060        13
54.070        20
54.080        33
54.090        13
54.100        27
54.110         0
54.120        33
54.130         7
54.140        33
54.150        13
54.160        27
54.170        13
54.180        33
54.190         7
54.200        13
54.210        20
54.220        27
54.230         7
54.240        27
54.250        20
54.260        47
54.270         7
54.280         7
54.290         7
54.300        13
54.310         7
54.320        13
54.330         7
54.340         7
54.350        53
54.360         7
54.370        27
54.380         7
54.390        13
54.400        20
54.410         7
54.420        27
54.430        27
54.440        60
54.450        20
54.460         7
54.470        13
54.480        27
54.490        13
54.500        13
54.510        13
54.520        20
54.530         0
54.540        20
54.550        13
54.560         7
54.570         7
54.580        33
54.590        40
54.600         7
54.610        40
54.620        20
54.630        27
54.640        13
54.650        20
54.660        13
54.670        13
54.680         0
54.690        13
54.700        20
54.710        33
54.720        13
54.730        13
54.740        27
54.750        13
54.760        20
54.770        13
54.780        13
54.790         0
54.800        40
54.810        20
54.820         7
54.830        47
54.840         7
54.850        33
54.860        27
54.870        33
54.880        40
54.890         7
54.900        20
54.910         7
54.920        13
54.930        27
54.940        13
54.950        13
54.960        20
54.970         7
54.980        47
54.990         7
55.000        13
55.010        20
55.020        13
55.030         7
55.040        13
55.050         7
55.060        20
55.070        20
55.080        13
55.090        27
55.100        33
55.110        13
55.120        13
55.130        20
55.140        27
55.150         7
55.160        13
55.170        27
55.180        40
55.190        20
55.200        33
55.210        20
55.220         7
55.230         7
55.240        27
55.250        13
55.260        53
55.270        27
55.280        27
55.290        33
55.300         7
55.310         7
55.320        13
55.330        20
55.340        40
55.350        33
55.360        20
55.370        13
55.380        13
55.390        33
55.400         7
55.410        20
55.420        33
55.430        20
55.440        40
55.450        20
55.460         0
55.470        20
55.480        13
55.490        33
55.500        13
55.510        20
55.520        27
55.530        13
55.540        33
55.550        40
55.560        13
55.570        47
55.580        27
55.590        20
55.600        67
55.610        27
55.620        33
55.630        20
55.640        33
55.650        20
55.660        40
55.670        40
55.680        13
55.690        53
55.700        53
55.710        53
55.720        33
55.730        40
55.740        20
55.750        87
55.760        27
55.770        33
55.780        73
55.790        13
55.800        47
55.810        27
55.820        47
55.830        40
55.840        20
55.850        27
55.860        13
55.870        27
55.880        33
55.890        20
55.900        20
55.910         0
55.920        53
55.930         0
55.940        27
55.950        27
55.960        13
55.970        47
55.980         7
55.990        27
56.000        20
56.010        13
56.020        20
56.030        13
56.040        33
56.050        20
56.060        47
56.070        13
56.080        27
56.090        33
56.100        20
56.110        60
56.120        40
56.130        40
56.140        33
56.150        40
56.160        40
56.170        33
56.180        60
56.190        13
56.200        47
56.210        40
56.220        20
56.230        13
56.240        53
56.250         7
56.260        33
56.270        27
56.280        47
56.290        13
56.300        20
56.310        20
56.320        27
56.330        20
56.340        67
56.350        33
56.360        27
56.370        27
56.380        27
56.390        53
56.400        40
56.410         7
56.420        33
56.430        20
56.440        87
56.450         7
56.460        20
56.470         7
56.480        20
56.490        33
56.500        27
56.510        47
56.520        33
56.530        13
56.540        40
56.550        47
56.560        20
56.570        13
56.580        53
56.590        33
56.600         7
56.610        40
56.620        33
56.630         7
56.640        13
56.650        13
56.660        13
56.670        27
56.680        20
56.690         7
56.700        20
56.710        20
56.720        13
56.730        33
56.740        27
56.750         0
56.760         0
56.770        13
56.780         7
56.790        13
56.800        20
56.810        27
56.820        20
56.830        20
56.840        27
56.850        13
56.860         0
56.870        13
56.880        13
56.890        53
56.900         7
56.910        20
56.920        20
56.930        27
56.940        13
56.950        20
56.960        20
56.970        27
56.980        13
56.990        13
57.000         0
57.010         7
57.020        33
57.030        27
57.040         0
57.050        27
57.060         7
57.070        27
57.080        20
57.090        33
57.100         0
57.110        20
57.120        20
57.130         7
57.140        40
57.150        33
57.160        40
57.170        33
57.180        20
57.190        33
57.200        40
57.210        13
57.220         0
57.230        53
57.240        53
57.250        53
57.260        13
57.270        27
57.280         7
57.290        40
57.300        53
57.310        47
57.320        20
57.330        53
57.340        13
57.350        47
57.360        73
57.370        73
57.380        67
57.390        53
57.400        27
57.410       107
57.420        80
57.430       120
57.440        73
57.450       100
57.460       107
57.470        93
57.480       133
57.490       193
57.500       200
57.510       187
57.520       207
57.530       247
57.540       327
57.550       300
57.560       307
57.570       220
57.580       100
57.590       100
57.600        80
57.610       113
57.620        73
57.630        80
57.640        47
57.650       100
57.660        73
57.670       167
57.680       127
57.690       140
57.700       140
57.710       187
57.720       133
57.730       120
57.740        87
57.750        53
57.760        73
57.770        67
57.780         7
57.790        87
57.800        40
57.810        27
57.820        20
57.830        13
57.840        33
57.850        20
57.860         7
57.870        13
57.880        13
57.890        33
57.900         7
57.910        27
57.920        13
57.930        20
57.940        27
57.950        20
57.960        13
57.970        20
57.980        27
57.990        40
58.000        40
58.010        13
58.020        27
58.030        13
58.040        13
58.050        13
58.060        20
58.070         7
58.080        20
58.090        27
58.100        20
58.110        27
58.120        33
58.130        20
58.140        27
58.150        27
58.160        47
58.170        13
58.180        33
58.190        20
58.200        27
58.210        40
58.220        27
58.230        47
58.240         7
58.250         0
58.260        33
58.270         7
58.280         7
58.290        13
58.300        20
58.310        20
58.320         7
58.330         7
58.340        27
58.350         0
58.360        20
58.370        20
58.380         0
58.390        13
58.400        27
58.410        13
58.420        13
58.430        20
58.440        53
58.450        27
58.460        33
58.470         7
58.480        27
58.490         0
58.500         7
58.510        20
58.520        13
58.530        27
58.540        13
58.550        40
58.560        13
58.570        20
58.580         0
58.590        20
58.600        13
58.610        20
58.620         7
58.630        13
58.640        13
58.650        13
58.660        27
58.670        40
58.680        27
58.690        13
58.700        13
58.710         7
58.720        47
58.730        13
58.740         7
58.750         7
58.760        20
58.770         0
58.780        13
58.790        27
58.800        27
58.810         0
58.820        27
58.830        20
58.840         7
58.850         7
58.860        13
58.870        27
58.880        13
58.890        13
58.900        20
58.910        27
58.920         0
58.930         7
58.940         0
58.950         0
58.960        40
58.970        40
58.980         7
58.990        27
59.000        27
59.010        13
59.020        13
59.030        13
59.040         7
59.050        20
59.060         7
59.070        20
59.080        13
59.090        20
59.100        13
59.110        47
59.120        20
59.130        13
59.140         0
59.150        13
59.160         0
59.170        33
59.180        13
59.190         7
59.200        13
59.210        20
59.220        27
59.230        13
59.240         7
59.250         0
59.260        47
59.270        13
59.280        13
59.290         7
59.300        13
59.310        20
59.320        20
59.330        33
59.340         7
59.350         7
59.360         7
59.370        27
59.380        40
59.390        40
59.400        27
59.410        13
59.420        20
59.430         0
59.440        33
59.450        53
59.460        20
59.470        27
59.480        27
59.490        27
59.500        20
59.510         0
59.520         7
59.530        47
59.540        27
59.550        33
59.560        13
59.570        33
59.580        27
59.590        40
59.600        13
59.610        27
59.620        13
59.630        20
59.640        20
59.650        33
59.660        20
59.670        13
59.680         7
59.690        40
59.700        20
59.710         7
59.720        20
59.730        27
59.740        27
59.750        40
59.760        27
59.770         7
59.780         7
59.790         7
59.800        27
59.810        40
59.820        20
59.830        27
59.840        20
59.850         7
59.860        20
59.870        27
59.880         0
59.890        33
59.900        13
59.910        20
59.920        27
59.930        33
59.940        27
59.950        47
59.960        13
59.970        13
59.980         7
59.990        13
60.000         7
