20.000        60
20.010        53
20.020        47
20.030        33
20.040        40
20.050        53
20.060        53
20.070       107
20.080        87
20.090        13
20.100        73
20.110        60
20.120       107
20.130        60
20.140        40
20.150        93
20.160        53
20.170        53
20.180        67
20.190        53
20.200       107
20.210        73
20.220        53
20.230        80
20.240        87
20.250        20
20.260        67
20.270        53
20.280        33
20.290        53
20.300        47
20.310        87
20.320        67
20.330        60
20.340        27
20.350        33
20.360        27
20.370        67
20.380        33
20.390        73
20.400        53
20.410        40
20.420        73
20.430        27
20.440        47
20.450        40
20.460        33
20.470        33
20.480        27
20.490        33
20.500        60
20.510        20
20.520        67
20.530        40
20.540        60
20.550        40
20.560        40
20.570        47
20.580        60
20.590        53
20.600        27
20.610        40
20.620        47
20.630        27
20.640        60
20.650        47
20.660        80
20.670        47
20.680        47
20.690        40
20.700        20
20.710        47
20.720        33
20.730        33
20.740        33
20.750        27
20.760        53
20.770        73
20.780        87
20.790        47
20.800        47
20.810        13
20.820        93
20.830        27
20.840        60
20.850        27
20.860        47
20.870        53
20.880        60
20.890        47
20.900        27
20.910        60
20.920        33
20.930        33
20.940        47
20.950        67
20.960        60
20.970        47
20.980        40
20.990        47
21.000        40
21.010        60
21.020        20
21.030        47
21.040        40
21.050        47
21.060        40
21.070        73
21.080        60
21.090        40
21.100        20
21.110        67
21.120        33
21.130        20
21.140        27
21.150        40
21.160        80
21.170        27
21.180        27
21.190        33
21.200        40
21.210        33
21.220        53
21.230        40
21.240        47
21.250        20
21.260        27
21.270        47
21.280        33
21.290        40
21.300        27
21.310        47
21.320        53
21.330        13
21.340        20
21.350        20
21.360        27
21.370        40
21.380        33
21.390        27
21.400        60
21.410        33
21.420        93
21.430        67
21.440        47
21.450        60
21.460        33
21.470        27
21.480        60
21.490        47
21.500        53
21.510        33
21.520        27
21.530        47
21.540        33
21.550        27
21.560        33
21.570        67
21.580        53
21.590        60
21.600        40
21.610        47
21.620        60
21.630        40
21.640        53
21.650        53
21.660        60
21.670        20
21.680        40
21.690        47
21.700        47
21.710        20
21.720        53
21.730        47
21.740        27
21.750        33
21.760        40
21.770        53
21.780        13
21.790        60
21.800        33
21.810        20
21.820        40
21.830        60
21.840        27
21.850        53
21.860        60
21.870        60
21.880        33
21.890        27
21.900        47
21.910        33
21.920        53
21.930        47
21.940        33
21.950        27
21.960        40
21.970        53
21.980         7
21.990        47
22.000        53
22.010        40
22.020        27
22.030        53
22.040         7
22.050        47
22.060        33
22.070        40
22.080        40
22.090        13
22.100        80
22.110        33
22.120        80
22.130        40
22.140        33
22.150        53
22.160        73
22.170        47
22.180        40
22.190        40
22.200        27
22.210        33
22.220        73
22.230        73
22.240        60
22.250        53
22.260        47
22.270        80
22.280        60
22.290        27
22.300        47
22.310        67
22.320        53
22.330        60
22.340        40
22.350        93
22.360        40
22.370        53
22.380        67
22.390        73
22.400       100
22.410        93
22.420       127
22.430        67
22.440       133
22.450       107
22.460       187
22.470       120
22.480       167
22.490       113
22.500       160
22.510       247
22.520       187
22.530       233
22.540       240
22.550       207
22.560       240
22.570       260
22.580       333
22.590       333
22.600       373
22.610       307
22.620       340
22.630       367
22.640       353
22.650       327
22.660       313
22.670       360
22.680       307
22.690       287
22.700       260
22.710       213
22.720       187
22.730       193
22.740       180
22.750       133
22.760       140
22.770       133
22.780       113
22.790        80
22.800        60
22.810        60
22.820        93
22.830        73
22.840        33
22.850        80
22.860        73
22.870        40
22.880        93
22.890       113
22.900        47
22.910        80
22.920        47
22.930        73
22.940        47
22.950        13
22.960        47
22.970        47
22.980        33
22.990        47
23.000        67
23.010        73
23.020        53
23.030        60
23.040        73
23.050        40
23.060        27
23.070        47
23.080        53
23.090        27
23.100        53
23.110        33
23.120        27
23.130        40
23.140        40
23.150        40
23.160        47
23.170        53
23.180        13
23.190        33
23.200        40
23.210        33
23.220        20
23.230        87
23.240        93
23.250        20
23.260        40
23.270        47
23.280        53
23.290        27
23.300        67
23.310        53
23.320        40
23.330        80
23.340        27
23.350        53
23.360        33
23.370        40
23.380        53
23.390        47
23.400        40
23.410        67
23.420        80
23.430        60
23.440        53
23.450        27
23.460        20
23.470        53
23.480        20
23.490        60
23.500        40
23.510        20
23.520        60
23.530        40
23.540        47
23.550         7
23.560        60
23.570        33
23.580        53
23.590        20
23.600        47
23.610        53
23.620        40
23.630        53
23.640        33
23.650        27
23.660        73
23.670        20
23.680        27
23.690        33
23.700        53
23.710        33
23.720        73
23.730        20
23.740        20
23.750        47
23.760        13
23.770        47
23.780        53
23.790        40
23.800         7
23.810        33
23.820        53
23.830        53
23.840        20
23.850        33
23.860        20
23.870        53
23.880        53
23.890        47
23.900        40
23.910        33
23.920        67
23.930        40
23.940        47
23.950        47
23.960        40
23.970        67
23.980        73
23.990        27
24.000        40
24.010        53
24.020        60
24.030        53
24.040        27
24.050        27
24.060        27
24.070        27
24.080        33
24.090        47
24.100        20
24.110        40
24.120         7
24.130        67
24.140        20
24.150        33
24.160        20
24.170        60
24.180        40
24.190        20
24.200        40
24.210        47
24.220        33
24.230        60
24.240        67
24.250        47
24.260        60
24.270        33
24.280        20
24.290        33
24.300        53
24.310        47
24.320        67
24.330        27
24.340        53
24.350        53
24.360        60
24.370        27
24.380        40
24.390        53
24.400        20
24.410        53
24.420        40
24.430        93
24.440        47
24.450        53
24.460        53
24.470        33
24.480        40
24.490       100
24.500        33
24.510        33
24.520        40
24.530        20
24.540        47
24.550        27
24.560        47
24.570        73
24.580        13
24.590        33
24.600        20
24.610        47
24.620        20
24.630        73
24.640        53
24.650        27
24.660        73
24.670        20
24.680        20
24.690        67
24.700        20
24.710        60
24.720        47
24.730        27
24.740        80
24.750        33
24.760        73
24.770        47
24.780        27
24.790        40
24.800        47
24.810        13
24.820        33
24.830        53
24.840        60
24.850        47
24.860        67
24.870        47
24.880        33
24.890        60
24.900        40
24.910        60
24.920        33
24.930        60
24.940        27
24.950        73
24.960        40
24.970        47
24.980        53
24.990        33
25.000        60
25.010        33
25.020        53
25.030        40
25.040        53
25.050       100
25.060        47
25.070        73
25.080        47
25.090        67
25.100        47
25.110        67
25.120        47
25.130        27
25.140        53
25.150        47
25.160        47
25.170        73
25.180        47
25.190        40
25.200        53
25.210        53
25.220        67
25.230        80
25.240        87
25.250        33
25.260        27
25.270        73
25.280        53
25.290        80
25.300        60
25.310        47
25.320        53
25.330        93
25.340        40
25.350        40
25.360        40
25.370        53
25.380        40
25.390        60
25.400        73
25.410        40
25.420        47
25.430        80
25.440        73
25.450        87
25.460        47
25.470        53
25.480       100
25.490       113
25.500        73
25.510        53
25.520        53
25.530       127
25.540       160
25.550        87
25.560       133
25.570       100
25.580       193
25.590       140
25.600       247
25.610       260
25.620       133
25.630       247
25.640       267
25.650       307
25.660       407
25.670       340
25.680       380
25.690       327
25.700       387
25.710       413
25.720       453
25.730       506
25.740       540
25.750       633
25.760       653
25.770       680
25.780       726
25.790       853
25.800       853
25.810       833
25.820       866
25.830       773
25.840       786
25.850       900
25.860       753
25.870       526
25.880       686
25.890       586
25.900       560
25.910       393
25.920       526
25.930       333
25.940       340
25.950       240
25.960       287
25.970       213
25.980       160
25.990       140
26.000       100
26.010       133
26.020       107
26.030       107
26.040        87
26.050        93
26.060        33
26.070        67
26.080        47
26.090        60
26.100        67
26.110        93
26.120        80
26.130        53
26.140        53
26.150        60
26.160        53
26.170        53
26.180        20
26.190        47
26.200        93
26.210        60
26.220        47
26.230        40
26.240        40
26.250        47
26.260        33
26.270        40
26.280        60
26.290        53
26.300        40
26.310        20
26.320        93
26.330        40
26.340        73
26.350        67
26.360        60
26.370        27
26.380        53
26.390        40
26.400        47
26.410        47
26.420        53
26.430        53
26.440        33
26.450        67
26.460        53
26.470        60
26.480        60
26.490        53
26.500        40
26.510        73
26.520        60
26.530        47
26.540        60
26.550        33
26.560        47
26.570        33
26.580        67
26.590        47
26.600        47
26.610        60
26.620        60
26.630        47
26.640        80
26.650        67
26.660        67
26.670        67
26.680        47
26.690        53
26.700        40
26.710        67
26.720        40
26.730        33
26.740        60
26.750        47
26.760        47
26.770        53
26.780        53
26.790        33
26.800        33
26.810        40
26.820        60
26.830        40
26.840        53
26.850        47
26.860        53
26.870        33
26.880        33
26.890        33
26.900        67
26.910        33
26.920        53
26.930        27
26.940        33
26.950        47
26.960        60
26.970        40
26.980        20
26.990        73
27.000        40
27.010        13
27.020       100
27.030        33
27.040        33
27.050        40
27.060        33
27.070        40
27.080        27
27.090        40
27.100        67
27.110        60
27.120        20
27.130        33
27.140        60
27.150        60
27.160        53
27.170        20
27.180        20
27.190        53
27.200        53
27.210        33
27.220        40
27.230        40
27.240        33
27.250        33
27.260        60
27.270        40
27.280        60
27.290        60
27.300        33
27.310        20
27.320        33
27.330        27
27.340        27
27.350        20
27.360        47
27.370        40
27.380        27
27.390        73
27.400        47
27.410        60
27.420         7
27.430        40
27.440        40
27.450        33
27.460        53
27.470        47
27.480        40
27.490        27
27.500        13
27.510        53
27.520        60
27.530        53
27.540        20
27.550        60
27.560        73
27.570        60
27.580        33
27.590        33
27.600        73
27.610        67
27.620        40
27.630        53
27.640        33
27.650        20
27.660        27
27.670        47
27.680        13
27.690        80
27.700        47
27.710        80
27.720        40
27.730        47
27.740        47
27.750        40
27.760        40
27.770        47
27.780        33
27.790        40
27.800        33
27.810        73
27.820        33
27.830        40
27.840        20
27.850        67
27.860        53
27.870        47
27.880        40
27.890        93
27.900        60
27.910        47
27.920        60
27.930        20
27.940        60
27.950        67
27.960        27
27.970        33
27.980        60
27.990        80
28.000        27
28.010        40
28.020        20
28.030        53
28.040        73
28.050        67
28.060        33
28.070        53
28.080        53
28.090        33
28.100        73
28.110        60
28.120        67
28.130        73
28.140        80
28.150        53
28.160        40
28.170        40
28.180        73
28.190        40
28.200        47
28.210        87
28.220        40
28.230        47
28.240        40
28.250        73
28.260        60
28.270        80
28.280        47
28.290        40
28.300        53
28.310        40
28.320        40
28.330        53
28.340        27
28.350        27
28.360        47
28.370        73
28.380        47
28.390        33
28.400        20
28.410        60
28.420        33
28.430        87
28.440        40
28.450        60
28.460        73
28.470        53
28.480        80
28.490        80
28.500        93
28.510        60
28.520        47
28.530        60
28.540        53
28.550        53
28.560        87
28.570        67
28.580        53
28.590        80
28.600       107
28.610        93
28.620        93
28.630        80
28.640        93
28.650       127
28.660       147
28.670       113
28.680        93
28.690       200
28.700       127
28.710       127
28.720       147
28.730       247
28.740       187
28.750       160
28.760       173
28.770       160
28.780       160
28.790       160
28.800       147
28.810       100
28.820       127
28.830       107
28.840       140
28.850       160
28.860       180
28.870       107
28.880        87
28.890        93
28.900        87
28.910       100
28.920        87
28.930       107
28.940       113
28.950       120
28.960       107
28.970       120
28.980        93
28.990        93
29.000       127
29.010       140
29.020       120
29.030        87
29.040       107
29.050       173
29.060        93
29.070        80
29.080       107
29.090       127
29.100       107
29.110        53
29.120        80
29.130        87
29.140       133
29.150       120
29.160        73
29.170       113
29.180       100
29.190       120
29.200        93
29.210        47
29.220       107
29.230        87
29.240       100
29.250        80
29.260       113
29.270        80
29.280        33
29.290       107
29.300       107
29.310       100
29.320       100
29.330        93
29.340       127
29.350       113
29.360       133
29.370       127
29.380        60
29.390       187
29.400       187
29.410       153
29.420       167
29.430       253
29.440       233
29.450       247
29.460       260
29.470       327
29.480       313
29.490       380
29.500       473
29.510       500
29.520       520
29.530       640
29.540       753
29.550       826
29.560       760
29.570       960
29.580      1013
29.590      1180
29.600      1040
29.610      1113
29.620      1060
29.630      1133
29.640      1006
29.650      1080
29.660      1020
29.670       940
29.680       773
29.690       833
29.700       793
29.710       666
29.720       553
29.730       653
29.740       640
29.750       446
29.760       293
29.770       287
29.780       207
29.790       240
29.800       213
29.810       213
29.820       200
29.830       133
29.840       100
29.850       120
29.860        87
29.870       113
29.880        87
29.890       120
29.900       100
29.910        67
29.920        87
29.930        73
29.940        87
29.950        73
29.960        40
29.970        67
29.980        53
29.990        33
30.000        80
30.010       100
30.020        53
30.030        67
30.040       100
30.050       100
30.060        47
30.070        93
30.080        67
30.090        40
30.100        67
30.110        93
30.120        93
30.130        73
30.140        93
30.150        53
30.160        67
30.170        67
30.180        87
30.190        67
30.200       113
30.210       107
30.220       113
30.230       140
30.240       127
30.250       127
30.260       147
30.270       147
30.280       113
30.290       147
30.300        93
30.310       167
30.320       173
30.330       147
30.340       140
30.350       207
30.360       220
30.370       240
30.380       367
30.390       253
30.400       273
30.410       227
30.420       327
30.430       347
30.440       367
30.450       393
30.460       420
30.470       360
30.480       466
30.490       493
30.500       373
30.510       300
30.520       426
30.530       287
30.540       380
30.550       260
30.560       327
30.570       233
30.580       207
30.590       267
30.600       227
30.610       180
30.620       167
30.630       107
30.640       153
30.650       107
30.660        80
30.670        73
30.680        67
30.690        93
30.700        47
30.710        93
30.720        53
30.730        53
30.740         0
30.750        33
30.760        67
30.770        67
30.780        60
30.790        60
30.800        73
30.810        40
30.820        40
30.830        27
30.840        47
30.850        40
30.860        53
30.870        40
30.880       107
30.890        27
30.900        80
30.910        47
30.920        47
30.930        40
30.940        60
30.950        53
30.960        60
30.970        27
30.980        60
30.990        40
31.000        27
31.010        73
31.020        80
31.030        33
31.040        53
31.050         7
31.060        53
31.070        60
31.080        33
31.090        47
31.100        47
31.110        27
31.120        40
31.130        20
31.140        33
31.150        67
31.160        27
31.170        47
31.180        40
31.190        47
31.200        47
31.210        27
31.220        93
31.230        53
31.240        13
31.250        53
31.260        67
31.270        73
31.280        47
31.290        40
31.300        53
31.310         7
31.320        33
31.330        40
31.340        67
31.350        40
31.360        40
31.370        67
31.380        67
31.390        27
31.400         7
31.410        60
31.420        47
31.430        60
31.440        53
31.450        40
31.460        33
31.470        47
31.480        33
31.490        27
31.500        33
31.510        47
31.520        73
31.530        53
31.540        47
31.550        40
31.560        27
31.570        53
31.580         7
31.590         7
31.600        60
31.610        13
31.620        87
31.630        60
31.640        60
31.650        27
31.660        20
31.670        53
31.680        33
31.690        87
31.700        53
31.710        73
31.720        33
31.730        73
31.740        47
31.750        27
31.760        80
31.770        60
31.780        20
31.790        53
31.800        47
31.810        33
31.820        47
31.830        33
31.840        13
31.850        87
31.860        67
31.870        60
31.880        67
31.890        80
31.900        67
31.910       107
31.920        93
31.930       107
31.940        93
31.950       107
31.960       113
31.970       120
31.980       127
31.990       200
32.000       127
32.010       200
32.020       233
32.030       173
32.040       280
32.050       247
32.060       307
32.070       293
32.080       273
32.090       426
32.100       420
32.110       433
32.120       466
32.130       407
32.140       533
32.150       566
32.160       533
32.170       500
32.180       533
32.190       620
32.200       493
32.210       546
32.220       606
32.230       433
32.240       520
32.250       380
32.260       426
32.270       347
32.280       327
32.290       340
32.300       293
32.310       193
32.320       247
32.330       133
32.340       167
32.350       153
32.360       160
32.370       120
32.380        73
32.390       113
32.400        87
32.410        60
32.420        73
32.430        40
32.440       100
32.450        67
32.460        33
32.470        27
32.480       100
32.490        20
32.500        73
32.510        33
32.520        40
32.530        53
32.540        27
32.550        40
32.560        53
32.570        20
32.580        40
32.590        13
32.600        20
32.610        40
32.620        27
32.630        40
32.640        33
32.650        47
32.660        40
32.670        60
32.680        47
32.690        13
32.700        47
32.710        27
32.720        53
32.730        60
32.740        20
32.750        40
32.760        33
32.770        27
32.780        20
32.790        27
32.800        60
32.810        33
32.820        20
32.830        53
32.840        33
32.850        53
32.860        33
32.870        40
32.880        27
32.890        20
32.900        47
32.910        27
32.920        20
32.930        27
32.940        47
32.950        40
32.960        40
32.970        27
32.980        40
32.990        13
33.000         7
33.010        13
33.020        13
33.030        13
33.040        40
33.050         7
33.060        53
33.070        27
33.080        27
33.090        33
33.100        40
33.110        13
33.120        13
33.130        33
33.140        73
33.150        27
33.160        33
33.170        73
33.180        33
33.190        20
33.200        47
33.210        20
33.220         7
33.230        27
33.240        20
33.250        27
33.260        20
33.270        33
33.280        27
33.290        27
33.300        13
33.310        27
33.320         7
33.330        27
33.340        33
33.350        33
33.360        20
33.370        40
33.380        13
33.390        33
33.400        20
33.410        27
33.420        53
33.430        33
33.440        27
33.450        27
33.460        20
33.470        47
33.480        60
33.490        20
33.500        33
33.510        13
33.520        60
33.530        27
33.540        33
33.550        33
33.560        20
33.570        13
33.580        33
33.590        33
33.600        47
33.610        20
33.620        27
33.630        40
33.640        20
33.650        20
33.660        27
33.670        33
33.680        33
33.690        27
33.700        20
33.710        40
33.720        27
33.730        27
33.740         7
33.750        47
33.760        53
33.770        47
33.780        27
33.790        27
33.800        13
33.810        13
33.820        33
33.830        13
33.840        13
33.850        53
33.860        27
33.870        27
33.880        40
33.890        27
33.900        40
33.910        27
33.920        33
33.930        47
33.940        20
33.950        20
33.960        60
33.970        33
33.980        33
33.990        33
34.000        20
34.010        13
34.020        33
34.030        80
34.040         7
34.050        13
34.060        27
34.070        27
34.080         7
34.090        13
34.100         7
34.110        40
34.120        20
34.130        33
34.140         7
34.150        27
34.160        20
34.170        47
34.180        13
34.190        13
34.200        13
34.210        27
34.220        20
34.230        27
34.240        33
34.250         0
34.260         7
34.270        20
34.280        20
34.290         7
34.300        20
34.310        27
34.320        20
34.330        33
34.340        13
34.350        13
34.360        13
34.370        33
34.380        40
34.390        33
34.400        53
34.410        33
34.420        33
34.430        40
34.440        27
34.450        47
34.460        13
34.470        13
34.480        27
34.490        13
34.500        20
34.510        53
34.520        40
34.530        40
34.540        20
34.550        47
34.560        53
34.570        33
34.580        60
34.590        40
34.600        33
34.610        40
34.620        20
34.630        40
34.640        33
34.650        27
34.660        40
34.670        27
34.680        27
34.690        20
34.700        53
34.710        27
34.720        13
34.730        27
34.740        40
34.750        40
34.760        27
34.770        27
34.780        27
34.790        33
34.800        60
34.810        27
34.820        20
34.830        60
34.840        20
34.850        20
34.860        13
34.870         7
34.880        20
34.890        27
34.900        27
34.910        27
34.920        13
34.930        33
34.940         7
34.950        27
34.960        13
34.970        47
34.980        53
34.990        13
35.000        53
35.010        27
35.020        33
35.030        33
35.040        13
35.050        13
35.060        27
35.070        13
35.080         0
35.090        33
35.100        27
35.110        20
35.120         0
35.130        47
35.140        27
35.150        33
35.160         0
35.170        13
35.180        20
35.190        27
35.200        53
35.210        33
35.220        40
35.230        27
35.240        33
35.250        33
35.260        33
35.270        20
35.280        27
35.290         7
35.300        33
35.310        13
35.320        33
35.330        13
35.340        13
35.350        13
35.360        27
35.370        27
35.380        13
35.390         7
35.400        27
35.410        27
35.420        20
35.430        20
35.440        33
35.450        33
35.460        13
35.470        27
35.480         7
35.490        13
35.500         7
35.510        40
35.520        40
35.530        20
35.540        20
35.550         7
35.560        20
35.570        40
35.580         7
35.590        13
35.600         7
35.610        33
35.620        53
35.630        40
35.640        20
35.650        27
35.660        20
35.670        27
35.680        33
35.690        13
35.700        33
35.710        27
35.720        53
35.730         7
35.740        53
35.750        13
35.760        33
35.770         7
35.780        33
35.790        20
35.800        47
35.810        13
35.820        20
35.830         0
35.840         0
35.850        33
35.860        53
35.870        33
35.880        33
35.890        13
35.900        40
35.910        27
35.920        13
35.930        20
35.940        13
35.950        33
35.960        27
35.970        40
35.980        40
35.990        20
36.000        47
36.010        40
36.020         0
36.030        13
36.040        13
36.050        33
36.060        20
36.070        33
36.080        27
36.090        20
36.100        27
36.110        20
36.120        13
36.130        33
36.140         7
36.150        20
36.160        47
36.170        13
36.180        47
36.190        53
36.200        20
36.210         0
36.220        67
36.230         7
36.240         7
36.250         0
36.260         7
36.270        13
36.280        20
36.290        20
36.300        20
36.310        13
36.320        27
36.330        20
36.340        27
36.350         7
36.360        40
36.370        27
36.380         7
36.390         7
36.400        20
36.410        33
36.420        40
36.430        20
36.440        20
36.450        13
36.460        20
36.470        20
36.480         7
36.490         7
36.500        47
36.510        53
36.520        20
36.530        27
36.540        13
36.550        20
36.560        13
36.570        20
36.580        27
36.590        13
36.600        13
36.610        13
36.620        53
36.630         0
36.640        27
36.650        27
36.660        27
36.670         7
36.680         7
36.690        40
36.700        13
36.710         0
36.720        40
36.730        27
36.740        33
36.750        20
36.760        47
36.770        33
36.780        20
36.790         7
36.800        13
36.810        40
36.820        13
36.830        27
36.840         7
36.850        40
36.860        47
36.870        27
36.880         7
36.890        13
36.900        33
36.910        27
36.920        27
36.930        20
36.940        33
36.950        33
36.960        40
36.970        13
36.980        27
36.990        67
37.000        20
37.010        27
37.020        27
37.030        27
37.040         0
37.050        20
37.060        20
37.070        27
37.080        20
37.090        33
37.100        27
37.110        33
37.120        13
37.130        53
37.140        27
37.150        27
37.160        13
37.170        33
37.180        40
37.190         7
37.200        40
37.210        20
37.220        20
37.230        20
37.240        13
37.250        53
37.260        33
37.270        47
37.280        33
37.290        27
37.300        20
37.310         7
37.320        20
37.330        20
37.340        20
37.350        47
37.360        47
37.370        20
37.380         7
37.390        20
37.400         7
37.410        33
37.420        20
37.430         7
37.440        33
37.450        20
37.460        13
37.470        13
37.480        13
37.490        47
37.500        27
37.510         0
37.520        40
37.530        40
37.540        20
37.550        13
37.560        47
37.570        40
37.580        40
37.590        47
37.600        13
37.610        60
37.620        53
37.630        40
37.640        40
37.650        27
37.660        13
37.670        33
37.680        27
37.690        20
37.700        27
37.710        20
37.720        20
37.730        27
37.740        13
37.750        13
37.760         7
37.770         7
37.780        40
37.790        20
37.800        27
37.810        27
37.820        53
37.830        47
37.840        20
37.850        47
37.860        20
37.870        27
37.880        13
37.890        20
37.900        27
37.910        20
37.920        47
37.930         7
37.940        60
37.950        20
37.960        27
37.970        20
37.980        20
37.990        27
38.000        13
38.010        20
38.020         0
38.030        13
38.040        20
38.050        40
38.060         7
38.070         7
38.080         7
38.090        40
38.100        33
38.110         7
38.120        27
38.130        20
38.140        20
38.150        40
38.160        13
38.170        33
38.180         7
38.190         7
38.200        27
38.210         7
38.220        40
38.230        33
38.240        27
38.250         7
38.260        33
38.270        27
38.280        27
38.290        20
38.300        20
38.310        13
38.320        13
38.330        33
38.340        20
38.350         7
38.360         7
38.370        20
38.380        20
38.390        33
38.400        40
38.410        20
38.420        33
38.430        20
38.440        27
38.450         7
38.460        13
38.470        27
38.480        27
38.490        60
38.500        20
38.510        33
38.520        27
38.530        53
38.540        53
38.550        20
38.560        40
38.570        13
38.580        40
38.590        13
38.600        20
38.610        33
38.620         0
38.630        20
38.640         0
38.650        20
38.660        20
38.670        13
38.680        33
38.690        20
38.700        27
38.710        27
38.720        20
38.730        20
38.740        33
38.750        13
38.760        13
38.770        20
38.780        33
38.790        67
38.800        27
38.810        27
38.820        40
38.830        73
38.840        33
38.850        27
38.860        20
38.870        53
38.880        73
38.890        33
38.900       100
38.910        53
38.920        67
38.930        73
38.940        87
38.950       127
38.960       100
38.970        87
38.980        53
38.990        80
39.000       100
39.010        53
39.020        87
39.030        80
39.040        53
39.050        93
39.060        60
39.070        60
39.080        60
39.090        27
39.100        53
39.110        47
39.120        60
39.130        20
39.140        27
39.150        27
39.160        47
39.170        27
39.180        13
39.190        20
39.200        40
39.210        40
39.220        20
39.230        40
39.240        40
39.250        27
39.260        13
39.270        13
39.280        13
39.290        20
39.300        53
39.310        60
39.320        27
39.330        27
39.340        20
39.350        13
39.360        47
39.370        27
39.380        20
39.390        13
39.400        13
39.410        33
39.420        20
39.430        40
39.440        33
39.450         7
39.460        53
39.470        27
39.480        33
39.490        33
39.500        20
39.510        40
39.520        20
39.530        33
39.540         0
39.550        40
39.560        13
39.570        27
39.580        20
39.590        20
39.600        60
39.610         7
39.620        60
39.630        33
39.640        27
39.650        13
39.660        13
39.670         7
39.680        27
39.690        13
39.700        33
39.710         0
39.720        20
39.730        27
39.740        47
39.750        20
39.760        33
39.770        27
39.780        33
39.790        13
39.800        20
39.810        20
39.820        13
39.830        13
39.840        13
39.850        13
39.860        27
39.870         7
39.880        13
39.890        13
39.900         7
39.910        20
39.920         7
39.930        40
39.940        27
39.950        33
39.960        20
39.970        40
39.980        27
39.990        13
40.000        33
40.010         0
40.020         7
40.030        40
40.040        20
40.050        20
40.060        20
40.070        33
40.080        27
40.090         7
40.100        20
40.110        40
40.120        27
40.130        40
40.140        47
40.150        13
40.160        13
40.170        27
40.180        33
40.190        13
40.200        20
40.210        20
40.220         7
40.230        27
40.240        20
40.250        27
40.260        13
40.270        33
40.280        40
40.290        27
40.300         7
40.310        20
40.320        20
40.330        27
40.340        27
40.350        20
40.360         7
40.370         7
40.380        27
40.390        53
40.400        40
40.410         0
40.420        33
40.430        20
40.440        33
40.450        20
40.460        20
40.470        47
40.480        13
40.490        27
40.500        33
40.510        40
40.520        20
40.530         0
40.540        40
40.550         0
40.560        33
40.570        20
40.580        13
40.590        27
40.600        20
40.610        13
40.620        27
40.630        33
40.640        27
40.650        20
40.660        40
40.670        13
40.680        20
40.690         7
40.700        20
40.710        20
40.720        40
40.730        27
40.740        40
40.750        20
40.760        20
40.770        53
40.780         7
40.790        33
40.800        33
40.810        13
40.820        20
40.830        27
40.840        40
40.850        40
40.860        27
40.870        20
40.880        27
40.890         7
40.900        27
40.910        40
40.920        33
40.930        47
40.940        20
40.950        53
40.960        47
40.970        27
40.980        33
40.990        60
41.000        40
41.010        27
41.020        53
41.030        27
41.040        80
41.050        27
41.060        60
41.070        40
41.080        33
41.090        33
41.100        47
41.110        33
41.120        27
41.130        27
41.140        27
41.150        40
41.160        47
41.170        27
41.180        73
41.190        13
41.200        13
41.210         7
41.220        20
41.230        13
41.240        27
41.250        13
41.260         7
41.270        13
41.280        13
41.290        20
41.300        27
41.310        33
41.320         0
41.330        27
41.340        27
41.350        27
41.360         7
41.370        60
41.380        20
41.390        40
41.400        20
41.410        20
41.420        27
41.430        13
41.440        13
41.450        27
41.460        40
41.470        27
41.480        27
41.490        47
41.500        27
41.510        27
41.520        13
41.530        27
41.540        13
41.550        33
41.560        47
41.570        40
41.580        13
41.590        13
41.600        40
41.610         7
41.620        27
41.630         7
41.640        47
41.650        27
41.660        20
41.670        27
41.680        40
41.690         7
41.700        20
41.710        20
41.720        40
41.730        13
41.740         7
41.750        53
41.760        33
41.770        13
41.780        40
41.790        33
41.800         7
41.810         7
41.820        40
41.830        40
41.840        27
41.850        33
41.860        20
41.870        20
41.880        60
41.890        13
41.900        13
41.910        67
41.920        53
41.930        27
41.940        47
41.950        27
41.960        20
41.970        13
41.980        27
41.990        60
42.000        20
42.010        13
42.020        47
42.030        27
42.040        40
42.050        27
42.060        40
42.070        47
42.080        80
42.090        33
42.100        53
42.110        33
42.120        73
42.130        80
42.140        33
42.150        60
42.160       100
42.170        93
42.180        93
42.190       120
42.200        67
42.210       133
42.220       100
42.230       167
42.240       160
42.250       193
42.260       147
42.270        80
42.280       153
42.290       207
42.300       247
42.310       193
42.320       200
42.330       213
42.340       227
42.350       140
42.360       187
42.370       213
42.380       247
42.390       320
42.400       160
42.410       167
42.420       100
42.430       113
42.440       167
42.450       140
42.460       200
42.470       207
42.480       160
42.490       127
42.500       133
42.510       120
42.520       153
42.530       107
42.540       133
42.550        87
42.560        80
42.570        80
42.580        67
42.590        80
42.600       100
42.610        40
42.620        33
42.630        47
42.640        40
42.650        33
42.660        67
42.670        47
42.680        20
42.690        40
42.700        53
42.710        33
42.720        47
42.730        47
42.740        33
42.750        60
42.760        40
42.770        40
42.780        33
42.790        47
42.800        27
42.810         0
42.820        13
42.830        13
42.840        27
42.850         7
42.860        13
42.870        27
42.880        40
42.890        33
42.900        27
42.910        13
42.920        33
42.930        13
42.940         7
42.950        27
42.960        27
42.970        33
42.980        33
42.990        13
43.000        47
43.010        20
43.020        20
43.030        40
43.040        33
43.050        33
43.060        13
43.070        47
43.080         7
43.090        47
43.100         7
43.110        40
43.120        27
43.130        13
43.140        40
43.150        40
43.160        33
43.170        20
43.180        20
43.190        27
43.200         7
43.210         7
43.220         0
43.230        20
43.240        47
43.250        33
43.260        13
43.270        40
43.280        20
43.290        33
43.300        27
43.310        13
43.320        27
43.330        33
43.340        20
43.350        13
43.360        20
43.370        20
43.380        40
43.390        27
43.400        47
43.410        27
43.420        13
43.430        13
43.440        20
43.450        33
43.460        47
43.470        13
43.480        47
43.490         7
43.500        47
43.510        47
43.520        27
43.530        47
43.540        47
43.550        27
43.560        27
43.570        20
43.580        40
43.590        13
43.600        20
43.610        33
43.620        47
43.630        67
43.640        40
43.650        27
43.660        40
43.670        73
43.680        47
43.690        73
43.700        33
43.710        60
43.720        47
43.730        87
43.740        27
43.750        40
43.760        27
43.770        20
43.780        60
43.790        13
43.800        53
43.810        27
43.820        33
43.830         7
43.840        67
43.850        27
43.860        40
43.870        47
43.880        27
43.890        20
43.900        60
43.910        13
43.920        20
43.930        53
43.940        20
43.950        33
43.960        13
43.970        27
43.980        33
43.990         0
44.000         7
44.010        33
44.020        13
44.030        20
44.040        20
44.050        47
44.060        27
44.070        33
44.080        13
44.090        40
44.100        33
44.110        20
44.120        40
44.130        20
44.140        13
44.150        13
44.160        20
44.170        27
44.180        33
44.190        13
44.200        60
44.210        13
44.220        40
44.230        47
44.240        33
44.250        40
44.260        20
44.270        40
44.280        33
44.290        33
44.300        33
44.310         7
44.320        47
44.330        13
44.340        27
44.350        27
44.360        40
44.370        13
44.380         0
44.390        33
44.400        40
44.410        33
44.420        47
44.430        40
44.440        27
44.450        20
44.460        13
44.470         0
44.480         7
44.490        20
44.500        20
44.510        13
44.520         7
44.530        27
44.540        40
44.550        27
44.560        13
44.570         7
44.580        27
44.590        27
44.600        20
44.610        27
44.620        27
44.630        27
44.640        27
44.650         7
44.660         7
44.670        20
44.680        33
44.690        13
44.700        20
44.710        13
44.720        27
44.730        27
44.740        40
44.750        40
44.760        20
44.770        20
44.780        47
44.790        27
44.800        47
44.810         0
44.820        13
44.830        13
44.840        27
44.850         7
44.860        33
44.870        40
44.880        20
44.890        20
44.900        20
44.910        13
44.920        20
44.930         0
44.940         0
44.950        47
44.960        20
44.970        13
44.980        20
44.990        27
45.000        60
45.010        13
45.020        13
45.030        40
45.040        33
45.050        20
45.060        20
45.070        13
45.080        27
45.090        40
45.100        53
45.110        20
45.120        27
45.130        33
45.140        40
45.150        20
45.160        20
45.170        27
45.180        33
45.190        13
45.200        27
45.210        33
45.220        13
45.230        20
45.240        47
45.250        40
45.260        33
45.270        27
45.280        20
45.290        40
45.300       120
45.310        53
45.320        53
45.330        20
45.340        27
45.350        20
45.360        13
45.370        27
45.380         7
45.390        27
45.400         7
45.410        27
45.420        20
45.430        20
45.440        27
45.450        20
45.460        13
45.470        27
45.480        40
45.490        20
45.500         7
45.510        27
45.520        33
45.530         0
45.540        20
45.550        13
45.560        13
45.570        27
45.580        13
45.590        40
45.600         7
45.610        20
45.620        27
45.630        33
45.640        20
45.650         7
45.660        40
45.670        33
45.680        13
45.690        13
45.700        33
45.710        20
45.720        47
45.730        33
45.740        33
45.750        47
45.760        27
45.770        33
45.780        40
45.790        60
45.800        40
45.810        60
45.820        27
45.830        47
45.840        33
45.850        40
45.860        40
45.870        33
45.880        60
45.890        60
45.900        53
45.910        40
45.920        40
45.930        53
45.940       100
45.950        87
45.960       153
45.970       113
45.980       127
45.990       113
46.000       120
46.010       113
46.020       133
46.030       140
46.040       100
46.050       160
46.060       133
46.070       167
46.080       200
46.090       160
46.100       240
46.110       267
46.120       273
46.130       213
46.140       227
46.150       220
46.160       207
46.170       267
46.180       173
46.190       267
46.200       187
46.210       233
46.220       193
46.230       187
46.240       160
46.250       147
46.260       173
46.270       140
46.280       207
46.290       167
46.300        80
46.310       213
46.320       133
46.330        93
46.340       127
46.350       133
46.360        87
46.370        80
46.380        73
46.390        93
46.400        87
46.410        73
46.420        60
46.430        53
46.440        67
46.450        53
46.460        80
46.470        27
46.480       100
46.490        67
46.500        47
46.510        20
46.520        13
46.530        93
46.540        40
46.550        80
46.560        87
46.570        27
46.580        60
46.590        60
46.600        80
46.610        60
46.620        33
46.630        27
46.640        60
46.650        27
46.660        53
46.670        67
46.680        80
46.690        67
46.700        27
46.710        53
46.720        80
46.730        33
46.740        87
46.750        80
46.760        80
46.770        33
46.780       100
46.790       107
46.800        27
46.810        47
46.820        20
46.830        80
46.840        47
46.850        53
46.860        53
46.870       100
46.880        73
46.890        67
46.900        53
46.910        40
46.920        73
46.930       127
46.940        53
46.950        47
46.960        93
46.970        47
46.980        47
46.990        60
47.000        87
47.010        67
47.020        33
47.030         0
47.040        13
47.050        40
47.060        27
47.070        20
47.080        33
47.090        27
47.100        47
47.110        33
47.120        20
47.130        47
47.140        27
47.150        20
47.160        40
47.170        20
47.180        33
47.190        20
47.200        20
47.210        27
47.220        33
47.230        40
47.240        13
47.250        67
47.260        13
47.270        27
47.280        33
47.290        27
47.300        27
47.310        27
47.320        53
47.330        40
47.340        33
47.350        27
47.360        13
47.370        67
47.380         7
47.390        20
47.400        20
47.410        27
47.420        47
47.430        33
47.440        27
47.450        27
47.460        20
47.470        47
47.480        13
47.490        27
47.500        40
47.510        47
47.520        13
47.530        13
47.540        47
47.550        27
47.560        27
47.570         7
47.580        40
47.590         0
47.600        33
47.610        40
47.620        20
47.630        20
47.640        27
47.650        20
47.660        47
47.670        33
47.680        20
47.690        20
47.700         7
47.710        27
47.720         7
47.730        13
47.740        67
47.750        33
47.760        27
47.770         7
47.780        33
47.790        40
47.800        13
47.810        20
47.820        47
47.830         7
47.840        27
47.850        13
47.860        27
47.870        33
47.880        27
47.890        27
47.900        13
47.910        27
47.920        27
47.930        27
47.940        47
47.950        40
47.960        40
47.970         7
47.980         7
47.990        27
48.000        27
48.010        20
48.020        47
48.030        27
48.040        13
48.050        47
48.060        20
48.070        40
48.080        27
48.090        33
48.100        33
48.110         7
48.120        13
48.130        27
48.140        60
48.150        53
48.160        13
48.170        33
48.180        27
48.190        47
48.200        27
48.210        13
48.220        20
48.230        20
48.240        20
48.250        33
48.260        53
48.270        27
48.280        27
48.290        20
48.300        40
48.310         0
48.320        20
48.330        13
48.340        20
48.350        20
48.360        27
48.370         0
48.380        27
48.390        27
48.400        33
48.410        40
48.420        53
48.430        20
48.440        27
48.450        47
48.460        20
48.470        53
48.480        27
48.490        33
48.500        27
48.510        13
48.520         7
48.530        40
48.540        27
48.550        27
48.560        20
48.570        27
48.580        27
48.590        20
48.600        20
48.610        40
48.620        13
48.630        13
48.640        33
48.650        33
48.660        40
48.670        27
48.680        13
48.690        53
48.700        47
48.710        47
48.720        40
48.730        47
48.740        47
48.750        47
48.760        60
48.770        73
48.780        67
48.790        60
48.800        33
48.810        40
48.820       100
48.830        53
48.840        47
48.850        60
48.860        60
48.870        87
48.880        60
48.890       147
48.900        93
48.910       113
48.920       100
48.930       127
48.940       127
48.950       120
48.960       180
48.970       160
48.980        93
48.990       133
49.000       180
49.010       193
49.020       240
49.030       213
49.040       240
49.050       240
49.060       240
49.070       247
49.080       267
49.090       280
49.100       220
49.110       267
49.120       133
49.130       247
49.140       213
49.150       207
49.160       187
49.170       233
49.180       233
49.190       173
49.200       180
49.210       140
49.220       147
49.230       167
49.240       180
49.250       173
49.260        87
49.270       187
49.280       113
49.290       160
49.300       127
49.310       100
49.320        67
49.330       120
49.340        93
49.350       100
49.360        73
49.370        73
49.380       100
49.390        73
49.400        67
49.410        33
49.420        53
49.430        40
49.440        47
49.450        40
49.460        13
49.470        27
49.480        27
49.490        53
49.500        47
49.510       127
49.520        47
49.530        33
49.540        13
49.550        27
49.560        27
49.570        33
49.580         7
49.590        13
49.600        33
49.610        40
49.620        40
49.630        53
49.640        27
49.650        20
49.660        47
49.670        53
49.680        27
49.690        53
49.700        13
49.710        13
49.720        27
49.730        20
49.740        47
49.750        20
49.760        47
49.770        20
49.780        27
49.790        20
49.800        27
49.810        27
49.820        27
49.830        13
49.840        33
49.850        33
49.860        13
49.870        47
49.880        73
49.890        20
49.900        33
49.910        20
49.920        33
49.930        27
49.940        13
49.950        40
49.960        13
49.970        13
49.980        40
49.990        27
50.000        20
50.010        33
50.020        27
50.030        40
50.040        27
50.050        40
50.060        33
50.070        33
50.080        20
50.090        53
50.100        33
50.110        27
50.120        27
50.130        13
50.140        60
50.150        33
50.160        47
50.170        33
50.180        20
50.190        20
50.200        20
50.210        33
50.220        40
50.230        27
50.240        33
50.250        33
50.260        60
50.270        33
50.280        40
50.290         7
50.300        27
50.310        20
50.320        27
50.330        20
50.340        13
50.350        33
50.360         7
50.370        20
50.380        20
50.390        13
50.400        47
50.410        20
50.420         0
50.430        47
50.440         0
50.450        20
50.460        33
50.470        27
50.480        60
50.490        13
50.500        20
50.510        27
50.520        13
50.530        20
50.540        27
50.550        20
50.560        47
50.570        40
50.580        40
50.590         0
50.600        27
50.610        33
50.620        33
50.630        40
50.640        27
50.650        73
50.660        20
50.670        33
50.680        27
50.690        33
50.700        27
50.710        27
50.720        13
50.730        47
50.740        33
50.750        80
50.760        20
50.770        20
50.780        40
50.790        40
50.800        40
50.810        33
50.820        53
50.830        60
50.840         7
50.850        47
50.860        73
50.870        40
50.880        33
50.890        20
50.900        73
50.910        20
50.920        53
50.930        60
50.940        20
50.950        40
50.960        60
50.970        73
50.980        27
50.990        53
51.000        33
51.010        47
51.020        40
51.030        13
51.040        47
51.050        40
51.060        27
51.070        60
51.080        40
51.090        67
51.100        40
51.110        60
51.120        47
51.130        33
51.140        27
51.150        33
51.160        33
51.170        47
51.180        60
51.190         7
51.200        67
51.210        33
51.220        27
51.230        47
51.240        40
51.250        53
51.260        47
51.270        27
51.280        60
51.290        20
51.300        73
51.310        73
51.320        33
51.330        33
51.340        27
51.350        73
51.360        60
51.370        40
51.380        60
51.390        27
51.400        40
51.410        53
51.420        53
51.430        53
51.440        67
51.450        47
51.460        53
51.470        47
51.480        40
51.490        80
51.500        47
51.510        67
51.520        73
51.530        40
51.540        93
51.550        60
51.560        80
51.570        80
51.580        93
51.590        80
51.600        73
51.610        67
51.620        53
51.630       127
51.640       100
51.650       153
51.660       147
51.670       120
51.680       127
51.690        93
51.700       127
51.710       133
51.720       173
51.730       127
51.740       120
51.750       100
51.760       153
51.770       173
51.780       200
51.790       153
51.800       173
51.810       233
51.820       213
51.830       293
51.840       167
51.850       233
51.860       340
51.870       253
51.880       353
51.890       280
51.900       340
51.910       426
51.920       373
51.930       373
51.940       333
51.950       393
51.960       287
51.970       400
51.980       367
51.990       393
52.000       360
52.010       340
52.020       267
52.030       333
52.040       367
52.050       347
52.060       267
52.070       253
52.080       267
52.090       273
52.100       320
52.110       247
52.120       273
52.130       333
52.140       320
52.150       213
52.160       280
52.170       233
52.180       193
52.190       200
52.200       193
52.210       180
52.220       173
52.230       133
52.240       140
52.250       187
52.260       213
52.270       147
52.280       160
52.290       193
52.300       193
52.310        73
52.320       160
52.330       133
52.340       100
52.350       227
52.360       220
52.370       187
52.380       167
52.390       207
52.400       200
52.410       280
52.420       247
52.430       247
52.440       280
52.450       506
52.460       460
52.470       580
52.480       673
52.490       966
52.500       973
52.510      1166
52.520      1333
52.530      1653
52.540      1886
52.550      1753
52.560      1626
52.570      1433
52.580      1559
52.590      1559
52.600      1586
52.610      1573
52.620      1759
52.630      2266
52.640      2459
52.650      2866
52.660      3525
52.670      4032
52.680      4365
52.690      4492
52.700      4825
52.710      4192
52.720      4032
52.730      3539
52.740      2726
52.750      2292
52.760      1873
52.770      1753
52.780      1359
52.790      1633
52.800      1786
52.810      1919
52.820      2132
52.830      1973
52.840      2059
52.850      1959
52.860      1826
52.870      1539
52.880      1146
52.890       960
52.900       773
52.910       533
52.920       240
52.930       213
52.940       213
52.950       240
52.960       153
52.970       120
52.980       160
52.990       153
53.000       127
53.010       173
53.020       153
53.030       107
53.040       140
53.050       100
53.060       113
53.070        87
53.080       133
53.090       107
53.100       100
53.110       120
53.120        87
53.130        33
53.140        73
53.150        67
53.160        73
53.170        73
53.180       133
53.190        80
53.200       107
53.210        53
53.220        67
53.230        60
53.240        87
53.250        87
53.260        47
53.270        73
53.280        67
53.290        33
53.300        47
53.310        87
53.320        60
53.330        60
53.340       107
53.350       107
53.360        87
53.370        93
53.380        73
53.390        40
53.400        73
53.410        73
53.420        47
53.430        53
53.440        47
53.450        40
53.460       100
53.470        53
53.480        60
53.490        73
53.500        87
53.510        60
53.520        80
53.530        67
53.540        40
53.550        53
53.560        53
53.570        67
53.580        93
53.590        73
53.600        53
53.610        73
53.620        67
53.630       100
53.640        60
53.650        93
53.660        60
53.670        60
53.680        53
53.690        80
53.700        53
53.710        93
53.720        53
53.730        53
53.740       100
53.750        60
53.760        60
53.770        47
53.780        53
53.790        53
53.800        47
53.810        60
53.820        93
53.830        47
53.840        20
53.850        80
53.860        80
53.870        33
53.880        53
53.890        60
53.900        73
53.910        73
53.920        47
53.930        67
53.940        27
53.950        33
53.960        47
53.970        40
53.980        53
53.990        60
54.000        40
54.010        33
54.020        60
54.030        87
54.040        33
54.050        47
54.060        47
54.070        33
54.080        27
54.090        40
54.100        40
54.110        33
54.120        40
54.130        67
54.140        67
54.150        73
54.160        47
54.170        20
54.180        60
54.190        60
54.200        80
54.210        33
54.220        27
54.230        67
54.240        60
54.250        53
54.260        67
54.270        60
54.280        20
54.290        40
54.300        67
54.310        20
54.320        53
54.330        47
54.340        47
54.350        33
54.360        27
54.370        27
54.380        40
54.390        60
54.400        53
54.410        33
54.420        67
54.430        27
54.440        60
54.450        40
54.460        40
54.470        33
54.480        47
54.490        53
54.500        60
54.510        80
54.520        47
54.530        47
54.540        60
54.550        13
54.560        33
54.570        53
54.580        40
54.590        40
54.600        47
54.610        33
54.620        47
54.630        60
54.640        87
54.650        67
54.660        47
54.670        73
54.680        40
54.690        33
54.700        20
54.710        27
54.720        60
54.730        53
54.740        47
54.750        20
54.760        40
54.770        53
54.780        47
54.790        53
54.800        47
54.810       100
54.820        87
54.830        40
54.840        20
54.850        73
54.860        40
54.870        20
54.880        40
54.890        27
54.900        87
54.910        80
54.920        53
54.930        67
54.940        53
54.950        33
54.960        40
54.970        53
54.980        80
54.990        53
55.000        20
55.010        53
55.020        60
55.030        67
55.040        47
55.050        53
55.060        87
55.070        60
55.080        33
55.090        47
55.100        47
55.110        33
55.120        53
55.130        73
55.140        33
55.150        13
55.160        47
55.170        33
55.180        47
55.190        27
55.200        67
55.210        40
55.220        60
55.230        27
55.240        47
55.250        33
55.260        47
55.270        13
55.280        53
55.290        87
55.300        53
55.310        73
55.320        33
55.330        60
55.340        33
55.350        53
55.360        67
55.370        33
55.380        53
55.390       100
55.400        53
55.410        53
55.420        47
55.430        53
55.440        73
55.450        73
55.460        60
55.470        47
55.480        60
55.490        73
55.500        27
55.510        67
55.520        47
55.530        40
55.540        60
55.550        60
55.560        40
55.570        60
55.580        40
55.590        80
55.600        80
55.610        40
55.620        80
55.630        67
55.640        33
55.650        33
55.660        33
55.670        40
55.680        53
55.690        53
55.700        60
55.710        53
55.720        73
55.730        67
55.740        47
55.750        40
55.760        80
55.770        47
55.780        73
55.790        67
55.800        47
55.810        60
55.820        53
55.830        67
55.840        67
55.850        33
55.860        67
55.870        80
55.880        27
55.890        73
55.900        67
55.910        53
55.920        67
55.930        40
55.940        53
55.950        60
55.960        40
55.970        67
55.980        53
55.990        87
56.000        53
56.010        80
56.020        73
56.030        67
56.040        53
56.050        40
56.060        47
56.070        40
56.080        47
56.090        47
56.100        53
56.110        40
56.120        73
56.130       100
56.140        40
56.150        60
56.160        47
56.170        60
56.180        33
56.190       107
56.200        87
56.210        20
56.220        53
56.230        80
56.240        67
56.250        73
56.260        47
56.270        87
56.280        20
56.290        53
56.300        47
56.310        67
56.320        73
56.330        93
56.340        53
56.350        33
56.360        93
56.370        67
56.380        40
56.390        33
56.400        53
56.410        73
56.420        53
56.430        87
56.440        80
56.450        13
56.460        47
56.470        67
56.480        27
56.490        80
56.500        47
56.510        67
56.520        33
56.530        33
56.540        73
56.550        47
56.560        47
56.570        60
56.580        33
56.590        53
56.600        53
56.610        47
56.620        60
56.630        73
56.640        47
56.650        53
56.660        40
56.670        47
56.680        47
56.690        53
56.700        53
56.710        53
56.720       113
56.730        67
56.740        27
56.750        60
56.760        80
56.770        73
56.780        60
56.790        53
56.800        47
56.810        53
56.820        67
56.830        40
56.840        67
56.850        53
56.860        67
56.870        73
56.880        20
56.890        67
56.900        40
56.910        40
56.920        47
56.930        87
56.940        80
56.950        73
56.960        80
56.970        87
56.980        20
56.990        87
57.000        87
57.010        60
57.020        87
57.030        47
57.040       100
57.050        20
57.060        40
57.070        60
57.080       107
57.090        87
57.100        40
57.110        73
57.120        93
57.130        93
57.140        33
57.150        60
57.160        73
57.170       113
57.180        93
57.190        60
57.200       100
57.210        60
57.220        13
57.230        60
57.240        60
57.250        47
57.260        87
57.270        67
57.280        87
57.290        87
57.300        40
57.310        60
57.320       107
57.330       133
57.340        60
57.350        87
57.360        87
57.370        73
57.380        80
57.390        60
57.400        67
57.410       113
57.420        53
57.430        60
57.440        93
57.450       127
57.460        93
57.470        47
57.480        67
57.490        80
57.500       100
57.510        67
57.520       100
57.530        87
57.540        93
57.550       100
57.560        53
57.570        73
57.580        80
57.590        93
57.600       100
57.610        33
57.620        87
57.630       113
57.640        93
57.650        93
57.660       100
57.670        80
57.680        73
57.690        60
57.700       100
57.710       100
57.720        80
57.730        73
57.740       113
57.750        60
57.760        33
57.770        80
57.780       120
57.790       100
57.800       113
57.810       107
57.820        80
57.830        87
57.840       107
57.850       100
57.860        80
57.870       100
57.880       120
57.890       113
57.900        87
57.910        93
57.920        87
57.930       113
57.940        93
57.950        53
57.960       120
57.970       113
57.980        80
57.990       100
58.000       107
58.010       120
58.020        93
58.030       100
58.040       127
58.050        93
58.060        40
58.070        87
58.080        73
58.090        80
58.100       100
58.110        93
58.120        73
58.130        67
58.140        93
58.150       127
58.160       100
58.170        93
58.180       100
58.190        87
58.200        67
58.210       107
58.220        73
58.230        73
58.240        60
58.250       100
58.260        53
58.270        93
58.280        80
58.290        80
58.300        73
58.310       120
58.320        93
58.330       107
58.340        60
58.350        67
58.360       113
58.370        60
58.380        53
58.390        53
58.400        53
58.410       107
58.420        93
58.430       107
58.440       153
58.450       120
58.460        73
58.470        60
58.480        73
58.490        93
58.500        67
58.510        67
58.520        33
58.530       120
58.540        80
58.550       120
58.560        93
58.570       107
58.580       113
58.590        47
58.600       100
58.610       107
58.620       127
58.630       100
58.640        67
58.650       127
58.660        93
58.670        80
58.680       120
58.690       113
58.700        60
58.710        93
58.720       140
58.730       147
58.740       107
58.750       133
58.760       107
58.770       133
58.780        87
58.790       113
58.800       173
58.810        73
58.820        93
58.830        73
58.840        60
58.850       120
58.860       153
58.870       153
58.880       107
58.890        80
58.900       127
58.910        73
58.920       100
58.930        87
58.940       113
58.950       113
58.960        80
58.970        80
58.980       140
58.990       140
59.000        93
59.010        80
59.020       100
59.030        87
59.040       133
59.050        67
59.060       107
59.070       100
59.080       133
59.090       113
59.100        80
59.110       107
59.120        60
59.130       133
59.140       140
59.150       107
59.160        93
59.170       153
59.180       107
59.190        67
59.200       133
59.210       127
59.220       120
59.230        93
59.240        87
59.250        53
59.260        93
59.270       107
59.280       100
59.290        93
59.300       140
59.310        33
59.320        73
59.330       160
59.340       100
59.350       107
59.360       140
59.370       107
59.380        87
59.390       107
59.400       127
59.410       133
59.420       107
59.430       153
59.440        67
59.450       100
59.460       100
59.470       120
59.480        60
59.490       140
59.500       133
59.510       113
59.520       113
59.530       107
59.540       140
59.550       100
59.560        87
59.570       127
59.580       133
59.590       133
59.600        67
59.610       120
59.620       140
59.630       140
59.640        87
59.650       100
59.660       100
59.670       113
59.680        67
59.690        87
59.700       127
59.710       147
59.720        93
59.730       113
59.740       133
59.750        73
59.760        93
59.770       180
59.780       147
59.790       167
59.800       187
59.810       127
59.820       147
59.830       100
59.840       153
59.850       147
59.860       173
59.870       140
59.880       153
59.890       107
59.900       147
59.910       133
59.920       100
59.930        67
59.940       127
59.950       133
59.960       160
59.970       193
59.980       140
59.990        87
60.000        87
