20.000        40
20.010        20
20.020        40
20.030        47
20.040        47
20.050        53
20.060        40
20.070        47
20.080         7
20.090        40
20.100        40
20.110        40
20.120        33
20.130        33
20.140        67
20.150        47
20.160        53
20.170        40
20.180        47
20.190        87
20.200        73
20.210        33
20.220        40
20.230        27
20.240        33
20.250        40
20.260        47
20.270        27
20.280        53
20.290        53
20.300        40
20.310        87
20.320        20
20.330        60
20.340        47
20.350        60
20.360        47
20.370        67
20.380        73
20.390        33
20.400        40
20.410        27
20.420        47
20.430        33
20.440        33
20.450        33
20.460        40
20.470        47
20.480        53
20.490        40
20.500        33
20.510        33
20.520        33
20.530        33
20.540        47
20.550        53
20.560        20
20.570        33
20.580        33
20.590        53
20.600        33
20.610        53
20.620        53
20.630        40
20.640        33
20.650        47
20.660        27
20.670        60
20.680        40
20.690        27
20.700        20
20.710        87
20.720        33
20.730        40
20.740        33
20.750        40
20.760        53
20.770        27
20.780        87
20.790        60
20.800        67
20.810        27
20.820        20
20.830       107
20.840        53
20.850        27
20.860        60
20.870        53
20.880        93
20.890        40
20.900        67
20.910        80
20.920        33
20.930        40
20.940        60
20.950        33
20.960        73
20.970        47
20.980        27
20.990        40
21.000        47
21.010        33
21.020        67
21.030        47
21.040        47
21.050        40
21.060        53
21.070        53
21.080        33
21.090        60
21.100        33
21.110        47
21.120        60
21.130        27
21.140        13
21.150        20
21.160         7
21.170        33
21.180        27
21.190        73
21.200        20
21.210        40
21.220        40
21.230        40
21.240        67
21.250        13
21.260        60
21.270        20
21.280        67
21.290        47
21.300        40
21.310        53
21.320        33
21.330        27
21.340        27
21.350        33
21.360        53
21.370        73
21.380        60
21.390        53
21.400        53
21.410        47
21.420        53
21.430        40
21.440        20
21.450        33
21.460        20
21.470        53
21.480        73
21.490        33
21.500        13
21.510        73
21.520        13
21.530        27
21.540        33
21.550        40
21.560        13
21.570        60
21.580        27
21.590        80
21.600        20
21.610        53
21.620        53
21.630        33
21.640        27
21.650        33
21.660         0
21.670        47
21.680        67
21.690        33
21.700        27
21.710        67
21.720        20
21.730        27
21.740        40
21.750        47
21.760        40
21.770        20
21.780        60
21.790        27
21.800        33
21.810        27
21.820        33
21.830        27
21.840        13
21.850        53
21.860        53
21.870        40
21.880        20
21.890        27
21.900        20
21.910        47
21.920        33
21.930        47
21.940        13
21.950        60
21.960        53
21.970        20
21.980        13
21.990        40
22.000        47
22.010        67
22.020        40
22.030        53
22.040        53
22.050        40
22.060        67
22.070        20
22.080        53
22.090        20
22.100        27
22.110        47
22.120        40
22.130        67
22.140        53
22.150        53
22.160        27
22.170        60
22.180        33
22.190        40
22.200        27
22.210        33
22.220        40
22.230        87
22.240        73
22.250        13
22.260        53
22.270        33
22.280        53
22.290        13
22.300        67
22.310        73
22.320        13
22.330        33
22.340        33
22.350        67
22.360        33
22.370        53
22.380        73
22.390        40
22.400        33
22.410        47
22.420        67
22.430        73
22.440        93
22.450        60
22.460        67
22.470        67
22.480        93
22.490       100
22.500       100
22.510       187
22.520       153
22.530       187
22.540       167
22.550       240
22.560       180
22.570       253
22.580       180
22.590       233
22.600       247
22.610       220
22.620       173
22.630       233
22.640       200
22.650       220
22.660       193
22.670       173
22.680       120
22.690       100
22.700        87
22.710        67
22.720       113
22.730        73
22.740       113
22.750       107
22.760        20
22.770        60
22.780        67
22.790        80
22.800        87
22.810        53
22.820       100
22.830        20
22.840        40
22.850        80
22.860        67
22.870        53
22.880        80
22.890        60
22.900        93
22.910        80
22.920        87
22.930        47
22.940       100
22.950        93
22.960        80
22.970        67
22.980        47
22.990        60
23.000        87
23.010        67
23.020        53
23.030        33
23.040        53
23.050        40
23.060        53
23.070        33
23.080        67
23.090        20
23.100        40
23.110        47
23.120        33
23.130        20
23.140        53
23.150        53
23.160        47
23.170        60
23.180        80
23.190        47
23.200         7
23.210        13
23.220        60
23.230        13
23.240        27
23.250        27
23.260        53
23.270        27
23.280        33
23.290        40
23.300        27
23.310        40
23.320        47
23.330        53
23.340         7
23.350        20
23.360        33
23.370        27
23.380         7
23.390        33
23.400        40
23.410        40
23.420        27
23.430        33
23.440        33
23.450        20
23.460        33
23.470         7
23.480        53
23.490        47
23.500        40
23.510        47
23.520        33
23.530        20
23.540        27
23.550        27
23.560        40
23.570        13
23.580        47
23.590        53
23.600        27
23.610        20
23.620        13
23.630        40
23.640        40
23.650        27
23.660        40
23.670        13
23.680        33
23.690        80
23.700        33
23.710        27
23.720        40
23.730        27
23.740        40
23.750        40
23.760        27
23.770        33
23.780        40
23.790        20
23.800        13
23.810        27
23.820        33
23.830        13
23.840        47
23.850        40
23.860        20
23.870        33
23.880        27
23.890        20
23.900        27
23.910        33
23.920        60
23.930        27
23.940        27
23.950        60
23.960        60
23.970        27
23.980        47
23.990        13
24.000        53
24.010         0
24.020        27
24.030        33
24.040        47
24.050        33
24.060        33
24.070        40
24.080        53
24.090        47
24.100        47
24.110        20
24.120        27
24.130        27
24.140        20
24.150        47
24.160        33
24.170        33
24.180        73
24.190        27
24.200        47
24.210        40
24.220        40
24.230        20
24.240        20
24.250        20
24.260        20
24.270        13
24.280        40
24.290        53
24.300        27
24.310        33
24.320        13
24.330        13
24.340        27
24.350        40
24.360        47
24.370        33
24.380        33
24.390        27
24.400        13
24.410        27
24.420        53
24.430        40
24.440        27
24.450        33
24.460        27
24.470        33
24.480         7
24.490        47
24.500        60
24.510        40
24.520        40
24.530        13
24.540        33
24.550        33
24.560        33
24.570        47
24.580        40
24.590        40
24.600        13
24.610        47
24.620        27
24.630        60
24.640        80
24.650        27
24.660        60
24.670        27
24.680        27
24.690        73
24.700        20
24.710        47
24.720        47
24.730        20
24.740        33
24.750        27
24.760        27
24.770        40
24.780        13
24.790        40
24.800        13
24.810        40
24.820        47
24.830        67
24.840        27
24.850        60
24.860         7
24.870        33
24.880        27
24.890        40
24.900        40
24.910        33
24.920        33
24.930         7
24.940        40
24.950        27
24.960        40
24.970        20
24.980        40
24.990        20
25.000        27
25.010        47
25.020        53
25.030        13
25.040        53
25.050        47
25.060        53
25.070        40
25.080        33
25.090        27
25.100        53
25.110        53
25.120        27
25.130        33
25.140        27
25.150        53
25.160        27
25.170        27
25.180        33
25.190        53
25.200        40
25.210        80
25.220        47
25.230        67
25.240        47
25.250        67
25.260        73
25.270        33
25.280        47
25.290        20
25.300        27
25.310        27
25.320        20
25.330        60
25.340        27
25.350        40
25.360        27
25.370        27
25.380        33
25.390        27
25.400        53
25.410        27
25.420        53
25.430        53
25.440        53
25.450        20
25.460        20
25.470        20
25.480        40
25.490        53
25.500        47
25.510        27
25.520        33
25.530        33
25.540        73
25.550       107
25.560        60
25.570        67
25.580        47
25.590        60
25.600        87
25.610        53
25.620        60
25.630       107
25.640       113
25.650       133
25.660        80
25.670        67
25.680       120
25.690       120
25.700       153
25.710       113
25.720        80
25.730       140
25.740       180
25.750       173
25.760       173
25.770       293
25.780       220
25.790       213
25.800       280
25.810       220
25.820       213
25.830       233
25.840       293
25.850       193
25.860       200
25.870       220
25.880       147
25.890       147
25.900       120
25.910       107
25.920        93
25.930       100
25.940        73
25.950       107
25.960        93
25.970        73
25.980        80
25.990        40
26.000        40
26.010        47
26.020        40
26.030        80
26.040        53
26.050        47
26.060        20
26.070        60
26.080        27
26.090        20
26.100        33
26.110        33
26.120        13
26.130        40
26.140        87
26.150        47
26.160        67
26.170        60
26.180        60
26.190        60
26.200        27
26.210        53
26.220        40
26.230        20
26.240        33
26.250        20
26.260        33
26.270        53
26.280        13
26.290        20
26.300        13
26.310         7
26.320        27
26.330        33
26.340        33
26.350        27
26.360        13
26.370        47
26.380        33
26.390        13
26.400        40
26.410        13
26.420        33
26.430        47
26.440        13
26.450        40
26.460        33
26.470        40
26.480        20
26.490        40
26.500        33
26.510        40
26.520        47
26.530        40
26.540        53
26.550        47
26.560        53
26.570        13
26.580        20
26.590        40
26.600        33
26.610        27
26.620        27
26.630        27
26.640        60
26.650        47
26.660        33
26.670        40
26.680        40
26.690        27
26.700        67
26.710        20
26.720        47
26.730        20
26.740        80
26.750        40
26.760        27
26.770        40
26.780        27
26.790        27
26.800        53
26.810        27
26.820        20
26.830        73
26.840        13
26.850        40
26.860        40
26.870        33
26.880        13
26.890        40
26.900        47
26.910        33
26.920        53
26.930        67
26.940        40
26.950        60
26.960        60
26.970        40
26.980        27
26.990        67
27.000        47
27.010        40
27.020        33
27.030        20
27.040        40
27.050        40
27.060        27
27.070        13
27.080        40
27.090        47
27.100        33
27.110        27
27.120        27
27.130         0
27.140        47
27.150        73
27.160        20
27.170        33
27.180        20
27.190        20
27.200        47
27.210        13
27.220        47
27.230        47
27.240        27
27.250        33
27.260        20
27.270        40
27.280        27
27.290        33
27.300        33
27.310        47
27.320        13
27.330        27
27.340        27
27.350         7
27.360        13
27.370         7
27.380        13
27.390        27
27.400        33
27.410        53
27.420        40
27.430        13
27.440        33
27.450        40
27.460        47
27.470        27
27.480        40
27.490        33
27.500        27
27.510        33
27.520        33
27.530        40
27.540        47
27.550        13
27.560        47
27.570        40
27.580        40
27.590        33
27.600        27
27.610        27
27.620        20
27.630        33
27.640        40
27.650        20
27.660        40
27.670        67
27.680        27
27.690        53
27.700        47
27.710        40
27.720        60
27.730        40
27.740        40
27.750        33
27.760        47
27.770        47
27.780        53
27.790        40
27.800        60
27.810        27
27.820        40
27.830        20
27.840        47
27.850        73
27.860        67
27.870        40
27.880        20
27.890        73
27.900        53
27.910        47
27.920        53
27.930        53
27.940        27
27.950        33
27.960        60
27.970        33
27.980        20
27.990        33
28.000        47
28.010        33
28.020        33
28.030        67
28.040        13
28.050        67
28.060        47
28.070        20
28.080        67
28.090        47
28.100        73
28.110        73
28.120        33
28.130        60
28.140        87
28.150        73
28.160        33
28.170        80
28.180        73
28.190        53
28.200       133
28.210        80
28.220        67
28.230        67
28.240        60
28.250        67
28.260        60
28.270        60
28.280        67
28.290        20
28.300       127
28.310        47
28.320        40
28.330        87
28.340        67
28.350        60
28.360        53
28.370        40
28.380       100
28.390        73
28.400        53
28.410        47
28.420       113
28.430        80
28.440        60
28.450        87
28.460        87
28.470        67
28.480        47
28.490        67
28.500        60
28.510       120
28.520        67
28.530        87
28.540       107
28.550        80
28.560       100
28.570       120
28.580       107
28.590       113
28.600        93
28.610       133
28.620       120
28.630       140
28.640       220
28.650       313
28.660       227
28.670       233
28.680       200
28.690       213
28.700       187
28.710       233
28.720       233
28.730       293
28.740       333
28.750       287
28.760       227
28.770       260
28.780       260
28.790       220
28.800       247
28.810       213
28.820       233
28.830       240
28.840       180
28.850       220
28.860       280
28.870       220
28.880       273
28.890       327
28.900       327
28.910       340
28.920       313
28.930       300
28.940       340
28.950       393
28.960       340
28.970       260
28.980       287
28.990       267
29.000       253
29.010       280
29.020       413
29.030       293
29.040       347
29.050       340
29.060       260
29.070       360
29.080       253
29.090       167
29.100       240
29.110       287
29.120       287
29.130       273
29.140       233
29.150       193
29.160       180
29.170       153
29.180       213
29.190       160
29.200       200
29.210        87
29.220       160
29.230        87
29.240       160
29.250       100
29.260       140
29.270       140
29.280       147
29.290       120
29.300        87
29.310       107
29.320       127
29.330        93
29.340       120
29.350        87
29.360       107
29.370       100
29.380       100
29.390       200
29.400       200
29.410       193
29.420       207
29.430       167
29.440       193
29.450       293
29.460       340
29.470       400
29.480       360
29.490       546
29.500       440
29.510       533
29.520       640
29.530       826
29.540       813
29.550      1000
29.560      1113
29.570      1020
29.580      1013
29.590      1060
29.600      1046
29.610       960
29.620       873
29.630      1006
29.640       833
29.650       846
29.660       846
29.670       686
29.680       586
29.690       560
29.700       393
29.710       407
29.720       367
29.730       333
29.740       213
29.750       280
29.760       227
29.770       153
29.780       167
29.790        93
29.800       120
29.810        67
29.820       107
29.830       127
29.840        73
29.850        53
29.860        67
29.870        87
29.880        93
29.890        53
29.900        80
29.910        67
29.920        60
29.930        33
29.940        47
29.950        40
29.960        33
29.970        20
29.980        33
29.990        47
30.000        27
30.010        33
30.020       100
30.030        27
30.040        13
30.050        33
30.060        33
30.070        53
30.080        40
30.090        40
30.100        33
30.110        80
30.120        47
30.130        47
30.140        60
30.150         7
30.160        20
30.170        33
30.180        47
30.190        33
30.200        20
30.210        27
30.220        47
30.230        53
30.240        40
30.250        47
30.260        47
30.270        40
30.280        80
30.290        80
30.300        33
30.310        27
30.320       107
30.330        73
30.340        60
30.350        73
30.360        80
30.370       107
30.380        73
30.390       147
30.400        93
30.410       127
30.420        93
30.430       140
30.440       113
30.450       160
30.460       160
30.470       160
30.480       113
30.490       153
30.500       133
30.510       127
30.520        87
30.530        80
30.540       113
30.550        73
30.560        80
30.570        93
30.580       120
30.590       113
30.600       100
30.610        67
30.620        80
30.630        53
30.640        40
30.650        53
30.660        53
30.670        67
30.680        47
30.690        27
30.700        20
30.710        27
30.720        27
30.730        80
30.740        60
30.750        40
30.760        40
30.770        27
30.780        27
30.790        27
30.800        20
30.810        73
30.820        20
30.830        27
30.840        20
30.850        53
30.860        40
30.870        33
30.880        60
30.890        47
30.900        13
30.910        20
30.920        13
30.930        60
30.940        27
30.950        20
30.960        20
30.970        40
30.980        33
30.990        13
31.000        67
31.010        13
31.020        33
31.030        40
31.040        47
31.050        53
31.060        40
31.070        27
31.080        27
31.090        40
31.100        40
31.110        40
31.120        33
31.130        33
31.140        33
31.150        40
31.160        27
31.170        47
31.180        60
31.190        27
31.200        47
31.210        27
31.220        20
31.230        40
31.240        33
31.250        40
31.260        20
31.270        33
31.280        27
31.290        47
31.300        73
31.310        47
31.320        33
31.330        33
31.340        20
31.350        33
31.360        40
31.370        33
31.380        47
31.390        27
31.400        47
31.410        47
31.420        40
31.430        20
31.440        20
31.450        47
31.460        13
31.470        20
31.480        27
31.490        60
31.500        33
31.510        27
31.520        33
31.530        20
31.540        40
31.550        20
31.560        20
31.570        33
31.580        47
31.590        27
31.600        20
31.610        20
31.620        13
31.630        20
31.640        53
31.650        53
31.660        47
31.670        27
31.680        33
31.690        27
31.700        47
31.710        27
31.720        33
31.730        20
31.740        40
31.750        33
31.760        20
31.770        33
31.780        53
31.790        27
31.800        33
31.810        27
31.820        47
31.830        47
31.840        40
31.850        27
31.860        53
31.870        20
31.880        13
31.890        47
31.900        47
31.910        67
31.920        27
31.930        40
31.940        33
31.950        67
31.960       107
31.970        87
31.980        47
31.990        87
32.000        73
32.010        73
32.020       133
32.030       127
32.040       113
32.050       167
32.060       133
32.070       160
32.080       127
32.090       173
32.100       193
32.110       240
32.120       233
32.130       267
32.140       207
32.150       280
32.160       220
32.170       267
32.180       167
32.190       213
32.200       227
32.210       307
32.220       247
32.230       180
32.240       160
32.250       127
32.260       113
32.270       147
32.280       140
32.290       100
32.300       113
32.310        73
32.320        67
32.330        87
32.340       100
32.350        67
32.360        27
32.370        47
32.380        20
32.390        60
32.400        33
32.410        33
32.420        33
32.430        67
32.440        47
32.450        13
32.460        60
32.470        67
32.480        33
32.490        20
32.500        20
32.510        20
32.520        40
32.530        33
32.540        27
32.550        20
32.560         0
32.570        40
32.580        20
32.590        33
32.600        20
32.610        33
32.620        33
32.630        33
32.640        27
32.650        40
32.660        20
32.670        20
32.680        20
32.690        47
32.700        27
32.710        20
32.720        13
32.730        20
32.740        27
32.750        33
32.760        40
32.770        20
32.780        13
32.790        13
32.800        33
32.810        13
32.820        20
32.830        40
32.840        47
32.850        47
32.860        33
32.870        13
32.880        33
32.890        27
32.900        20
32.910        20
32.920        33
32.930        27
32.940        27
32.950        27
32.960         7
32.970        27
32.980        13
32.990        20
33.000        67
33.010        33
33.020        27
33.030        13
33.040        13
33.050         0
33.060        33
33.070        13
33.080        20
33.090        20
33.100        47
33.110        20
33.120        33
33.130        20
33.140        33
33.150         7
33.160        40
33.170        20
33.180        27
33.190        20
33.200         0
33.210        47
33.220        20
33.230        27
33.240         7
33.250        47
33.260        33
33.270        20
33.280        53
33.290        27
33.300        27
33.310        20
33.320        27
33.330        27
33.340         7
33.350        27
33.360        33
33.370        13
33.380        27
33.390        20
33.400        53
33.410        13
33.420        27
33.430        53
33.440         7
33.450        33
33.460        13
33.470        13
33.480        13
33.490        27
33.500        33
33.510        27
33.520        20
33.530        20
33.540         7
33.550         7
33.560        33
33.570        33
33.580        33
33.590        20
33.600        20
33.610         7
33.620         0
33.630        33
33.640        20
33.650        27
33.660        13
33.670        47
33.680        40
33.690        13
33.700        47
33.710        33
33.720        27
33.730        27
33.740        33
33.750        13
33.760         0
33.770       100
33.780        20
33.790        13
33.800         7
33.810        33
33.820        20
33.830        47
33.840        33
33.850        40
33.860        20
33.870        33
33.880         0
33.890        27
33.900        47
33.910        20
33.920        33
33.930        47
33.940         7
33.950        13
33.960        33
33.970        33
33.980        53
33.990        33
34.000        27
34.010        27
34.020        27
34.030        40
34.040        33
34.050        20
34.060        33
34.070        27
34.080        13
34.090         0
34.100        13
34.110        40
34.120         7
34.130        27
34.140        13
34.150        20
34.160        20
34.170         7
34.180        40
34.190        13
34.200        53
34.210         0
34.220        20
34.230        13
34.240        40
34.250        40
34.260         7
34.270        13
34.280        27
34.290         0
34.300         7
34.310         7
34.320        13
34.330        27
34.340        20
34.350        33
34.360        27
34.370        33
34.380        27
34.390        27
34.400        13
34.410        40
34.420        20
34.430        20
34.440        20
34.450        27
34.460        20
34.470         7
34.480        27
34.490        13
34.500        33
34.510        13
34.520        33
34.530        20
34.540        47
34.550        27
34.560        20
34.570        20
34.580         7
34.590         7
34.600        27
34.610         7
34.620        33
34.630        27
34.640        27
34.650        20
34.660        33
34.670        73
34.680        27
34.690        13
34.700        27
34.710        27
34.720        20
34.730        27
34.740        20
34.750        47
34.760        20
34.770        13
34.780        40
34.790        20
34.800        20
34.810         7
34.820        20
34.830        27
34.840        13
34.850        20
34.860        13
34.870        27
34.880        13
34.890         7
34.900        13
34.910        20
34.920        33
34.930        27
34.940        27
34.950        20
34.960        20
34.970        13
34.980        27
34.990        27
35.000        20
35.010        33
35.020        20
35.030        33
35.040        33
35.050        13
35.060        13
35.070        33
35.080        20
35.090         7
35.100        13
35.110        13
35.120        47
35.130        47
35.140         7
35.150        27
35.160        13
35.170        20
35.180        13
35.190         7
35.200        33
35.210        53
35.220        27
35.230        33
35.240         7
35.250        20
35.260         7
35.270        13
35.280        33
35.290        53
35.300         7
35.310        13
35.320        33
35.330        27
35.340        27
35.350        20
35.360        20
35.370        13
35.380        20
35.390        27
35.400        20
35.410        27
35.420        33
35.430        20
35.440        13
35.450        13
35.460        20
35.470        40
35.480        27
35.490        20
35.500        33
35.510        20
35.520        27
35.530        27
35.540        33
35.550        20
35.560        13
35.570        20
35.580        20
35.590        20
35.600        20
35.610         0
35.620        47
35.630        20
35.640        40
35.650        13
35.660        33
35.670        20
35.680        13
35.690        20
35.700         7
35.710        20
35.720        27
35.730        13
35.740        27
35.750         7
35.760        20
35.770        13
35.780        13
35.790        40
35.800        27
35.810        20
35.820        20
35.830        13
35.840        20
35.850        20
35.860         0
35.870        27
35.880        33
35.890         7
35.900        27
35.910        13
35.920        27
35.930         0
35.940        13
35.950        40
35.960        33
35.970        53
35.980        13
35.990        13
36.000        33
36.010        13
36.020        27
36.030        47
36.040        27
36.050        27
36.060        33
36.070         0
36.080        13
36.090        13
36.100        13
36.110        33
36.120        27
36.130        27
36.140        13
36.150        27
36.160        27
36.170        33
36.180        13
36.190        33
36.200        20
36.210        20
36.220        20
36.230        27
36.240        27
36.250        27
36.260         0
36.270        20
36.280        13
36.290        27
36.300        20
36.310        60
36.320         7
36.330        20
36.340        27
36.350        13
36.360        27
36.370        13
36.380        27
36.390        40
36.400        20
36.410        27
36.420        27
36.430        27
36.440        20
36.450        13
36.460        20
36.470        20
36.480        13
36.490         7
36.500         0
36.510        40
36.520         7
36.530        13
36.540         7
36.550        27
36.560        20
36.570        40
36.580        13
36.590        13
36.600        20
36.610        20
36.620        27
36.630        20
36.640         7
36.650        13
36.660        27
36.670        20
36.680        20
36.690        33
36.700        20
36.710        13
36.720        33
36.730        27
36.740        20
36.750        20
36.760        33
36.770        60
36.780        27
36.790        33
36.800         7
36.810        13
36.820        20
36.830        47
36.840        27
36.850         7
36.860        47
36.870        33
36.880        20
36.890        27
36.900        27
36.910        27
36.920        27
36.930         7
36.940        13
36.950        33
36.960         0
36.970        27
36.980         7
36.990        27
37.000        33
37.010        33
37.020        27
37.030        13
37.040        33
37.050        20
37.060         7
37.070        20
37.080         0
37.090        20
37.100        40
37.110        20
37.120        27
37.130        20
37.140        40
37.150        27
37.160        13
37.170        27
37.180        33
37.190        47
37.200         7
37.210        20
37.220        40
37.230        27
37.240        20
37.250        33
37.260        33
37.270        13
37.280        20
37.290        27
37.300         7
37.310        40
37.320        27
37.330        20
37.340         7
37.350        27
37.360        40
37.370        33
37.380        53
37.390        27
37.400        27
37.410         7
37.420        27
37.430         0
37.440        27
37.450         7
37.460        13
37.470        13
37.480         0
37.490         7
37.500        33
37.510        27
37.520        20
37.530        20
37.540        13
37.550        33
37.560        13
37.570        33
37.580        20
37.590        13
37.600        27
37.610        20
37.620        53
37.630         7
37.640        13
37.650        13
37.660        47
37.670        27
37.680        20
37.690        27
37.700        13
37.710        60
37.720         0
37.730        13
37.740        53
37.750        40
37.760        13
37.770        20
37.780         7
37.790         7
37.800        27
37.810        27
37.820        20
37.830        20
37.840         7
37.850        20
37.860        33
37.870         7
37.880        27
37.890        13
37.900         7
37.910        20
37.920        13
37.930        33
37.940        33
37.950        33
37.960        33
37.970        13
37.980         7
37.990        27
38.000         7
38.010        33
38.020        40
38.030        13
38.040         7
38.050        20
38.060        27
38.070         0
38.080        13
38.090         7
38.100        13
38.110        13
38.120        40
38.130         7
38.140        20
38.150        20
38.160        27
38.170         7
38.180        27
38.190        33
38.200        20
38.210        47
38.220         7
38.230        67
38.240        47
38.250        33
38.260        20
38.270        27
38.280        27
38.290        20
38.300        13
38.310         0
38.320        20
38.330        40
38.340        20
38.350        47
38.360        27
38.370        27
38.380        13
38.390        53
38.400        27
38.410        33
38.420        20
38.430        33
38.440        33
38.450        40
38.460        53
38.470        13
38.480        27
38.490        27
38.500        40
38.510        33
38.520        20
38.530        20
38.540         7
38.550        40
38.560        20
38.570        13
38.580        27
38.590         7
38.600        20
38.610        27
38.620        13
38.630        13
38.640        13
38.650        27
38.660        27
38.670        33
38.680        27
38.690        20
38.700        20
38.710        27
38.720        13
38.730        20
38.740        27
38.750         7
38.760        33
38.770        33
38.780        20
38.790        13
38.800        60
38.810        47
38.820        40
38.830        33
38.840        20
38.850        67
38.860        40
38.870        47
38.880        27
38.890        93
38.900        67
38.910        47
38.920        47
38.930        47
38.940        53
38.950        53
38.960        80
38.970        53
38.980        47
38.990        67
39.000        40
39.010        53
39.020       100
39.030        67
39.040        67
39.050        40
39.060        53
39.070        93
39.080        53
39.090        13
39.100        27
39.110        27
39.120        47
39.130        13
39.140        27
39.150        53
39.160        27
39.170        33
39.180        40
39.190        33
39.200        27
39.210        27
39.220        20
39.230         7
39.240         7
39.250        33
39.260        27
39.270        13
39.280        27
39.290        27
39.300        53
39.310        27
39.320         7
39.330        27
39.340        40
39.350         7
39.360        13
39.370        27
39.380        13
39.390        27
39.400         7
39.410        27
39.420         7
39.430        27
39.440         0
39.450        13
39.460        13
39.470        40
39.480         0
39.490        27
39.500        20
39.510        13
39.520        13
39.530        13
39.540        13
39.550        20
39.560        13
39.570         0
39.580        27
39.590        27
39.600        20
39.610        33
39.620        27
39.630        20
39.640         7
39.650        13
39.660        13
39.670        20
39.680         7
39.690        27
39.700        13
39.710        20
39.720        33
39.730         0
39.740        20
39.750        13
39.760         7
39.770        27
39.780        40
39.790        13
39.800         7
39.810        13
39.820        67
39.830        27
39.840        27
39.850        20
39.860        27
39.870        40
39.880        27
39.890        13
39.900         7
39.910        27
39.920         7
39.930        20
39.940        13
39.950        20
39.960        33
39.970         7
39.980        40
39.990        40
40.000        20
40.010         0
40.020        13
40.030        33
40.040        33
40.050        27
40.060        33
40.070        13
40.080        33
40.090        40
40.100        13
40.110        33
40.120        33
40.130        20
40.140        27
40.150        27
40.160        27
40.170        53
40.180        20
40.190         7
40.200        13
40.210        27
40.220         7
40.230        13
40.240        33
40.250        40
40.260        13
40.270        20
40.280        33
40.290        33
40.300        20
40.310        33
40.320        13
40.330        20
40.340        20
40.350        13
40.360         7
40.370        13
40.380        27
40.390        13
40.400        33
40.410         7
40.420        13
40.430        20
40.440        27
40.450        33
40.460        47
40.470        40
40.480        20
40.490        27
40.500         7
40.510        20
40.520        20
40.530        13
40.540        27
40.550        20
40.560        40
40.570        13
40.580        20
40.590        33
40.600        20
40.610        20
40.620        33
40.630        40
40.640        27
40.650        27
40.660        47
40.670        13
40.680        47
40.690        53
40.700        13
40.710        27
40.720        53
40.730        13
40.740        13
40.750         7
40.760        13
40.770        33
40.780        40
40.790        20
40.800         7
40.810        53
40.820        20
40.830         7
40.840        13
40.850        47
40.860        27
40.870         0
40.880         7
40.890        13
40.900        27
40.910        33
40.920        27
40.930         7
40.940        20
40.950        20
40.960        13
40.970        20
40.980        27
40.990        33
41.000        20
41.010        20
41.020        20
41.030        20
41.040        13
41.050        20
41.060        13
41.070        13
41.080        33
41.090        13
41.100         0
41.110        20
41.120        27
41.130        20
41.140        20
41.150         7
41.160        33
41.170        13
41.180         7
41.190        20
41.200        27
41.210        47
41.220         7
41.230        13
41.240        33
41.250        27
41.260         7
41.270        20
41.280        47
41.290        20
41.300        20
41.310        40
41.320        67
41.330        20
41.340         0
41.350         7
41.360        47
41.370        20
41.380        13
41.390        20
41.400        47
41.410        27
41.420        13
41.430        20
41.440        60
41.450         7
41.460        20
41.470        27
41.480         7
41.490        13
41.500         7
41.510        20
41.520        20
41.530        13
41.540        20
41.550        20
41.560        20
41.570        13
41.580        20
41.590        40
41.600        27
41.610        13
41.620        20
41.630        33
41.640        47
41.650        20
41.660        33
41.670        13
41.680        20
41.690        47
41.700        13
41.710        20
41.720        33
41.730        20
41.740        47
41.750         7
41.760        33
41.770        27
41.780        13
41.790         7
41.800        13
41.810        27
41.820        40
41.830        33
41.840         7
41.850        13
41.860        33
41.870        33
41.880        27
41.890         7
41.900        13
41.910        13
41.920        27
41.930         7
41.940        27
41.950        20
41.960        13
41.970        13
41.980        13
41.990        33
42.000        20
42.010        13
42.020        13
42.030        20
42.040        27
42.050         7
42.060        47
42.070        40
42.080        20
42.090        33
42.100        40
42.110        40
42.120        33
42.130        33
42.140        27
42.150        33
42.160        60
42.170        33
42.180        27
42.190        53
42.200        67
42.210        47
42.220        67
42.230        80
42.240       100
42.250        87
42.260        80
42.270       147
42.280       100
42.290       120
42.300        73
42.310       127
42.320       107
42.330       100
42.340        80
42.350       107
42.360       100
42.370       100
42.380        87
42.390        93
42.400       120
42.410        73
42.420        73
42.430       120
42.440       127
42.450        87
42.460        93
42.470        87
42.480        67
42.490        67
42.500        80
42.510        27
42.520        80
42.530        40
42.540        67
42.550        40
42.560        93
42.570        47
42.580        40
42.590        40
42.600        73
42.610        60
42.620        20
42.630        53
42.640        40
42.650        33
42.660        33
42.670        40
42.680        60
42.690        40
42.700        60
42.710        13
42.720        33
42.730        27
42.740        40
42.750        60
42.760        47
42.770        13
42.780        27
42.790        47
42.800        47
42.810        47
42.820        40
42.830        27
42.840        47
42.850        47
42.860        40
42.870        53
42.880        27
42.890        40
42.900        67
42.910        60
42.920        60
42.930        33
42.940        27
42.950        33
42.960        53
42.970        20
42.980        27
42.990        47
43.000        33
43.010        27
43.020        40
43.030        13
43.040        33
43.050        33
43.060        13
43.070        27
43.080        20
43.090        60
43.100        47
43.110        33
43.120        53
43.130        13
43.140        13
43.150        13
43.160        40
43.170         0
43.180        33
43.190        40
43.200        13
43.210        40
43.220        20
43.230        20
43.240        13
43.250        27
43.260        20
43.270        13
43.280        27
43.290        13
43.300        27
43.310        20
43.320         7
43.330         7
43.340        20
43.350         0
43.360        13
43.370        13
43.380        40
43.390        13
43.400        33
43.410        20
43.420        20
43.430        13
43.440        47
43.450        33
43.460        13
43.470        47
43.480        20
43.490        40
43.500        20
43.510        33
43.520        60
43.530        80
43.540        20
43.550        20
43.560        20
43.570        87
43.580        47
43.590        27
43.600        53
43.610        27
43.620        47
43.630        60
43.640        40
43.650        47
43.660        87
43.670        47
43.680        20
43.690        33
43.700        47
43.710        60
43.720        40
43.730        33
43.740        40
43.750        33
43.760        53
43.770        13
43.780        27
43.790        27
43.800        27
43.810        53
43.820        27
43.830        33
43.840        27
43.850        33
43.860        33
43.870        13
43.880        20
43.890         7
43.900        13
43.910         7
43.920        13
43.930         0
43.940         7
43.950        20
43.960        27
43.970        27
43.980        27
43.990        27
44.000        47
44.010        20
44.020        27
44.030        13
44.040        13
44.050        20
44.060        27
44.070         7
44.080        20
44.090        13
44.100        40
44.110        33
44.120        27
44.130        53
44.140        40
44.150        33
44.160        67
44.170        13
44.180        53
44.190        33
44.200        27
44.210        40
44.220        13
44.230        13
44.240        27
44.250        60
44.260        40
44.270        40
44.280        27
44.290        33
44.300        20
44.310        60
44.320        33
44.330        27
44.340        27
44.350        27
44.360        27
44.370        53
44.380        20
44.390        20
44.400        20
44.410        13
44.420         7
44.430        20
44.440        20
44.450        13
44.460        27
44.470        33
44.480        20
44.490        13
44.500        20
44.510         7
44.520        20
44.530        20
44.540        20
44.550        60
44.560        27
44.570         0
44.580        20
44.590        13
44.600        33
44.610        27
44.620        33
44.630        13
44.640        13
44.650        13
44.660         7
44.670        13
44.680        27
44.690        33
44.700        27
44.710         7
44.720        13
44.730        40
44.740        20
44.750        20
44.760        33
44.770        27
44.780         7
44.790        13
44.800        27
44.810        27
44.820        33
44.830         7
44.840        33
44.850        20
44.860        33
44.870        33
44.880        13
44.890        20
44.900        27
44.910        13
44.920        33
44.930         7
44.940         0
44.950         7
44.960        13
44.970        33
44.980        20
44.990        27
45.000        20
45.010         7
45.020        20
45.030        20
45.040        27
45.050        20
45.060         7
45.070         7
45.080        27
45.090         7
45.100         7
45.110        27
45.120        20
45.130        13
45.140         0
45.150        20
45.160        27
45.170        20
45.180        27
45.190         7
45.200        27
45.210         0
45.220        20
45.230        33
45.240         0
45.250        27
45.260        33
45.270        40
45.280        13
45.290         0
45.300        20
45.310        47
45.320        20
45.330         7
45.340        27
45.350        27
45.360        20
45.370        13
45.380         7
45.390        13
45.400        20
45.410        20
45.420        40
45.430        27
45.440        33
45.450        40
45.460        20
45.470        27
45.480        40
45.490        33
45.500        13
45.510        47
45.520        53
45.530        13
45.540        20
45.550        20
45.560         7
45.570        13
45.580        27
45.590        47
45.600        13
45.610        13
45.620        33
45.630        20
45.640        27
45.650        20
45.660        20
45.670        27
45.680        27
45.690        40
45.700         7
45.710        20
45.720        33
45.730        27
45.740        20
45.750        40
45.760        20
45.770        13
45.780         7
45.790        40
45.800        33
45.810        20
45.820        53
45.830         0
45.840        53
45.850        40
45.860         7
45.870        47
45.880        13
45.890        40
45.900        20
45.910        67
45.920        47
45.930        27
45.940        40
45.950        33
45.960        53
45.970        60
45.980        80
45.990       100
46.000        87
46.010       160
46.020        93
46.030       113
46.040       167
46.050        60
46.060        80
46.070       200
46.080       127
46.090       173
46.100        93
46.110       113
46.120       167
46.130       180
46.140       160
46.150       193
46.160       153
46.170       160
46.180       147
46.190       200
46.200        93
46.210       133
46.220       100
46.230       100
46.240        87
46.250       120
46.260       147
46.270        73
46.280        60
46.290        73
46.300        73
46.310        47
46.320        53
46.330        60
46.340       100
46.350        53
46.360        47
46.370        40
46.380        53
46.390        67
46.400        40
46.410        33
46.420        40
46.430        60
46.440        47
46.450        27
46.460         7
46.470        67
46.480        20
46.490        53
46.500        13
46.510        20
46.520        40
46.530        13
46.540        40
46.550        27
46.560        40
46.570        33
46.580        20
46.590        33
46.600        60
46.610        47
46.620        60
46.630        20
46.640        40
46.650        60
46.660        33
46.670        40
46.680        60
46.690        53
46.700        40
46.710        20
46.720        67
46.730        53
46.740        47
46.750        47
46.760        60
46.770        67
46.780        53
46.790        53
46.800        87
46.810        47
46.820        80
46.830        53
46.840        73
46.850        53
46.860        80
46.870        40
46.880        93
46.890        73
46.900        87
46.910        73
46.920        47
46.930        40
46.940        47
46.950        80
46.960        27
46.970        60
46.980        33
46.990        40
47.000        40
47.010        47
47.020        67
47.030        20
47.040        20
47.050        47
47.060        33
47.070        20
47.080        20
47.090        40
47.100        40
47.110        33
47.120         7
47.130        13
47.140        20
47.150        20
47.160        33
47.170        20
47.180        27
47.190        33
47.200        13
47.210        13
47.220        40
47.230        20
47.240         7
47.250        13
47.260         7
47.270        27
47.280        33
47.290        13
47.300        20
47.310        13
47.320         0
47.330         0
47.340        40
47.350         7
47.360        13
47.370        13
47.380         0
47.390         7
47.400        33
47.410        27
47.420         7
47.430        53
47.440        27
47.450        13
47.460        20
47.470        27
47.480        13
47.490         0
47.500        33
47.510        20
47.520        40
47.530        13
47.540         7
47.550        20
47.560        13
47.570        20
47.580         7
47.590        20
47.600        33
47.610         0
47.620        40
47.630         0
47.640        13
47.650        27
47.660        33
47.670        20
47.680        13
47.690        20
47.700         7
47.710        33
47.720        33
47.730         7
47.740        20
47.750        20
47.760        13
47.770        13
47.780         7
47.790        27
47.800        13
47.810         7
47.820        20
47.830        20
47.840         0
47.850         7
47.860        33
47.870        40
47.880         7
47.890        27
47.900        20
47.910         0
47.920        13
47.930        27
47.940         0
47.950        27
47.960         7
47.970        13
47.980        27
47.990        27
48.000        20
48.010        13
48.020        40
48.030        13
48.040        20
48.050        27
48.060        20
48.070        33
48.080        27
48.090        13
48.100        20
48.110        13
48.120         7
48.130        20
48.140        47
48.150        40
48.160         0
48.170         7
48.180        27
48.190        33
48.200        13
48.210        20
48.220        40
48.230        20
48.240         7
48.250        27
48.260        13
48.270        27
48.280        33
48.290        20
48.300        40
48.310        27
48.320        47
48.330        20
48.340        27
48.350        13
48.360        20
48.370        40
48.380        13
48.390         7
48.400        33
48.410        53
48.420        47
48.430        27
48.440        33
48.450         7
48.460        20
48.470        20
48.480         0
48.490        33
48.500        53
48.510         7
48.520        27
48.530         7
48.540        33
48.550        27
48.560         0
48.570        13
48.580        20
48.590        27
48.600        20
48.610        53
48.620        47
48.630        33
48.640        20
48.650        13
48.660        20
48.670        33
48.680        13
48.690        33
48.700         7
48.710         7
48.720        13
48.730        27
48.740        27
48.750        20
48.760         0
48.770        40
48.780        27
48.790        53
48.800        27
48.810        27
48.820        20
48.830        47
48.840        20
48.850        27
48.860        27
48.870        13
48.880        47
48.890        33
48.900        33
48.910        47
48.920        40
48.930        60
48.940        47
48.950        67
48.960        33
48.970        53
48.980        33
48.990        93
49.000        53
49.010        60
49.020       100
49.030        80
49.040        93
49.050       107
49.060       120
49.070        93
49.080       113
49.090        93
49.100        67
49.110       127
49.120        73
49.130        87
49.140        93
49.150        40
49.160        67
49.170        67
49.180       113
49.190        80
49.200        73
49.210        80
49.220        73
49.230        87
49.240        40
49.250        93
49.260        27
49.270        73
49.280        27
49.290        53
49.300        67
49.310        27
49.320        47
49.330        73
49.340        40
49.350        20
49.360        40
49.370        27
49.380        47
49.390        40
49.400         0
49.410        27
49.420        20
49.430        20
49.440        13
49.450        33
49.460        20
49.470        33
49.480        13
49.490        40
49.500        13
49.510        27
49.520        20
49.530        40
49.540        27
49.550        20
49.560        20
49.570        27
49.580        13
49.590        13
49.600        33
49.610        27
49.620        13
49.630        20
49.640         7
49.650        27
49.660        20
49.670         7
49.680        20
49.690         7
49.700        20
49.710        20
49.720        33
49.730         7
49.740        20
49.750        40
49.760        20
49.770        20
49.780         7
49.790        33
49.800         7
49.810        27
49.820        40
49.830        47
49.840        53
49.850        33
49.860        33
49.870        53
49.880        13
49.890        40
49.900         0
49.910        60
49.920        40
49.930        13
49.940         0
49.950        33
49.960        40
49.970        13
49.980        13
49.990        27
50.000         7
50.010        20
50.020        20
50.030        20
50.040        40
50.050        40
50.060        40
50.070        20
50.080        40
50.090        13
50.100        20
50.110        73
50.120        20
50.130        13
50.140        73
50.150        27
50.160        27
50.170         0
50.180        27
50.190        13
50.200        40
50.210        40
50.220         7
50.230        33
50.240        47
50.250        47
50.260        13
50.270        53
50.280         7
50.290        47
50.300        73
50.310        13
50.320        47
50.330        27
50.340        13
50.350        13
50.360        47
50.370        27
50.380        13
50.390        33
50.400        13
50.410        27
50.420        40
50.430        20
50.440        47
50.450        13
50.460        33
50.470        40
50.480        27
50.490        47
50.500        13
50.510        33
50.520         0
50.530        20
50.540        33
50.550        20
50.560        47
50.570        40
50.580        27
50.590        53
50.600        27
50.610        33
50.620         7
50.630        27
50.640        33
50.650        20
50.660        33
50.670        13
50.680        33
50.690        53
50.700        27
50.710        13
50.720        27
50.730        27
50.740        27
50.750        20
50.760        27
50.770        27
50.780        20
50.790        60
50.800        47
50.810        27
50.820        27
50.830        20
50.840        13
50.850        20
50.860        13
50.870        13
50.880        20
50.890        20
50.900        27
50.910        47
50.920        13
50.930        27
50.940        27
50.950        40
50.960        27
50.970        13
50.980        13
50.990        20
51.000        27
51.010        13
51.020        27
51.030        53
51.040        27
51.050        20
51.060        27
51.070         7
51.080        33
51.090        13
51.100        20
51.110        20
51.120        27
51.130        33
51.140        33
51.150        40
51.160        20
51.170        40
51.180        13
51.190        40
51.200        13
51.210        33
51.220        40
51.230        27
51.240        33
51.250        13
51.260        33
51.270        40
51.280        33
51.290        27
51.300        40
51.310        40
51.320        40
51.330        33
51.340        47
51.350        33
51.360        20
51.370        13
51.380         7
51.390        27
51.400        27
51.410        20
51.420        40
51.430        20
51.440        33
51.450        27
51.460        33
51.470        13
51.480        47
51.490        20
51.500        33
51.510        33
51.520        20
51.530        33
51.540        13
51.550        20
51.560        27
51.570        33
51.580        40
51.590        47
51.600        47
51.610        53
51.620        47
51.630        33
51.640        53
51.650        40
51.660        73
51.670        53
51.680        53
51.690        67
51.700        73
51.710        67
51.720        67
51.730       107
51.740        47
51.750       100
51.760       120
51.770       100
51.780       127
51.790       127
51.800       173
51.810       113
51.820       140
51.830       147
51.840       180
51.850       140
51.860       233
51.870       180
51.880       180
51.890       240
51.900       300
51.910       280
51.920       280
51.930       240
51.940       240
51.950       213
51.960       253
51.970       193
51.980       167
51.990       160
52.000       160
52.010       180
52.020       153
52.030       147
52.040       187
52.050       227
52.060       173
52.070       147
52.080       113
52.090       167
52.100       127
52.110       167
52.120        60
52.130       153
52.140        93
52.150       113
52.160       127
52.170        53
52.180       100
52.190        73
52.200        87
52.210        40
52.220        73
52.230        33
52.240        87
52.250        93
52.260        80
52.270        67
52.280        47
52.290        40
52.300        53
52.310        33
52.320        73
52.330        47
52.340        40
52.350        13
52.360        80
52.370        53
52.380        60
52.390        53
52.400        47
52.410        40
52.420        60
52.430        60
52.440        60
52.450        47
52.460        47
52.470        73
52.480        67
52.490        33
52.500        67
52.510        80
52.520        87
52.530        73
52.540        73
52.550        27
52.560       107
52.570        47
52.580        67
52.590        87
52.600        67
52.610        87
52.620        93
52.630        73
52.640       113
52.650        47
52.660        33
52.670        73
52.680        80
52.690       100
52.700       100
52.710        47
52.720        73
52.730        33
52.740        87
52.750        47
52.760        60
52.770        80
52.780        60
52.790        93
52.800        47
52.810        60
52.820        73
52.830        40
52.840        27
52.850        53
52.860        47
52.870        40
52.880        53
52.890        20
52.900        73
52.910        47
52.920        53
52.930        73
52.940        67
52.950        13
52.960        40
52.970        20
52.980        73
52.990        33
53.000        27
53.010        27
53.020        27
53.030        47
53.040        73
53.050        47
53.060        27
53.070        53
53.080        20
53.090        33
53.100        40
53.110        27
53.120        40
53.130        67
53.140        27
53.150        47
53.160        33
53.170        60
53.180        53
53.190        60
53.200        27
53.210        47
53.220        33
53.230        47
53.240        20
53.250        40
53.260        47
53.270        33
53.280         7
53.290        27
53.300        47
53.310        13
53.320        73
53.330        53
53.340        20
53.350        27
53.360        47
53.370        33
53.380        33
53.390        33
53.400        47
53.410        33
53.420        20
53.430        20
53.440        40
53.450         7
53.460        20
53.470        47
53.480        33
53.490        60
53.500        40
53.510        20
53.520        40
53.530        13
53.540        40
53.550        33
53.560        13
53.570        33
53.580        27
53.590         7
53.600        13
53.610         0
53.620        67
53.630        40
53.640        33
53.650        27
53.660        47
53.670        33
53.680        33
53.690         7
53.700        20
53.710        13
53.720        20
53.730        27
53.740        13
53.750        20
53.760        13
53.770        13
53.780        20
53.790        40
53.800         7
53.810        40
53.820        13
53.830        53
53.840        20
53.850        13
53.860        53
53.870        73
53.880        20
53.890        33
53.900        40
53.910        27
53.920        13
53.930        27
53.940        27
53.950        27
53.960        47
53.970        20
53.980        33
53.990         7
54.000        13
54.010        40
54.020        33
54.030         7
54.040        47
54.050        47
54.060        13
54.070        27
54.080        13
54.090        20
54.100        20
54.110        67
54.120        20
54.130        13
54.140        47
54.150        20
54.160         7
54.170        27
54.180        13
54.190        40
54.200        33
54.210        40
54.220        40
54.230        47
54.240        20
54.250        27
54.260        20
54.270        20
54.280        27
54.290        20
54.300        13
54.310        20
54.320        33
54.330        20
54.340        13
54.350        20
54.360        27
54.370        20
54.380        27
54.390        33
54.400        27
54.410        33
54.420        33
54.430         7
54.440        13
54.450         0
54.460        47
54.470        13
54.480        13
54.490         7
54.500        13
54.510         7
54.520        20
54.530        27
54.540        20
54.550        20
54.560        27
54.570        27
54.580         7
54.590        33
54.600        13
54.610        27
54.620        27
54.630        33
54.640         7
54.650        33
54.660        27
54.670         7
54.680        33
54.690        20
54.700        13
54.710        33
54.720         7
54.730        40
54.740        27
54.750        27
54.760         7
54.770        13
54.780        20
54.790        33
54.800        33
54.810        33
54.820        33
54.830        33
54.840        53
54.850        40
54.860        27
54.870        13
54.880        40
54.890        20
54.900        40
54.910        27
54.920        20
54.930        27
54.940         7
54.950        40
54.960        27
54.970        13
54.980        33
54.990        27
55.000        33
55.010        33
55.020        27
55.030        40
55.040        33
55.050        47
55.060        20
55.070         7
55.080        20
55.090        13
55.100        20
55.110        13
55.120        27
55.130        13
55.140         7
55.150        27
55.160        20
55.170        13
55.180        13
55.190        27
55.200        13
55.210        40
55.220        13
55.230        27
55.240        13
55.250        13
55.260        33
55.270        27
55.280         7
55.290         7
55.300        27
55.310        13
55.320        20
55.330        27
55.340         0
55.350         7
55.360        13
55.370        20
55.380         7
55.390        27
55.400        13
55.410        27
55.420        13
55.430        13
55.440        27
55.450        27
55.460        13
55.470        20
55.480        27
55.490         0
55.500        27
55.510        40
55.520        27
55.530         7
55.540        20
55.550        53
55.560         0
55.570        40
55.580        13
55.590        20
55.600        20
55.610        33
55.620        40
55.630        20
55.640        40
55.650        20
55.660        20
55.670        20
55.680         7
55.690        27
55.700        13
55.710        33
55.720        20
55.730        33
55.740        20
55.750        20
55.760        33
55.770        33
55.780        20
55.790        40
55.800        40
55.810        40
55.820        27
55.830        20
55.840        47
55.850        27
55.860        13
55.870        27
55.880        27
55.890        20
55.900        40
55.910        33
55.920        33
55.930        60
55.940        53
55.950        20
55.960        27
55.970        20
55.980        20
55.990        33
56.000        47
56.010        73
56.020        20
56.030        47
56.040        27
56.050        33
56.060        53
56.070        47
56.080        60
56.090        80
56.100        47
56.110        33
56.120        27
56.130        33
56.140        40
56.150        53
56.160        33
56.170        53
56.180        20
56.190        60
56.200        53
56.210        47
56.220        53
56.230        33
56.240        40
56.250        53
56.260        33
56.270        67
56.280        27
56.290        47
56.300        33
56.310         7
56.320        27
56.330        53
56.340        53
56.350        33
56.360        40
56.370        33
56.380        60
56.390        47
56.400        53
56.410        60
56.420        53
56.430        27
56.440        40
56.450        20
56.460        53
56.470        20
56.480        40
56.490        27
56.500        20
56.510         7
56.520        40
56.530        27
56.540        33
56.550        27
56.560        33
56.570        60
56.580        47
56.590        20
56.600        20
56.610        27
56.620        13
56.630        27
56.640        13
56.650        27
56.660        40
56.670         0
56.680        33
56.690        20
56.700        13
56.710        27
56.720        60
56.730        13
56.740        40
56.750        33
56.760         7
56.770        40
56.780        33
56.790        53
56.800        13
56.810         7
56.820        27
56.830        13
56.840         7
56.850        27
56.860        27
56.870         0
56.880        47
56.890        20
56.900        27
56.910        40
56.920         7
56.930        53
56.940        67
56.950        27
56.960        27
56.970        20
56.980        33
56.990        33
57.000        27
57.010        20
57.020        33
57.030        53
57.040        27
57.050        20
57.060        40
57.070        33
57.080         7
57.090        20
57.100        47
57.110        40
57.120        40
57.130        33
57.140        40
57.150        13
57.160        27
57.170        27
57.180         7
57.190        27
57.200        60
57.210        27
57.220        20
57.230        33
57.240        40
57.250        40
57.260        80
57.270        20
57.280        20
57.290        53
57.300        47
57.310        20
57.320        20
57.330        20
57.340        33
57.350        47
57.360        20
57.370        40
57.380        53
57.390        13
57.400        20
57.410        27
57.420        47
57.430        13
57.440        47
57.450        47
57.460        40
57.470        20
57.480        33
57.490        27
57.500        40
57.510        27
57.520        33
57.530        47
57.540        60
57.550        33
57.560        47
57.570        33
57.580        20
57.590        33
57.600        20
57.610        27
57.620        27
57.630        47
57.640        27
57.650        33
57.660        33
57.670        47
57.680        27
57.690        20
57.700        33
57.710        13
57.720        40
57.730        33
57.740        20
57.750        47
57.760        53
57.770        40
57.780        20
57.790        27
57.800        47
57.810        13
57.820        13
57.830        60
57.840        40
57.850        27
57.860        27
57.870        20
57.880        27
57.890        27
57.900        20
57.910        67
57.920        13
57.930        20
57.940        47
57.950        33
57.960        20
57.970        27
57.980        60
57.990        13
58.000        40
58.010        13
58.020        20
58.030        20
58.040         7
58.050         7
58.060        27
58.070        20
58.080        27
58.090        53
58.100        27
58.110        13
58.120        40
58.130        27
58.140        20
58.150        20
58.160        27
58.170        13
58.180        27
58.190        13
58.200        40
58.210        33
58.220        13
58.230        13
58.240        27
58.250        20
58.260         7
58.270        20
58.280        20
58.290        27
58.300        20
58.310        27
58.320        27
58.330        33
58.340        13
58.350         7
58.360        13
58.370        13
58.380        20
58.390        33
58.400        20
58.410        53
58.420        27
58.430        20
58.440        20
58.450        27
58.460        13
58.470        33
58.480        27
58.490        20
58.500        20
58.510        33
58.520         7
58.530        20
58.540        13
58.550        13
58.560        27
58.570        27
58.580         7
58.590        33
58.600         7
58.610        13
58.620        40
58.630        40
58.640         0
58.650        27
58.660        20
58.670         7
58.680        13
58.690        20
58.700        20
58.710        40
58.720         0
58.730        20
58.740        20
58.750        20
58.760        13
58.770        20
58.780        13
58.790        20
58.800         7
58.810        13
58.820        20
58.830         0
58.840         0
58.850        13
58.860        13
58.870         7
58.880        33
58.890        13
58.900        47
58.910        20
58.920        27
58.930        20
58.940        13
58.950        13
58.960        13
58.970        27
58.980        33
58.990        13
59.000        13
59.010        40
59.020        27
59.030        33
59.040        47
59.050        13
59.060         7
59.070        40
59.080        13
59.090         7
59.100        20
59.110        13
59.120        20
59.130        33
59.140         0
59.150         7
59.160         7
59.170        33
59.180        27
59.190        33
59.200        13
59.210        20
59.220        13
59.230         7
59.240        13
59.250        33
59.260        40
59.270        33
59.280        20
59.290        33
59.300        20
59.310        20
59.320        47
59.330         7
59.340        40
59.350        20
59.360        33
59.370        40
59.380        13
59.390        40
59.400        40
59.410        27
59.420        13
59.430        47
59.440        13
59.450        27
59.460        27
59.470        40
59.480        27
59.490         7
59.500        27
59.510        13
59.520        47
59.530        27
59.540        33
59.550         7
59.560         7
59.570        27
59.580         0
59.590        20
59.600        13
59.610        40
59.620        13
59.630        27
59.640        20
59.650        67
59.660         7
59.670        40
59.680        27
59.690        20
59.700         7
59.710        40
59.720        20
59.730        40
59.740        20
59.750        27
59.760        20
59.770        13
59.780        33
59.790        20
59.800        40
59.810        53
59.820        27
59.830        20
59.840        33
59.850        40
59.860        20
59.870        40
59.880        47
59.890       100
59.900        53
59.910        13
59.920        40
59.930        27
59.940        40
59.950        40
59.960        20
59.970        40
59.980        13
59.990         7
60.000         7
