20.000        27
20.010        27
20.020        73
20.030        67
20.040        60
20.050        40
20.060        33
20.070        67
20.080        60
20.090        93
20.100        47
20.110        93
20.120        33
20.130        60
20.140        73
20.150        47
20.160        93
20.170        20
20.180        53
20.190        47
20.200        40
20.210        40
20.220        73
20.230        73
20.240        20
20.250        80
20.260        20
20.270        87
20.280        67
20.290        40
20.300        33
20.310        27
20.320        27
20.330        27
20.340         7
20.350        20
20.360        13
20.370        47
20.380        73
20.390        60
20.400        67
20.410        33
20.420        27
20.430        40
20.440        67
20.450        40
20.460        33
20.470        67
20.480        47
20.490        53
20.500        33
20.510        53
20.520        33
20.530        40
20.540        47
20.550        80
20.560        40
20.570        33
20.580        60
20.590        53
20.600        47
20.610        87
20.620        53
20.630        47
20.640        67
20.650        33
20.660        33
20.670        20
20.680        40
20.690        60
20.700        53
20.710        33
20.720        27
20.730        73
20.740        53
20.750        27
20.760        53
20.770        40
20.780        33
20.790        27
20.800        47
20.810        67
20.820        40
20.830        53
20.840        47
20.850        47
20.860        60
20.870        33
20.880        20
20.890        47
20.900        33
20.910        60
20.920        60
20.930        60
20.940        67
20.950        47
20.960        53
20.970        53
20.980        60
20.990        47
21.000        53
21.010        73
21.020        60
21.030        40
21.040        47
21.050        67
21.060        33
21.070        47
21.080        73
21.090        33
21.100        73
21.110        47
21.120        47
21.130        53
21.140        40
21.150        73
21.160        53
21.170        27
21.180        27
21.190        33
21.200        40
21.210        53
21.220        33
21.230        40
21.240        33
21.250        53
21.260        40
21.270        33
21.280        20
21.290        60
21.300        20
21.310        87
21.320        40
21.330        33
21.340        40
21.350        40
21.360        47
21.370        33
21.380        67
21.390        53
21.400        40
21.410         7
21.420        47
21.430        53
21.440        40
21.450        60
21.460        40
21.470        60
21.480        40
21.490        20
21.500        73
21.510        60
21.520        40
21.530        47
21.540        33
21.550        33
21.560        20
21.570        13
21.580        33
21.590        33
21.600        33
21.610        40
21.620        13
21.630        27
21.640        33
21.650        40
21.660        27
21.670         7
21.680        40
21.690        27
21.700        33
21.710        33
21.720        20
21.730        27
21.740        27
21.750        47
21.760        67
21.770        40
21.780        47
21.790        47
21.800        27
21.810        13
21.820        40
21.830        53
21.840        40
21.850        33
21.860        20
21.870        67
21.880        40
21.890        53
21.900        47
21.910        27
21.920        87
21.930        40
21.940        60
21.950        33
21.960        27
21.970        60
21.980        33
21.990        27
22.000        33
22.010        33
22.020        47
22.030        33
22.040        87
22.050        40
22.060        33
22.070        27
22.080        60
22.090        33
22.100        67
22.110        53
22.120        67
22.130        33
22.140        40
22.150        40
22.160       107
22.170        73
22.180       100
22.190        60
22.200       160
22.210       107
22.220        87
22.230       113
22.240        87
22.250        93
22.260        60
22.270       100
22.280       113
22.290       107
22.300       113
22.310       147
22.320       200
22.330       120
22.340       153
22.350       207
22.360       260
22.370       260
22.380       300
22.390       360
22.400       293
22.410       360
22.420       333
22.430       393
22.440       473
22.450       493
22.460       440
22.470       440
22.480       673
22.490       373
22.500       473
22.510       460
22.520       380
22.530       287
22.540       333
22.550       273
22.560       287
22.570       233
22.580       140
22.590       120
22.600       167
22.610       140
22.620       113
22.630       100
22.640       173
22.650        73
22.660       113
22.670       107
22.680       100
22.690       100
22.700        67
22.710       120
22.720        40
22.730        87
22.740       107
22.750       113
22.760        67
22.770       120
22.780       147
22.790       147
22.800       233
22.810       200
22.820       173
22.830       200
22.840       180
22.850       187
22.860       140
22.870       200
22.880       313
22.890       213
22.900       240
22.910       300
22.920       253
22.930       240
22.940       253
22.950       260
22.960       213
22.970       213
22.980       313
22.990       273
23.000       187
23.010       187
23.020       153
23.030       153
23.040       160
23.050       113
23.060       173
23.070       147
23.080       153
23.090       100
23.100        80
23.110        80
23.120       120
23.130        53
23.140        67
23.150        80
23.160        80
23.170        53
23.180        60
23.190        47
23.200        47
23.210       120
23.220        47
23.230        73
23.240        33
23.250        60
23.260        67
23.270        47
23.280        60
23.290        33
23.300        40
23.310         7
23.320        27
23.330        47
23.340        27
23.350        93
23.360        27
23.370        60
23.380        67
23.390        27
23.400        27
23.410        40
23.420        40
23.430        33
23.440        53
23.450        40
23.460        20
23.470        53
23.480        40
23.490        33
23.500        27
23.510        47
23.520        27
23.530        73
23.540        60
23.550        60
23.560        20
23.570        27
23.580        27
23.590        47
23.600        27
23.610        47
23.620        53
23.630        33
23.640        67
23.650        47
23.660        40
23.670        53
23.680        33
23.690        33
23.700        13
23.710        20
23.720        47
23.730        47
23.740        27
23.750        60
23.760        40
23.770        20
23.780        27
23.790        20
23.800        27
23.810        13
23.820        13
23.830        53
23.840        33
23.850        33
23.860        20
23.870        33
23.880        67
23.890        33
23.900        67
23.910        20
23.920        33
23.930        33
23.940        40
23.950        60
23.960        73
23.970        33
23.980        33
23.990        40
24.000        47
24.010        27
24.020        60
24.030        67
24.040        47
24.050        67
24.060        47
24.070        27
24.080        20
24.090        27
24.100        27
24.110        33
24.120        13
24.130        53
24.140        53
24.150        20
24.160        20
24.170        47
24.180        47
24.190        73
24.200        40
24.210        47
24.220        40
24.230        33
24.240        33
24.250        27
24.260        60
24.270        40
24.280        47
24.290        40
24.300        53
24.310        20
24.320        33
24.330        33
24.340        20
24.350        20
24.360        80
24.370        33
24.380        40
24.390        47
24.400        47
24.410        33
24.420        53
24.430        33
24.440        67
24.450        33
24.460         7
24.470        27
24.480        20
24.490        33
24.500        27
24.510        47
24.520        27
24.530        27
24.540        53
24.550        53
24.560        13
24.570        93
24.580        47
24.590        47
24.600        53
24.610        47
24.620        73
24.630        27
24.640        73
24.650        40
24.660        60
24.670        27
24.680        53
24.690        33
24.700        33
24.710        53
24.720        33
24.730        27
24.740        27
24.750        60
24.760        60
24.770        73
24.780         7
24.790        40
24.800        73
24.810        67
24.820        20
24.830        87
24.840        47
24.850        87
24.860        60
24.870        47
24.880        40
24.890        73
24.900        47
24.910        53
24.920        33
24.930        40
24.940        40
24.950        67
24.960        73
24.970        53
24.980        20
24.990        47
25.000        27
25.010        40
25.020        93
25.030        67
25.040        73
25.050        93
25.060        73
25.070        80
25.080        47
25.090        73
25.100        47
25.110       120
25.120        67
25.130        40
25.140        73
25.150        27
25.160        27
25.170        80
25.180        60
25.190        40
25.200        67
25.210        67
25.220        20
25.230        20
25.240        73
25.250        40
25.260        47
25.270        60
25.280        27
25.290        93
25.300        53
25.310        47
25.320        47
25.330        40
25.340        40
25.350        40
25.360        40
25.370        53
25.380        67
25.390       107
25.400        73
25.410        73
25.420        93
25.430        40
25.440        67
25.450        67
25.460        93
25.470        87
25.480        87
25.490        53
25.500        67
25.510       100
25.520        93
25.530       113
25.540       133
25.550       133
25.560       187
25.570       140
25.580       200
25.590       233
25.600       187
25.610       180
25.620       260
25.630       167
25.640       187
25.650       200
25.660       193
25.670       267
25.680       200
25.690       213
25.700       227
25.710       240
25.720       220
25.730       173
25.740       227
25.750       200
25.760       240
25.770       113
25.780       180
25.790       120
25.800       113
25.810       133
25.820       133
25.830        93
25.840        87
25.850        60
25.860        87
25.870        60
25.880        73
25.890        53
25.900        47
25.910        73
25.920       100
25.930        47
25.940        27
25.950        60
25.960        60
25.970        27
25.980         7
25.990        47
26.000        33
26.010        67
26.020        33
26.030        47
26.040        20
26.050        53
26.060        33
26.070        73
26.080        20
26.090        33
26.100        20
26.110        20
26.120        33
26.130        67
26.140        73
26.150        40
26.160        20
26.170        33
26.180        40
26.190        40
26.200        60
26.210        13
26.220        60
26.230        60
26.240        47
26.250        47
26.260        27
26.270        47
26.280        47
26.290        27
26.300        20
26.310        33
26.320        53
26.330        53
26.340        27
26.350        27
26.360        33
26.370        47
26.380         7
26.390        60
26.400        40
26.410        47
26.420        53
26.430        27
26.440         0
26.450        47
26.460        53
26.470        27
26.480        20
26.490        47
26.500        13
26.510        20
26.520        13
26.530        33
26.540        27
26.550        27
26.560        53
26.570        60
26.580        40
26.590        47
26.600        27
26.610        53
26.620         7
26.630        40
26.640        40
26.650        73
26.660        53
26.670        53
26.680        87
26.690        33
26.700        27
26.710        53
26.720        33
26.730        67
26.740        40
26.750        27
26.760        33
26.770         7
26.780        33
26.790        40
26.800         7
26.810        47
26.820        27
26.830        27
26.840        60
26.850        20
26.860        40
26.870        20
26.880        40
26.890        47
26.900        60
26.910        27
26.920        33
26.930        33
26.940        40
26.950        33
26.960        20
26.970        20
26.980        33
26.990        40
27.000        20
27.010        40
27.020        53
27.030        33
27.040        27
27.050        27
27.060        33
27.070        27
27.080        13
27.090        40
27.100        33
27.110        33
27.120        20
27.130        47
27.140        27
27.150        40
27.160        47
27.170        20
27.180        33
27.190        27
27.200        47
27.210        33
27.220        60
27.230        27
27.240        13
27.250        27
27.260        33
27.270        33
27.280        67
27.290        20
27.300        33
27.310        13
27.320        40
27.330        27
27.340        40
27.350        13
27.360        40
27.370         7
27.380        20
27.390        33
27.400        53
27.410        20
27.420        20
27.430        13
27.440        20
27.450        20
27.460        33
27.470        73
27.480        27
27.490        53
27.500        27
27.510        47
27.520        33
27.530        47
27.540        67
27.550        33
27.560        53
27.570        53
27.580        60
27.590        53
27.600        67
27.610        67
27.620        33
27.630        40
27.640        40
27.650        33
27.660        40
27.670        33
27.680        27
27.690        53
27.700        40
27.710        73
27.720        20
27.730        80
27.740        47
27.750        67
27.760        40
27.770        27
27.780        27
27.790        40
27.800        13
27.810        47
27.820        27
27.830        53
27.840        47
27.850        47
27.860        67
27.870        47
27.880        33
27.890        80
27.900        47
27.910        60
27.920        33
27.930        47
27.940        33
27.950       100
27.960        27
27.970        60
27.980        80
27.990        40
28.000        73
28.010        60
28.020        60
28.030       120
28.040        73
28.050        73
28.060       100
28.070        87
28.080       100
28.090        87
28.100        87
28.110       107
28.120       100
28.130        93
28.140       153
28.150       107
28.160       160
28.170       107
28.180       127
28.190       153
28.200        87
28.210       193
28.220       193
28.230        93
28.240       173
28.250       147
28.260       193
28.270       120
28.280       147
28.290       193
28.300       160
28.310       140
28.320       180
28.330       120
28.340       140
28.350        87
28.360       133
28.370       160
28.380        87
28.390       127
28.400        93
28.410        67
28.420        87
28.430       107
28.440        47
28.450        67
28.460        53
28.470        87
28.480        60
28.490        20
28.500        47
28.510        73
28.520        73
28.530        40
28.540        40
28.550        60
28.560        20
28.570        47
28.580        20
28.590        53
28.600        27
28.610        53
28.620        40
28.630        27
28.640        40
28.650        53
28.660        53
28.670        47
28.680        33
28.690        40
28.700        47
28.710        47
28.720        47
28.730        47
28.740        53
28.750        33
28.760        67
28.770        40
28.780        13
28.790        27
28.800        60
28.810        73
28.820        40
28.830        67
28.840        40
28.850        40
28.860        73
28.870        53
28.880        53
28.890        60
28.900        87
28.910        87
28.920        87
28.930        60
28.940        60
28.950        80
28.960        87
28.970        80
28.980        80
28.990        60
29.000        67
29.010        80
29.020        73
29.030       107
29.040        60
29.050        80
29.060        80
29.070        60
29.080        60
29.090        60
29.100        33
29.110        93
29.120       127
29.130        73
29.140        47
29.150        33
29.160        53
29.170        87
29.180        47
29.190        27
29.200        33
29.210        40
29.220        80
29.230        47
29.240        40
29.250        27
29.260        27
29.270        67
29.280        67
29.290        20
29.300        80
29.310        73
29.320        13
29.330        20
29.340        80
29.350        33
29.360        67
29.370        40
29.380        33
29.390        47
29.400        40
29.410       107
29.420        40
29.430        80
29.440        73
29.450        80
29.460        60
29.470        87
29.480        73
29.490        53
29.500        67
29.510        67
29.520        80
29.530       100
29.540       100
29.550       107
29.560       120
29.570       100
29.580        60
29.590        53
29.600        73
29.610        60
29.620       100
29.630        87
29.640        80
29.650        53
29.660       113
29.670        40
29.680        73
29.690        60
29.700        60
29.710        87
29.720        27
29.730        47
29.740        53
29.750        60
29.760        33
29.770        40
29.780        60
29.790        47
29.800        40
29.810        20
29.820        53
29.830        33
29.840        20
29.850        40
29.860         7
29.870        47
29.880        60
29.890        47
29.900        27
29.910        60
29.920        47
29.930        13
29.940        53
29.950        20
29.960        47
29.970        47
29.980        53
29.990        73
30.000        53
30.010        13
30.020        40
30.030        27
30.040        20
30.050        40
30.060        20
30.070        40
30.080        27
30.090        60
30.100        60
30.110        53
30.120        33
30.130        47
30.140        47
30.150        33
30.160        33
30.170        40
30.180        27
30.190        20
30.200        47
30.210        40
30.220        67
30.230        80
30.240        87
30.250        80
30.260       113
30.270       113
30.280        67
30.290       153
30.300       127
30.310       133
30.320       180
30.330       133
30.340       133
30.350       193
30.360       153
30.370       247
30.380       133
30.390       187
30.400       153
30.410       173
30.420       160
30.430       160
30.440       107
30.450       167
30.460       127
30.470        73
30.480        93
30.490        87
30.500        53
30.510        93
30.520        93
30.530        60
30.540        33
30.550        93
30.560        27
30.570        20
30.580        27
30.590        40
30.600        27
30.610        53
30.620        33
30.630        20
30.640        53
30.650        33
30.660        40
30.670        27
30.680         7
30.690        27
30.700        27
30.710        27
30.720        40
30.730        47
30.740        60
30.750        67
30.760         0
30.770        40
30.780        33
30.790        33
30.800        40
30.810        27
30.820        53
30.830        13
30.840        27
30.850        13
30.860        33
30.870        27
30.880        47
30.890         7
30.900         7
30.910        20
30.920        47
30.930        27
30.940        53
30.950        33
30.960         7
30.970        13
30.980        33
30.990        33
31.000        13
31.010        13
31.020        40
31.030        33
31.040        27
31.050        27
31.060        60
31.070        20
31.080        60
31.090         7
31.100        20
31.110        47
31.120        27
31.130        40
31.140        13
31.150        27
31.160        13
31.170        33
31.180         7
31.190        27
31.200         0
31.210        33
31.220        33
31.230        20
31.240        13
31.250        47
31.260        20
31.270        20
31.280        27
31.290        47
31.300        47
31.310        27
31.320        20
31.330        33
31.340        67
31.350        13
31.360        53
31.370        20
31.380        20
31.390        47
31.400        40
31.410        20
31.420        33
31.430        20
31.440        33
31.450         0
31.460        40
31.470        33
31.480        13
31.490        47
31.500        40
31.510        20
31.520        33
31.530        40
31.540        20
31.550        13
31.560        27
31.570        27
31.580        47
31.590        20
31.600        33
31.610        53
31.620        40
31.630        20
31.640        20
31.650        53
31.660        27
31.670        27
31.680        33
31.690        33
31.700        20
31.710        53
31.720        67
31.730        40
31.740        40
31.750        13
31.760        27
31.770        47
31.780        53
31.790        20
31.800        40
31.810        40
31.820        27
31.830        40
31.840        27
31.850        60
31.860        33
31.870        13
31.880        33
31.890        67
31.900        47
31.910        67
31.920        47
31.930        53
31.940        20
31.950        40
31.960        67
31.970        87
31.980        80
31.990        73
32.000        27
32.010        53
32.020        53
32.030        73
32.040       100
32.050        87
32.060       100
32.070        93
32.080        67
32.090        93
32.100        93
32.110       113
32.120       127
32.130        53
32.140        80
32.150        87
32.160        60
32.170       120
32.180        80
32.190        73
32.200        67
32.210        73
32.220       100
32.230        27
32.240        80
32.250        47
32.260        53
32.270        20
32.280        47
32.290        53
32.300        40
32.310        40
32.320        20
32.330        40
32.340        33
32.350        27
32.360        33
32.370        20
32.380        27
32.390         0
32.400         7
32.410        33
32.420        20
32.430        13
32.440        47
32.450        47
32.460        13
32.470        47
32.480        33
32.490        40
32.500        27
32.510        20
32.520        47
32.530        20
32.540        33
32.550        13
32.560        13
32.570        40
32.580         7
32.590        33
32.600        20
32.610        33
32.620        20
32.630        73
32.640         0
32.650        27
32.660        13
32.670        13
32.680         7
32.690        47
32.700        20
32.710        27
32.720        33
32.730         7
32.740        27
32.750        40
32.760        33
32.770        33
32.780        20
32.790        33
32.800        13
32.810        53
32.820        33
32.830        27
32.840        67
32.850        13
32.860        47
32.870        33
32.880        27
32.890        13
32.900        27
32.910        20
32.920        20
32.930        13
32.940        40
32.950        40
32.960        20
32.970        53
32.980        20
32.990         7
33.000        47
33.010        33
33.020        20
33.030         7
33.040        20
33.050        33
33.060        20
33.070        20
33.080        33
33.090        20
33.100        20
33.110        27
33.120        47
33.130        67
33.140        20
33.150        53
33.160        13
33.170        20
33.180        27
33.190        20
33.200        27
33.210        33
33.220        40
33.230        27
33.240        20
33.250        47
33.260        27
33.270        33
33.280        40
33.290        13
33.300         7
33.310        27
33.320        33
33.330        33
33.340        20
33.350        27
33.360        27
33.370        67
33.380        47
33.390        67
33.400         7
33.410        20
33.420        47
33.430        13
33.440        13
33.450        33
33.460         7
33.470        47
33.480        33
33.490        40
33.500        20
33.510         7
33.520        33
33.530        13
33.540        27
33.550        47
33.560        33
33.570        20
33.580        20
33.590        40
33.600        20
33.610        60
33.620        27
33.630        27
33.640        27
33.650        27
33.660        60
33.670        33
33.680        40
33.690        53
33.700        20
33.710        13
33.720         7
33.730        33
33.740        40
33.750        33
33.760        33
33.770        27
33.780        20
33.790        27
33.800        13
33.810        40
33.820        27
33.830        13
33.840        27
33.850        13
33.860        47
33.870        40
33.880        20
33.890         7
33.900        40
33.910         7
33.920         7
33.930         7
33.940         7
33.950        27
33.960        13
33.970        33
33.980        33
33.990        27
34.000         7
34.010        13
34.020        40
34.030        20
34.040         0
34.050        27
34.060        13
34.070        13
34.080        13
34.090        53
34.100         7
34.110        27
34.120        33
34.130        13
34.140        13
34.150        27
34.160        27
34.170        27
34.180        20
34.190        33
34.200        33
34.210        13
34.220        40
34.230        20
34.240        47
34.250        40
34.260         0
34.270        60
34.280        27
34.290        13
34.300        33
34.310         7
34.320        33
34.330        20
34.340        27
34.350        33
34.360        20
34.370        40
34.380        40
34.390        13
34.400        53
34.410        47
34.420        40
34.430        33
34.440        13
34.450        27
34.460        13
34.470        47
34.480        47
34.490        27
34.500        40
34.510        27
34.520        27
34.530        27
34.540        20
34.550        33
34.560         7
34.570        20
34.580         7
34.590        20
34.600        13
34.610        13
34.620        20
34.630        20
34.640        60
34.650        40
34.660        47
34.670        20
34.680        20
34.690        33
34.700        13
34.710        73
34.720        20
34.730        40
34.740        67
34.750        27
34.760        60
34.770        33
34.780         7
34.790        27
34.800        20
34.810        33
34.820        40
34.830        20
34.840        27
34.850        27
34.860        20
34.870        47
34.880        40
34.890        53
34.900        53
34.910        27
34.920        27
34.930        20
34.940        27
34.950        40
34.960        53
34.970        47
34.980        53
34.990        67
35.000        47
35.010       127
35.020       127
35.030        53
35.040       107
35.050       120
35.060       100
35.070        93
35.080       100
35.090       140
35.100       133
35.110       260
35.120       307
35.130       360
35.140       327
35.150       373
35.160       400
35.170       466
35.180       506
35.190       440
35.200       373
35.210       300
35.220       220
35.230       180
35.240       180
35.250       213
35.260       300
35.270       233
35.280       207
35.290       193
35.300       113
35.310       113
35.320        80
35.330        60
35.340        20
35.350        53
35.360        33
35.370        40
35.380        33
35.390        33
35.400        33
35.410        47
35.420        33
35.430        53
35.440        20
35.450        27
35.460        33
35.470        33
35.480        27
35.490        13
35.500        33
35.510        47
35.520        20
35.530        27
35.540        20
35.550        13
35.560        20
35.570         0
35.580        20
35.590        20
35.600        47
35.610        27
35.620        40
35.630        73
35.640        20
35.650        13
35.660        33
35.670        40
35.680        33
35.690        20
35.700        80
35.710        33
35.720        13
35.730        13
35.740        40
35.750        33
35.760        33
35.770        40
35.780        20
35.790        40
35.800        27
35.810        27
35.820        27
35.830        27
35.840        40
35.850        33
35.860        47
35.870        27
35.880        27
35.890        13
35.900        13
35.910        20
35.920        60
35.930         0
35.940        20
35.950        13
35.960        33
35.970        13
35.980        27
35.990        47
36.000        13
36.010        20
36.020        27
36.030        20
36.040         7
36.050        27
36.060        20
36.070        27
36.080        33
36.090         7
36.100        27
36.110        33
36.120        27
36.130        20
36.140        13
36.150        27
36.160        13
36.170        13
36.180        27
36.190        20
36.200        13
36.210        13
36.220        40
36.230        27
36.240        27
36.250        27
36.260        47
36.270        27
36.280        33
36.290        40
36.300        20
36.310        33
36.320        20
36.330        20
36.340        47
36.350        20
36.360        40
36.370         7
36.380         7
36.390        33
36.400        13
36.410        20
36.420        27
36.430        20
36.440         0
36.450        40
36.460        27
36.470        33
36.480         7
36.490        13
36.500        27
36.510        20
36.520        20
36.530        20
36.540        27
36.550        27
36.560        20
36.570        33
36.580        20
36.590        13
36.600         7
36.610         7
36.620        13
36.630        20
36.640        13
36.650        13
36.660        20
36.670        13
36.680        47
36.690        33
36.700        27
36.710        33
36.720        40
36.730        13
36.740        13
36.750        20
36.760        20
36.770        27
36.780        20
36.790        47
36.800        20
36.810        47
36.820        47
36.830        53
36.840        33
36.850        60
36.860        13
36.870        27
36.880        33
36.890        33
36.900         0
36.910        33
36.920        27
36.930        27
36.940        67
36.950         7
36.960        27
36.970        27
36.980        27
36.990        27
37.000        27
37.010        20
37.020         7
37.030        20
37.040        27
37.050         7
37.060        13
37.070        27
37.080        13
37.090         7
37.100        20
37.110        13
37.120        20
37.130        33
37.140        40
37.150         7
37.160        27
37.170        47
37.180        13
37.190        33
37.200        20
37.210        20
37.220        27
37.230        60
37.240        20
37.250        20
37.260        13
37.270        33
37.280        40
37.290        33
37.300        13
37.310        47
37.320        33
37.330        20
37.340        13
37.350        27
37.360        33
37.370        13
37.380        20
37.390        53
37.400        20
37.410        40
37.420        33
37.430        20
37.440        33
37.450        13
37.460        40
37.470        13
37.480        27
37.490        20
37.500        47
37.510        13
37.520        47
37.530        20
37.540        33
37.550        13
37.560        13
37.570        20
37.580        40
37.590        13
37.600        53
37.610        33
37.620        27
37.630        20
37.640        33
37.650        40
37.660        40
37.670        13
37.680        60
37.690        33
37.700        60
37.710        80
37.720        47
37.730        53
37.740        80
37.750        53
37.760        67
37.770        87
37.780        53
37.790       227
37.800       220
37.810       227
37.820       233
37.830       260
37.840       213
37.850       100
37.860        87
37.870       160
37.880       133
37.890       107
37.900       200
37.910       140
37.920       140
37.930       113
37.940       107
37.950        80
37.960        87
37.970        60
37.980         7
37.990        27
38.000        40
38.010        53
38.020        33
38.030        20
38.040        40
38.050        47
38.060         7
38.070        40
38.080        40
38.090        13
38.100        27
38.110        27
38.120        73
38.130        13
38.140        20
38.150        27
38.160        73
38.170        20
38.180        53
38.190        60
38.200        33
38.210        40
38.220        27
38.230        33
38.240        53
38.250        73
38.260        27
38.270        53
38.280        53
38.290        60
38.300        27
38.310        47
38.320        33
38.330        53
38.340        40
38.350        47
38.360        53
38.370        47
38.380        47
38.390        40
38.400        40
38.410        53
38.420        60
38.430        47
38.440        53
38.450        60
38.460        47
38.470        53
38.480        87
38.490        47
38.500        20
38.510        53
38.520        27
38.530        47
38.540        53
38.550        40
38.560        40
38.570        33
38.580        40
38.590        60
38.600         7
38.610        60
38.620        20
38.630        27
38.640        40
38.650        33
38.660        47
38.670        40
38.680        27
38.690        33
38.700        47
38.710        20
38.720        47
38.730        13
38.740        47
38.750        20
38.760        33
38.770        20
38.780         0
38.790        40
38.800        27
38.810        40
38.820         7
38.830         7
38.840        13
38.850        60
38.860        20
38.870        40
38.880        27
38.890        27
38.900        47
38.910        60
38.920        13
38.930        20
38.940        20
38.950        27
38.960        13
38.970        27
38.980        47
38.990        13
39.000        33
39.010        33
39.020        20
39.030        13
39.040        20
39.050         7
39.060        13
39.070        20
39.080         7
39.090        27
39.100        20
39.110        40
39.120        27
39.130        27
39.140        27
39.150        40
39.160        13
39.170        27
39.180         7
39.190        33
39.200        13
39.210        20
39.220        20
39.230        13
39.240        20
39.250        20
39.260        33
39.270        27
39.280        27
39.290        13
39.300        40
39.310        20
39.320        40
39.330        20
39.340        27
39.350        27
39.360        13
39.370        20
39.380        13
39.390        13
39.400        20
39.410        13
39.420        13
39.430        40
39.440         0
39.450         7
39.460        13
39.470        27
39.480        27
39.490        27
39.500         7
39.510        20
39.520        13
39.530        40
39.540        13
39.550         7
39.560        13
39.570        20
39.580        27
39.590        13
39.600        20
39.610        13
39.620        13
39.630        20
39.640        13
39.650        20
39.660        13
39.670         7
39.680        27
39.690         7
39.700        13
39.710        53
39.720        20
39.730         7
39.740        20
39.750        20
39.760        20
39.770        20
39.780        13
39.790         7
39.800        27
39.810        13
39.820        33
39.830        13
39.840         7
39.850        13
39.860        13
39.870        27
39.880        33
39.890        20
39.900        20
39.910        13
39.920        33
39.930         7
39.940        47
39.950         7
39.960        20
39.970        13
39.980        13
39.990        20
40.000        60
40.010        20
40.020        33
40.030        13
40.040        33
40.050        13
40.060        33
40.070         7
40.080        47
40.090        13
40.100        33
40.110        27
40.120        33
40.130        20
40.140        40
40.150        20
40.160        20
40.170        13
40.180        53
40.190        40
40.200         7
40.210        33
40.220        27
40.230        13
40.240        20
40.250        27
40.260        13
40.270        40
40.280        27
40.290        27
40.300        33
40.310        40
40.320        47
40.330        40
40.340        33
40.350        13
40.360        27
40.370        53
40.380        40
40.390        27
40.400        33
40.410        27
40.420        33
40.430        13
40.440        27
40.450        20
40.460        20
40.470        20
40.480        33
40.490        20
40.500        27
40.510        27
40.520        40
40.530        33
40.540        47
40.550        13
40.560        47
40.570        20
40.580        47
40.590         0
40.600        13
40.610        13
40.620        20
40.630        33
40.640        13
40.650         7
40.660        13
40.670        13
40.680        33
40.690        40
40.700        20
40.710         7
40.720        13
40.730        40
40.740         0
40.750        20
40.760        27
40.770        33
40.780        27
40.790         0
40.800        13
40.810        27
40.820         7
40.830        13
40.840        33
40.850        27
40.860        13
40.870        20
40.880        33
40.890        33
40.900        13
40.910        20
40.920        20
40.930        13
40.940        20
40.950        13
40.960        20
40.970         7
40.980         0
40.990        27
41.000         7
41.010         0
41.020        13
41.030        33
41.040        27
41.050        33
41.060        33
41.070        20
41.080        27
41.090        27
41.100        13
41.110        20
41.120        20
41.130        40
41.140        47
41.150        13
41.160        33
41.170        27
41.180        13
41.190        33
41.200        27
41.210        33
41.220        47
41.230        20
41.240        20
41.250         7
41.260        27
41.270         7
41.280        27
41.290        33
41.300         7
41.310         0
41.320        27
41.330        33
41.340        40
41.350        33
41.360        27
41.370        27
41.380        13
41.390        60
41.400         0
41.410        40
41.420        13
41.430        20
41.440        20
41.450         7
41.460        13
41.470        20
41.480        33
41.490        27
41.500        53
41.510        20
41.520        47
41.530        13
41.540        27
41.550        20
41.560         7
41.570        47
41.580        47
41.590         0
41.600        27
41.610        40
41.620        27
41.630        40
41.640        47
41.650        53
41.660        47
41.670        53
41.680        47
41.690        73
41.700        87
41.710        33
41.720       107
41.730        53
41.740        87
41.750        40
41.760        40
41.770        53
41.780        53
41.790        53
41.800        60
41.810        53
41.820         7
41.830        27
41.840        53
41.850        20
41.860        20
41.870        27
41.880        27
41.890         0
41.900         0
41.910        33
41.920        20
41.930        13
41.940         7
41.950         7
41.960        27
41.970        20
41.980        47
41.990        13
42.000        13
42.010        33
42.020        27
42.030        20
42.040        47
42.050        27
42.060        53
42.070        60
42.080         7
42.090        33
42.100        33
42.110        47
42.120        73
42.130        80
42.140        33
42.150        53
42.160        67
42.170        60
42.180        60
42.190        27
42.200        60
42.210        53
42.220        60
42.230        47
42.240        53
42.250        53
42.260        47
42.270        80
42.280        53
42.290        47
42.300        47
42.310        40
42.320        33
42.330        40
42.340        33
42.350        47
42.360        27
42.370        60
42.380        40
42.390        40
42.400        33
42.410        33
42.420        73
42.430        40
42.440        33
42.450        33
42.460        20
42.470        33
42.480        20
42.490         7
42.500        40
42.510        27
42.520        33
42.530        13
42.540        33
42.550        13
42.560        13
42.570        33
42.580        27
42.590        20
42.600        13
42.610         7
42.620        13
42.630        27
42.640        13
42.650        13
42.660         7
42.670        40
42.680        13
42.690        33
42.700        33
42.710         0
42.720        27
42.730        13
42.740        27
42.750        33
42.760        13
42.770        20
42.780        27
42.790        20
42.800         7
42.810        27
42.820        13
42.830         7
42.840         7
42.850         0
42.860        20
42.870        20
42.880        13
42.890        13
42.900         7
42.910         0
42.920        33
42.930        27
42.940         7
42.950        27
42.960         7
42.970        20
42.980        20
42.990        20
43.000        40
43.010        20
43.020         0
43.030        13
43.040        13
43.050        27
43.060        27
43.070        20
43.080        27
43.090         7
43.100        53
43.110        13
43.120        20
43.130        33
43.140        20
43.150        60
43.160        60
43.170        60
43.180        73
43.190       127
43.200       167
43.210       173
43.220       207
43.230       227
43.240       260
43.250       287
43.260       213
43.270       233
43.280       187
43.290       187
43.300       127
43.310       167
43.320       193
43.330       167
43.340       193
43.350       287
43.360       213
43.370       153
43.380       213
43.390       160
43.400       153
43.410       147
43.420        80
43.430        87
43.440        80
43.450       120
43.460       140
43.470       127
43.480        87
43.490       107
43.500        73
43.510        53
43.520        87
43.530        33
43.540        33
43.550        47
43.560        20
43.570        27
43.580        27
43.590        20
43.600        20
43.610         0
43.620        13
43.630        40
43.640        33
43.650        20
43.660         7
43.670        40
43.680         7
43.690        20
43.700        13
43.710        33
43.720        27
43.730        33
43.740         7
43.750        33
43.760         7
43.770        20
43.780        27
43.790        27
43.800        13
43.810        33
43.820         7
43.830        20
43.840        13
43.850        13
43.860        13
43.870        40
43.880        27
43.890        27
43.900         7
43.910         7
43.920         7
43.930         7
43.940        20
43.950         7
43.960        20
43.970        27
43.980        20
43.990        20
44.000        40
44.010        13
44.020        33
44.030        13
44.040        20
44.050        20
44.060        33
44.070        20
44.080        40
44.090        27
44.100        13
44.110        47
44.120        33
44.130        20
44.140        20
44.150        13
44.160         7
44.170        27
44.180        27
44.190         0
44.200        20
44.210         7
44.220        27
44.230        33
44.240        13
44.250        13
44.260        20
44.270        40
44.280        20
44.290        27
44.300        20
44.310        20
44.320        13
44.330         7
44.340        47
44.350        13
44.360        13
44.370         0
44.380        47
44.390         7
44.400        20
44.410         7
44.420        13
44.430        13
44.440        33
44.450        60
44.460        13
44.470        13
44.480        13
44.490        13
44.500         7
44.510        40
44.520        27
44.530        27
44.540         0
44.550        27
44.560        13
44.570        13
44.580        13
44.590        27
44.600        20
44.610         7
44.620        20
44.630        27
44.640        27
44.650        20
44.660        20
44.670        20
44.680        27
44.690         7
44.700        27
44.710        33
44.720         7
44.730        27
44.740         7
44.750        27
44.760        20
44.770        27
44.780         7
44.790        27
44.800        47
44.810        13
44.820        13
44.830        67
44.840        13
44.850        33
44.860        47
44.870        60
44.880         0
44.890        27
44.900        20
44.910        40
44.920        13
44.930         7
44.940        20
44.950        40
44.960        27
44.970        13
44.980        33
44.990        20
45.000        27
45.010         0
45.020        27
45.030        20
45.040        53
45.050        27
45.060        67
45.070        40
45.080        13
45.090        40
45.100        20
45.110        27
45.120        27
45.130        13
45.140         7
45.150        33
45.160        33
45.170        20
45.180        33
45.190         7
45.200        27
45.210        27
45.220         7
45.230        20
45.240        47
45.250        27
45.260        20
45.270        13
45.280        20
45.290        13
45.300        13
45.310        53
45.320        33
45.330        27
45.340        20
45.350        27
45.360        40
45.370        13
45.380         7
45.390        27
45.400        13
45.410        40
45.420        27
45.430        47
45.440        33
45.450        27
45.460        20
45.470        27
45.480        33
45.490        13
45.500        20
45.510        13
45.520        40
45.530        20
45.540        27
45.550        13
45.560        47
45.570        33
45.580        40
45.590        40
45.600        27
45.610        27
45.620        13
45.630        20
45.640        47
45.650        73
45.660        60
45.670        80
45.680        67
45.690        53
45.700        87
45.710       100
45.720        47
45.730        67
45.740        93
45.750       153
45.760        73
45.770       160
45.780       113
45.790       260
45.800       133
45.810       147
45.820       180
45.830       180
45.840       127
45.850       107
45.860       153
45.870       180
45.880       227
45.890       147
45.900       207
45.910       213
45.920       173
45.930       160
45.940       127
45.950       160
45.960        73
45.970       127
45.980       107
45.990       127
46.000        87
46.010        93
46.020        73
46.030        93
46.040        73
46.050        27
46.060        60
46.070        33
46.080        47
46.090        40
46.100        80
46.110        40
46.120        60
46.130        13
46.140        40
46.150        40
46.160        33
46.170        40
46.180        47
46.190         7
46.200        40
46.210        40
46.220        47
46.230        33
46.240        33
46.250        13
46.260        33
46.270        13
46.280        20
46.290        33
46.300        33
46.310        20
46.320        27
46.330        40
46.340        67
46.350        60
46.360        27
46.370        20
46.380        27
46.390        67
46.400        20
46.410        13
46.420        33
46.430        20
46.440        27
46.450        20
46.460        27
46.470        67
46.480        67
46.490        33
46.500        20
46.510        53
46.520        80
46.530        20
46.540        60
46.550        20
46.560        27
46.570        47
46.580        60
46.590        73
46.600        67
46.610        87
46.620        93
46.630        53
46.640        40
46.650       100
46.660        80
46.670        93
46.680        73
46.690        87
46.700        40
46.710       100
46.720        47
46.730        80
46.740       120
46.750       100
46.760       133
46.770       120
46.780        93
46.790        73
46.800       160
46.810        93
46.820       153
46.830       107
46.840       147
46.850       133
46.860       147
46.870       120
46.880       193
46.890        73
46.900       173
46.910       120
46.920       107
46.930       133
46.940       187
46.950       120
46.960       127
46.970       113
46.980       113
46.990        27
47.000       120
47.010       107
47.020       173
47.030        87
47.040        60
47.050        80
47.060        60
47.070       100
47.080        47
47.090        73
47.100        93
47.110        80
47.120        40
47.130        53
47.140        20
47.150        60
47.160        53
47.170        80
47.180        40
47.190        47
47.200        40
47.210        40
47.220        20
47.230         7
47.240        20
47.250        40
47.260        27
47.270        13
47.280        40
47.290        27
47.300         0
47.310        40
47.320        20
47.330        13
47.340        13
47.350        20
47.360        40
47.370         7
47.380        13
47.390        13
47.400        13
47.410        13
47.420        47
47.430        13
47.440        47
47.450        40
47.460        13
47.470         7
47.480        40
47.490        13
47.500        33
47.510        40
47.520        20
47.530        13
47.540        20
47.550        33
47.560        27
47.570         0
47.580        27
47.590        40
47.600        27
47.610        13
47.620        13
47.630        20
47.640        20
47.650        20
47.660        13
47.670        13
47.680        27
47.690        13
47.700        27
47.710        13
47.720         7
47.730        27
47.740        33
47.750        27
47.760        27
47.770        13
47.780        20
47.790        20
47.800        20
47.810        27
47.820        20
47.830        13
47.840        27
47.850        33
47.860        53
47.870        13
47.880        40
47.890        20
47.900        33
47.910        20
47.920        13
47.930        27
47.940        40
47.950        20
47.960        40
47.970        13
47.980         7
47.990        20
48.000        47
48.010         0
48.020        20
48.030        27
48.040        20
48.050        27
48.060        40
48.070         7
48.080        27
48.090         7
48.100         7
48.110        27
48.120        13
48.130         7
48.140         0
48.150        20
48.160        27
48.170        27
48.180        20
48.190         7
48.200        27
48.210        27
48.220        20
48.230        20
48.240        27
48.250        33
48.260        33
48.270        40
48.280        40
48.290        33
48.300        33
48.310        20
48.320        33
48.330         0
48.340        53
48.350        20
48.360        27
48.370        27
48.380        20
48.390         7
48.400        13
48.410        40
48.420        60
48.430         7
48.440        13
48.450        27
48.460        33
48.470        13
48.480        27
48.490        33
48.500        13
48.510        53
48.520        33
48.530        27
48.540        40
48.550        20
48.560        20
48.570        13
48.580         7
48.590        20
48.600        33
48.610        33
48.620        27
48.630        27
48.640        13
48.650        33
48.660        13
48.670        20
48.680        27
48.690        33
48.700         7
48.710        13
48.720        20
48.730        47
48.740        20
48.750        27
48.760        53
48.770        13
48.780        53
48.790        27
48.800        13
48.810        27
48.820        53
48.830        27
48.840        20
48.850        47
48.860        20
48.870        47
48.880        40
48.890        33
48.900        47
48.910        47
48.920        20
48.930        60
48.940        53
48.950        40
48.960        33
48.970        40
48.980        33
48.990        27
49.000        27
49.010        40
49.020        33
49.030        20
49.040        33
49.050        33
49.060        53
49.070        53
49.080        27
49.090        60
49.100        20
49.110        27
49.120         7
49.130        27
49.140        13
49.150        33
49.160        60
49.170        13
49.180        40
49.190        13
49.200        40
49.210        40
49.220        20
49.230        20
49.240        27
49.250        20
49.260        40
49.270        20
49.280        40
49.290        20
49.300        33
49.310        27
49.320        13
49.330        20
49.340        33
49.350        27
49.360        47
49.370         7
49.380        20
49.390        20
49.400        40
49.410        20
49.420        20
49.430        33
49.440        20
49.450        53
49.460         7
49.470         7
49.480        53
49.490        60
49.500        53
49.510        47
49.520        40
49.530        47
49.540        27
49.550        13
49.560        67
49.570        67
49.580        80
49.590        67
49.600        47
49.610        67
49.620        80
49.630        40
49.640        27
49.650        47
49.660        80
49.670        73
49.680        53
49.690        67
49.700        73
49.710        53
49.720        87
49.730        80
49.740        80
49.750        47
49.760       113
49.770        67
49.780        60
49.790        53
49.800        80
49.810        93
49.820        93
49.830        60
49.840        80
49.850        47
49.860        67
49.870        73
49.880        93
49.890        33
49.900        27
49.910        53
49.920        53
49.930        67
49.940        53
49.950        47
49.960        33
49.970        80
49.980        67
49.990        13
50.000        53
50.010        47
50.020        53
50.030        53
50.040        40
50.050        33
50.060        53
50.070        40
50.080        27
50.090        53
50.100        53
50.110        53
50.120        47
50.130        20
50.140        13
50.150        53
50.160        27
50.170        40
50.180        33
50.190        33
50.200        40
50.210        20
50.220        27
50.230         7
50.240        33
50.250        27
50.260        40
50.270        53
50.280        33
50.290        40
50.300        73
50.310        47
50.320        13
50.330        40
50.340        47
50.350        27
50.360        13
50.370        33
50.380        27
50.390         7
50.400        40
50.410        40
50.420        20
50.430        20
50.440        20
50.450        40
50.460        13
50.470         7
50.480        20
50.490        20
50.500        40
50.510        13
50.520        47
50.530        13
50.540        53
50.550        27
50.560        27
50.570        20
50.580        47
50.590        47
50.600        27
50.610         7
50.620        27
50.630         0
50.640         7
50.650        40
50.660         7
50.670        33
50.680        33
50.690        40
50.700         0
50.710        33
50.720        27
50.730        20
50.740        13
50.750        13
50.760         7
50.770        13
50.780         0
50.790         7
50.800        13
50.810        20
50.820        33
50.830        20
50.840        13
50.850        27
50.860        13
50.870        20
50.880        27
50.890         0
50.900        13
50.910        27
50.920        20
50.930        13
50.940        13
50.950        27
50.960         0
50.970        20
50.980         7
50.990        33
51.000        13
51.010        20
51.020         7
51.030        20
51.040        13
51.050        13
51.060        27
51.070        13
51.080        13
51.090        20
51.100        13
51.110        40
51.120        13
51.130        13
51.140         7
51.150        27
51.160         7
51.170        13
51.180         7
51.190        27
51.200        13
51.210         7
51.220         7
51.230         7
51.240        20
51.250        33
51.260        27
51.270         7
51.280        20
51.290        13
51.300         0
51.310        53
51.320        40
51.330        40
51.340         7
51.350         7
51.360        20
51.370        27
51.380         7
51.390        13
51.400        33
51.410         7
51.420        27
51.430        20
51.440        20
51.450        27
51.460        20
51.470         7
51.480        27
51.490        20
51.500        33
51.510        40
51.520        60
51.530        20
51.540        47
51.550        40
51.560        27
51.570        53
51.580        53
51.590        33
51.600        67
51.610        33
51.620         7
51.630        40
51.640        60
51.650        33
51.660        53
51.670        47
51.680        93
51.690        47
51.700        60
51.710        67
51.720        60
51.730        53
51.740        40
51.750        87
51.760        60
51.770        40
51.780        87
51.790        60
51.800        47
51.810        67
51.820        67
51.830        47
51.840        60
51.850        40
51.860        47
51.870        60
51.880        53
51.890        27
51.900        33
51.910         7
51.920        67
51.930        47
51.940        27
51.950        20
51.960        13
51.970        27
51.980        20
51.990        33
52.000        33
52.010        40
52.020        60
52.030        33
52.040        27
52.050        40
52.060        47
52.070        27
52.080        27
52.090        13
52.100        40
52.110        33
52.120        20
52.130        53
52.140        13
52.150        20
52.160        13
52.170        33
52.180        20
52.190        33
52.200        27
52.210        20
52.220        33
52.230         7
52.240        40
52.250        27
52.260         7
52.270        27
52.280         0
52.290        20
52.300        47
52.310        13
52.320        27
52.330        33
52.340        27
52.350        60
52.360         7
52.370         7
52.380         7
52.390        27
52.400        33
52.410        33
52.420        13
52.430        20
52.440        67
52.450        20
52.460        33
52.470        13
52.480        40
52.490        33
52.500        40
52.510        33
52.520        53
52.530        40
52.540        47
52.550        93
52.560        80
52.570        93
52.580       120
52.590       100
52.600        80
52.610        93
52.620        73
52.630        67
52.640        80
52.650        87
52.660        60
52.670        40
52.680        47
52.690        47
52.700        47
52.710        40
52.720        27
52.730         7
52.740        27
52.750        27
52.760        53
52.770        33
52.780        40
52.790         7
52.800        20
52.810        33
52.820        27
52.830        13
52.840        27
52.850        33
52.860        20
52.870        20
52.880        33
52.890        13
52.900         7
52.910        27
52.920         7
52.930        27
52.940         7
52.950        13
52.960        33
52.970        13
52.980        13
52.990        20
53.000        13
53.010        13
53.020        27
53.030        27
53.040        13
53.050        13
53.060        13
53.070        13
53.080        13
53.090        13
53.100        40
53.110        27
53.120        13
53.130        27
53.140        20
53.150        27
53.160        13
53.170        13
53.180         7
53.190        13
53.200         7
53.210        27
53.220        20
53.230         7
53.240        27
53.250        20
53.260        27
53.270        33
53.280         7
53.290        33
53.300        20
53.310        27
53.320        27
53.330        40
53.340         0
53.350         7
53.360        13
53.370        27
53.380        13
53.390        33
53.400        27
53.410        13
53.420        33
53.430         7
53.440        13
53.450         7
53.460        20
53.470        13
53.480        13
53.490         7
53.500        20
53.510         7
53.520        27
53.530        13
53.540         7
53.550        27
53.560         0
53.570         7
53.580        33
53.590        20
53.600        40
53.610         7
53.620        20
53.630        20
53.640        33
53.650        13
53.660        33
53.670         0
53.680        20
53.690         7
53.700        27
53.710         0
53.720        13
53.730        20
53.740        13
53.750        20
53.760         0
53.770        20
53.780         7
53.790        13
53.800         7
53.810        13
53.820         7
53.830        33
53.840        20
53.850        20
53.860         7
53.870        13
53.880        13
53.890        33
53.900        20
53.910        20
53.920        20
53.930        13
53.940        13
53.950        13
53.960        20
53.970        20
53.980        20
53.990        27
54.000         0
54.010        13
54.020        13
54.030         7
54.040        13
54.050        27
54.060        20
54.070         7
54.080        13
54.090        13
54.100         0
54.110         7
54.120         7
54.130        13
54.140         7
54.150         7
54.160        20
54.170        27
54.180         7
54.190         7
54.200         7
54.210        13
54.220         0
54.230        27
54.240        13
54.250        33
54.260        27
54.270        27
54.280        33
54.290         0
54.300        40
54.310         7
54.320        33
54.330        20
54.340        20
54.350         7
54.360         7
54.370         0
54.380         7
54.390        13
54.400        13
54.410        13
54.420        20
54.430        20
54.440        20
54.450         7
54.460         0
54.470        13
54.480        20
54.490        13
54.500        27
54.510         7
54.520        20
54.530         7
54.540         7
54.550         7
54.560        13
54.570        13
54.580        20
54.590         0
54.600        13
54.610        13
54.620        13
54.630        20
54.640        27
54.650        20
54.660        20
54.670        20
54.680         0
54.690         7
54.700        27
54.710         7
54.720         7
54.730        33
54.740        40
54.750        13
54.760         7
54.770        20
54.780        20
54.790        27
54.800         0
54.810        13
54.820        27
54.830         0
54.840        27
54.850         0
54.860        27
54.870        27
54.880         0
54.890         7
54.900        27
54.910        20
54.920        13
54.930        20
54.940        20
54.950         7
54.960        27
54.970         7
54.980        27
54.990        13
55.000        27
55.010         0
55.020        20
55.030        20
55.040        20
55.050        13
55.060        27
55.070        27
55.080         0
55.090         7
55.100        40
55.110         7
55.120        13
55.130         7
55.140        20
55.150        20
55.160        13
55.170        20
55.180        33
55.190        20
55.200        27
55.210        13
55.220        13
55.230        13
55.240         7
55.250         7
55.260         0
55.270        27
55.280        27
55.290        13
55.300        13
55.310        27
55.320         7
55.330        13
55.340         7
55.350        20
55.360         0
55.370        13
55.380         7
55.390         7
55.400         7
55.410        20
55.420        20
55.430        27
55.440        13
55.450        20
55.460        20
55.470        33
55.480        13
55.490         7
55.500        27
55.510         7
55.520        33
55.530        20
55.540        33
55.550         7
55.560         0
55.570        20
55.580        27
55.590        27
55.600        27
55.610        27
55.620        13
55.630        27
55.640        13
55.650         7
55.660        47
55.670        67
55.680        13
55.690        13
55.700        20
55.710        13
55.720        40
55.730        13
55.740        20
55.750        33
55.760        40
55.770        27
55.780        33
55.790        33
55.800        60
55.810        20
55.820        27
55.830        13
55.840        60
55.850        40
55.860        33
55.870        20
55.880        40
55.890        27
55.900        13
55.910        53
55.920        40
55.930        33
55.940        27
55.950        33
55.960        13
55.970        40
55.980         7
55.990        13
56.000         7
56.010         7
56.020        40
56.030        40
56.040        27
56.050        33
56.060        20
56.070        27
56.080        53
56.090        53
56.100        47
56.110        33
56.120        53
56.130        33
56.140        33
56.150        27
56.160        40
56.170        13
56.180        20
56.190        13
56.200        20
56.210         7
56.220        47
56.230        47
56.240        33
56.250        33
56.260        13
56.270        27
56.280        33
56.290        27
56.300        80
56.310        47
56.320        33
56.330        20
56.340        20
56.350        47
56.360        27
56.370        53
56.380        13
56.390        13
56.400        20
56.410        33
56.420        27
56.430        20
56.440        67
56.450        20
56.460        27
56.470        20
56.480        73
56.490         7
56.500         7
56.510        60
56.520        27
56.530        20
56.540        20
56.550        20
56.560        27
56.570         7
56.580        13
56.590        27
56.600        13
56.610        47
56.620        13
56.630        13
56.640        13
56.650         0
56.660        33
56.670        27
56.680         7
56.690        13
56.700        33
56.710        27
56.720         0
56.730        13
56.740        33
56.750        33
56.760         7
56.770        13
56.780        40
56.790         7
56.800         7
56.810        13
56.820        20
56.830        20
56.840        13
56.850         7
56.860        20
56.870        20
56.880        13
56.890         0
56.900        27
56.910        27
56.920         0
56.930        27
56.940         7
56.950        13
56.960        13
56.970        13
56.980         7
56.990        27
57.000        13
57.010        27
57.020        20
57.030        13
57.040        33
57.050        13
57.060        53
57.070        27
57.080        20
57.090        33
57.100        13
57.110        13
57.120        27
57.130        13
57.140        20
57.150        20
57.160        33
57.170         7
57.180        13
57.190        27
57.200        20
57.210         7
57.220        27
57.230        13
57.240        20
57.250        53
57.260        47
57.270        20
57.280        47
57.290        67
57.300        53
57.310        13
57.320        53
57.330        60
57.340        47
57.350        73
57.360        13
57.370        87
57.380        73
57.390        67
57.400        53
57.410        67
57.420        53
57.430       100
57.440        80
57.450        87
57.460       133
57.470       140
57.480       200
57.490       187
57.500       180
57.510       300
57.520       247
57.530       340
57.540       293
57.550       180
57.560       227
57.570       160
57.580       153
57.590       120
57.600       133
57.610        80
57.620        80
57.630       113
57.640        73
57.650       147
57.660       127
57.670       160
57.680       133
57.690       113
57.700       127
57.710       113
57.720        93
57.730       113
57.740        87
57.750        87
57.760        60
57.770        33
57.780        20
57.790        20
57.800        20
57.810        27
57.820        27
57.830        27
57.840        60
57.850        13
57.860        27
57.870         7
57.880        20
57.890        27
57.900        20
57.910        33
57.920        33
57.930        20
57.940        33
57.950        13
57.960        13
57.970        40
57.980        27
57.990        47
58.000        47
58.010        33
58.020         7
58.030        20
58.040        47
58.050        33
58.060        13
58.070        33
58.080        33
58.090        47
58.100        20
58.110        13
58.120        53
58.130        40
58.140        40
58.150        27
58.160        27
58.170        20
58.180        27
58.190        20
58.200        13
58.210        20
58.220        27
58.230        47
58.240        20
58.250        20
58.260         7
58.270        13
58.280        47
58.290        40
58.300        40
58.310        40
58.320        13
58.330        27
58.340        33
58.350        20
58.360        33
58.370        27
58.380        33
58.390        20
58.400        20
58.410        20
58.420        33
58.430        40
58.440        20
58.450        47
58.460        13
58.470         7
58.480        13
58.490        47
58.500         7
58.510        20
58.520        13
58.530        13
58.540        13
58.550        27
58.560        20
58.570        53
58.580         0
58.590        27
58.600         0
58.610        20
58.620         7
58.630         0
58.640        27
58.650         7
58.660        20
58.670        20
58.680        20
58.690         0
58.700        13
58.710         7
58.720         7
58.730        13
58.740        13
58.750         7
58.760        20
58.770        13
58.780         0
58.790         7
58.800        13
58.810         7
58.820         0
58.830         0
58.840         7
58.850        13
58.860        40
58.870        20
58.880         7
58.890         0
58.900         7
58.910        27
58.920        20
58.930        13
58.940        20
58.950        20
58.960         7
58.970        13
58.980         7
58.990        33
59.000         7
59.010        27
59.020        27
59.030         0
59.040         7
59.050        13
59.060        20
59.070         0
59.080        27
59.090         7
59.100        13
59.110        13
59.120        27
59.130        13
59.140        27
59.150         7
59.160        27
59.170        20
59.180        13
59.190        13
59.200        13
59.210        13
59.220        13
59.230        13
59.240         7
59.250        20
59.260        20
59.270         0
59.280        27
59.290         7
59.300        13
59.310        13
59.320         7
59.330        20
59.340        33
59.350        20
59.360        20
59.370         7
59.380        27
59.390        20
59.400        13
59.410        27
59.420         7
59.430         7
59.440         7
59.450        13
59.460         0
59.470        27
59.480         0
59.490        13
59.500        20
59.510         7
59.520        20
59.530        13
59.540        40
59.550         0
59.560        13
59.570        27
59.580        20
59.590         7
59.600        20
59.610        47
59.620         7
59.630        27
59.640        13
59.650        13
59.660        27
59.670         7
59.680        27
59.690        13
59.700        13
59.710         0
59.720        27
59.730        20
59.740        33
59.750        27
59.760        40
59.770         0
59.780        20
59.790        33
59.800         7
59.810        20
59.820        20
59.830        13
59.840        13
59.850         7
59.860         7
59.870         7
59.880        27
59.890         7
59.900        20
59.910        20
59.920         0
59.930        47
59.940        13
59.950         0
59.960         0
59.970        27
59.980        13
59.990        27
60.000         7
