20.000         7
20.010         7
20.020         0
20.030         0
20.040        60
20.050        27
20.060        40
20.070        53
20.080        40
20.090        53
20.100        40
20.110        47
20.120        47
20.130        40
20.140        53
20.150        80
20.160        33
20.170        40
20.180        53
20.190        60
20.200        53
20.210        87
20.220        47
20.230        53
20.240        33
20.250        73
20.260        40
20.270        53
20.280        67
20.290        80
20.300        47
20.310        47
20.320        27
20.330        67
20.340        47
20.350        33
20.360        87
20.370         7
20.380        27
20.390        53
20.400         0
20.410        60
20.420        47
20.430        27
20.440        60
20.450        60
20.460        40
20.470        33
20.480        33
20.490        27
20.500        67
20.510        40
20.520        47
20.530        60
20.540        60
20.550        47
20.560        33
20.570        60
20.580        13
20.590        60
20.600        67
20.610        40
20.620        53
20.630        67
20.640        53
20.650        53
20.660        40
20.670        87
20.680        87
20.690        60
20.700        40
20.710        27
20.720        53
20.730        67
20.740        93
20.750        53
20.760        53
20.770        60
20.780        40
20.790        47
20.800        53
20.810        60
20.820        53
20.830        33
20.840        20
20.850        87
20.860        47
20.870        87
20.880        13
20.890        47
20.900        40
20.910        27
20.920        27
20.930        20
20.940        53
20.950        47
20.960        80
20.970        47
20.980        20
20.990        67
21.000        60
21.010        60
21.020        53
21.030        47
21.040        60
21.050        47
21.060        60
21.070        60
21.080        47
21.090        53
21.100        80
21.110        73
21.120        20
21.130        73
21.140        60
21.150        20
21.160        73
21.170        60
21.180        60
21.190        53
21.200       100
21.210        27
21.220        27
21.230        47
21.240        40
21.250        27
21.260        80
21.270        33
21.280        47
21.290        73
21.300        60
21.310        67
21.320        73
21.330        33
21.340        60
21.350        40
21.360        40
21.370        47
21.380        47
21.390        67
21.400        27
21.410         7
21.420        27
21.430        73
21.440        40
21.450        40
21.460        40
21.470        40
21.480        13
21.490        67
21.500        47
21.510        53
21.520        40
21.530        73
21.540        13
21.550        47
21.560        47
21.570        67
21.580        27
21.590        33
21.600        20
21.610        73
21.620        53
21.630        60
21.640        47
21.650        47
21.660        40
21.670        60
21.680        80
21.690       127
21.700        20
21.710        47
21.720        33
21.730        53
21.740        60
21.750        53
21.760        47
21.770        47
21.780        33
21.790        60
21.800        47
21.810        80
21.820        80
21.830        80
21.840        87
21.850        53
21.860        73
21.870        40
21.880        33
21.890        33
21.900        53
21.910        93
21.920        53
21.930        53
21.940        40
21.950        67
21.960        53
21.970        87
21.980       107
21.990        80
22.000        80
22.010        47
22.020        67
22.030       113
22.040        73
22.050        93
22.060        67
22.070        93
22.080       133
22.090       113
22.100        80
22.110        80
22.120       147
22.130       200
22.140       133
22.150       213
22.160       153
22.170       253
22.180       280
22.190       340
22.200       213
22.210       360
22.220       373
22.230       347
22.240       446
22.250       493
22.260       460
22.270       420
22.280       493
22.290       506
22.300       673
22.310       733
22.320       773
22.330      1026
22.340       906
22.350      1140
22.360      1173
22.370      1333
22.380      1433
22.390      1679
22.400      1873
22.410      2212
22.420      2279
22.430      2592
22.440      2512
22.450      2806
22.460      2626
22.470      2599
22.480      2512
22.490      2246
22.500      2286
22.510      1899
22.520      1559
22.530      1459
22.540      1233
22.550       966
22.560       906
22.570       713
22.580       453
22.590       433
22.600       360
22.610       280
22.620       220
22.630       300
22.640       273
22.650       240
22.660       307
22.670       180
22.680       300
22.690       213
22.700       287
22.710       220
22.720       327
22.730       320
22.740       313
22.750       267
22.760       353
22.770       466
22.780       446
22.790       500
22.800       460
22.810       633
22.820       633
22.830       666
22.840       706
22.850       673
22.860       760
22.870       666
22.880       900
22.890       740
22.900       793
22.910       860
22.920       746
22.930       793
22.940       706
22.950       813
22.960       553
22.970       640
22.980       526
22.990       546
23.000       380
23.010       387
23.020       347
23.030       313
23.040       227
23.050       353
23.060       227
23.070       167
23.080       173
23.090       120
23.100       140
23.110        87
23.120        73
23.130       113
23.140        93
23.150        87
23.160       113
23.170        73
23.180       187
23.190       100
23.200        60
23.210       100
23.220        73
23.230        53
23.240        67
23.250        80
23.260        47
23.270         7
23.280        27
23.290        60
23.300        67
23.310        53
23.320        60
23.330        53
23.340        87
23.350        60
23.360        53
23.370        73
23.380        53
23.390        87
23.400        60
23.410       107
23.420       100
23.430        80
23.440        60
23.450       100
23.460        53
23.470        27
23.480        40
23.490        80
23.500        67
23.510        73
23.520       100
23.530        67
23.540        73
23.550        93
23.560       120
23.570        80
23.580        67
23.590        87
23.600        93
23.610        67
23.620       100
23.630        47
23.640        67
23.650        93
23.660        60
23.670        67
23.680        67
23.690        53
23.700        53
23.710        73
23.720       113
23.730        67
23.740        53
23.750        80
23.760        40
23.770        87
23.780        73
23.790        73
23.800        73
23.810        53
23.820        60
23.830        73
23.840        27
23.850        33
23.860        67
23.870        13
23.880        87
23.890        53
23.900        20
23.910        40
23.920        33
23.930        53
23.940        60
23.950        73
23.960        73
23.970        53
23.980        80
23.990       107
24.000        47
24.010        60
24.020        13
24.030        47
24.040        87
24.050        60
24.060        80
24.070        27
24.080        67
24.090        27
24.100        80
24.110        47
24.120        53
24.130        60
24.140        53
24.150        40
24.160        47
24.170        53
24.180        73
24.190        33
24.200        80
24.210        13
24.220        80
24.230        60
24.240        33
24.250        40
24.260        60
24.270        80
24.280        73
24.290        80
24.300        80
24.310        93
24.320        33
24.330        47
24.340        80
24.350        40
24.360        47
24.370         7
24.380        47
24.390        33
24.400        80
24.410        53
24.420        40
24.430        33
24.440        60
24.450        60
24.460        53
24.470        20
24.480        33
24.490        73
24.500        60
24.510        87
24.520        47
24.530        67
24.540        87
24.550        47
24.560        40
24.570        60
24.580        73
24.590        47
24.600        60
24.610        53
24.620        80
24.630        67
24.640        53
24.650       113
24.660        60
24.670        73
24.680        87
24.690        67
24.700        53
24.710        53
24.720        40
24.730        13
24.740        53
24.750        20
24.760        40
24.770        47
24.780        33
24.790        60
24.800        60
24.810        40
24.820        53
24.830        60
24.840        60
24.850        27
24.860        27
24.870        80
24.880        47
24.890        40
24.900        53
24.910        87
24.920        80
24.930        60
24.940        60
24.950        67
24.960        33
24.970        60
24.980        53
24.990        87
25.000        80
25.010        80
25.020        53
25.030        33
25.040        40
25.050        27
25.060        67
25.070        67
25.080        60
25.090        60
25.100        67
25.110        33
25.120        53
25.130        20
25.140        60
25.150       100
25.160        33
25.170        60
25.180        67
25.190        73
25.200        53
25.210        53
25.220        53
25.230        67
25.240        40
25.250        40
25.260        33
25.270        53
25.280        40
25.290        67
25.300        27
25.310        67
25.320        47
25.330        53
25.340        53
25.350        67
25.360        60
25.370       113
25.380       113
25.390       107
25.400       120
25.410       120
25.420        67
25.430        60
25.440        67
25.450       120
25.460       107
25.470        40
25.480        53
25.490        80
25.500        67
25.510        53
25.520        73
25.530       100
25.540       180
25.550       193
25.560       213
25.570       200
25.580       180
25.590       220
25.600       193
25.610       120
25.620       260
25.630       167
25.640       120
25.650       167
25.660       133
25.670        93
25.680        53
25.690        80
25.700       107
25.710        47
25.720        60
25.730        27
25.740        60
25.750        80
25.760        40
25.770        67
25.780        47
25.790        40
25.800        67
25.810        27
25.820        13
25.830        80
25.840        27
25.850        33
25.860        47
25.870        60
25.880        47
25.890        47
25.900        40
25.910        67
25.920        73
25.930        60
25.940        60
25.950        40
25.960        47
25.970        53
25.980        13
25.990        40
26.000        40
26.010        20
26.020        67
26.030        20
26.040        33
26.050        60
26.060        47
26.070        47
26.080        33
26.090        40
26.100       100
26.110        40
26.120        33
26.130        60
26.140        40
26.150        87
26.160        33
26.170        47
26.180        33
26.190        60
26.200        33
26.210        47
26.220        40
26.230        47
26.240        80
26.250        40
26.260        80
26.270        73
26.280        40
26.290        60
26.300        33
26.310        53
26.320        53
26.330        53
26.340        47
26.350        40
26.360        27
26.370        53
26.380        33
26.390        33
26.400        53
26.410        47
26.420        47
26.430        53
26.440        93
26.450        47
26.460        27
26.470        53
26.480        67
26.490        20
26.500        47
26.510        27
26.520        33
26.530        60
26.540        53
26.550        40
26.560        13
26.570        47
26.580        20
26.590        33
26.600        53
26.610        27
26.620        40
26.630        67
26.640        40
26.650        13
26.660        33
26.670        33
26.680        67
26.690        67
26.700        53
26.710        20
26.720        53
26.730        33
26.740        40
26.750        47
26.760        27
26.770        73
26.780        33
26.790        40
26.800        40
26.810        33
26.820        33
26.830        40
26.840        40
26.850        53
26.860         7
26.870        20
26.880        47
26.890        67
26.900        47
26.910        67
26.920        33
26.930        53
26.940        93
26.950        80
26.960        60
26.970        47
26.980        53
26.990        13
27.000        33
27.010        13
27.020        53
27.030        60
27.040        80
27.050        33
27.060        40
27.070        13
27.080        33
27.090        53
27.100        73
27.110        53
27.120        33
27.130        40
27.140        60
27.150        33
27.160        53
27.170        73
27.180        27
27.190        20
27.200        53
27.210        40
27.220        33
27.230        67
27.240        33
27.250        33
27.260        53
27.270        47
27.280        60
27.290        33
27.300        33
27.310        47
27.320        53
27.330        40
27.340        47
27.350        27
27.360        33
27.370        53
27.380        53
27.390        33
27.400        60
27.410        33
27.420        67
27.430        20
27.440        60
27.450        40
27.460        40
27.470        33
27.480        53
27.490        60
27.500        53
27.510        40
27.520        33
27.530        33
27.540        40
27.550        60
27.560        80
27.570        47
27.580        53
27.590        80
27.600        67
27.610        47
27.620        73
27.630        40
27.640        80
27.650        33
27.660        40
27.670        60
27.680        27
27.690        40
27.700        27
27.710        27
27.720        27
27.730        67
27.740        47
27.750        47
27.760        20
27.770        47
27.780        73
27.790        47
27.800        67
27.810        60
27.820        80
27.830        80
27.840        33
27.850        33
27.860        53
27.870        53
27.880       100
27.890        67
27.900        87
27.910        67
27.920       100
27.930        60
27.940        47
27.950        80
27.960        60
27.970        67
27.980        73
27.990        33
28.000       107
28.010       133
28.020       113
28.030        73
28.040       107
28.050       120
28.060       153
28.070       140
28.080       113
28.090       187
28.100       140
28.110       153
28.120       133
28.130       153
28.140       193
28.150       120
28.160       187
28.170       187
28.180       207
28.190       193
28.200       153
28.210       213
28.220       187
28.230       153
28.240       140
28.250       187
28.260       213
28.270       213
28.280       113
28.290       187
28.300       140
28.310       187
28.320       180
28.330       160
28.340       173
28.350       120
28.360       133
28.370       133
28.380       127
28.390       113
28.400       113
28.410        53
28.420       107
28.430        47
28.440        67
28.450        93
28.460        40
28.470        87
28.480        53
28.490        67
28.500        47
28.510        13
28.520        40
28.530        20
28.540        47
28.550        47
28.560        47
28.570        53
28.580        27
28.590        40
28.600        47
28.610        33
28.620        67
28.630        40
28.640        73
28.650        40
28.660        60
28.670       120
28.680        73
28.690        53
28.700       100
28.710       113
28.720        73
28.730        67
28.740        87
28.750        80
28.760        53
28.770       107
28.780       113
28.790       113
28.800        73
28.810       140
28.820       140
28.830       120
28.840       180
28.850       193
28.860       193
28.870       233
28.880       227
28.890       280
28.900       200
28.910       267
28.920       253
28.930       267
28.940       333
28.950       273
28.960       220
28.970       173
28.980       280
28.990       260
29.000       253
29.010       253
29.020       240
29.030       287
29.040       233
29.050       247
29.060       233
29.070       193
29.080       187
29.090       233
29.100       120
29.110       107
29.120       200
29.130       153
29.140        93
29.150       120
29.160       113
29.170       140
29.180        33
29.190        47
29.200        87
29.210        80
29.220        53
29.230        73
29.240        93
29.250        80
29.260        47
29.270        33
29.280        60
29.290        73
29.300        60
29.310        67
29.320        27
29.330        67
29.340        53
29.350        60
29.360        73
29.370        47
29.380        47
29.390        47
29.400        27
29.410        47
29.420        40
29.430        40
29.440        40
29.450        27
29.460        20
29.470        40
29.480        27
29.490        47
29.500        60
29.510         0
29.520        40
29.530        40
29.540        27
29.550        53
29.560        40
29.570        67
29.580        47
29.590        60
29.600        67
29.610        53
29.620        33
29.630        27
29.640        53
29.650        60
29.660        20
29.670        47
29.680        60
29.690        47
29.700        33
29.710        60
29.720        53
29.730        33
29.740        67
29.750        73
29.760        53
29.770        40
29.780        67
29.790        20
29.800        40
29.810        53
29.820        40
29.830        33
29.840        47
29.850        20
29.860        40
29.870        60
29.880        60
29.890        27
29.900        27
29.910        33
29.920        33
29.930        33
29.940        47
29.950        40
29.960        13
29.970        33
29.980        53
29.990        27
30.000        20
30.010         7
30.020        40
30.030        47
30.040        20
30.050        20
30.060         7
30.070        27
30.080        20
30.090        40
30.100        27
30.110        33
30.120        60
30.130        60
30.140        60
30.150         7
30.160        40
30.170        60
30.180        27
30.190        60
30.200        53
30.210        40
30.220        27
30.230        47
30.240        40
30.250        53
30.260        40
30.270        53
30.280        40
30.290        47
30.300        27
30.310        67
30.320        53
30.330        27
30.340        27
30.350        40
30.360        33
30.370        67
30.380        27
30.390        13
30.400        47
30.410        27
30.420        40
30.430        47
30.440        27
30.450        33
30.460        53
30.470        40
30.480        40
30.490        33
30.500        20
30.510        27
30.520        33
30.530        40
30.540        20
30.550        27
30.560        33
30.570        53
30.580        40
30.590        67
30.600        47
30.610        33
30.620        27
30.630        33
30.640        47
30.650        20
30.660        53
30.670        27
30.680        27
30.690        47
30.700        33
30.710        60
30.720        47
30.730        40
30.740        47
30.750        47
30.760        60
30.770        67
30.780        27
30.790        27
30.800        73
30.810        60
30.820        40
30.830        60
30.840        47
30.850        53
30.860        67
30.870        67
30.880        53
30.890        20
30.900        27
30.910        27
30.920        33
30.930        27
30.940        27
30.950        47
30.960        40
30.970        60
30.980        40
30.990        20
31.000        27
31.010        40
31.020        40
31.030        60
31.040        27
31.050        20
31.060        20
31.070        53
31.080        60
31.090        47
31.100        27
31.110        40
31.120        33
31.130        33
31.140        53
31.150        20
31.160        47
31.170        60
31.180        67
31.190        40
31.200        13
31.210        40
31.220        13
31.230        47
31.240        93
31.250        60
31.260        40
31.270        73
31.280        33
31.290        20
31.300        20
31.310        33
31.320        67
31.330        27
31.340        33
31.350        20
31.360        53
31.370        40
31.380        40
31.390        13
31.400        73
31.410        47
31.420        47
31.430        20
31.440        13
31.450        27
31.460        73
31.470        60
31.480        40
31.490        47
31.500        60
31.510        47
31.520        40
31.530        60
31.540        40
31.550        53
31.560        20
31.570        53
31.580        33
31.590        33
31.600        33
31.610        27
31.620        47
31.630        47
31.640        33
31.650        27
31.660        13
31.670        33
31.680        47
31.690        67
31.700        47
31.710        27
31.720        20
31.730        27
31.740        47
31.750        47
31.760        53
31.770        20
31.780        20
31.790        47
31.800        53
31.810        20
31.820         7
31.830        27
31.840        27
31.850        47
31.860        27
31.870        33
31.880        27
31.890        40
31.900         7
31.910        47
31.920        67
31.930        40
31.940        40
31.950        40
31.960        27
31.970        20
31.980        13
31.990        33
32.000        33
32.010        53
32.020        27
32.030         7
32.040        27
32.050        33
32.060        27
32.070        40
32.080        27
32.090         7
32.100        20
32.110        47
32.120        20
32.130        47
32.140        33
32.150        60
32.160        20
32.170        13
32.180        13
32.190        53
32.200         7
32.210        27
32.220        47
32.230        47
32.240        40
32.250        33
32.260        20
32.270        27
32.280        40
32.290        27
32.300        33
32.310        53
32.320        33
32.330        27
32.340        33
32.350        13
32.360        53
32.370        67
32.380        53
32.390        27
32.400        60
32.410        47
32.420        53
32.430        53
32.440        40
32.450        27
32.460        27
32.470        60
32.480        27
32.490        33
32.500        47
32.510        27
32.520        27
32.530        33
32.540        67
32.550        13
32.560        47
32.570        13
32.580        13
32.590        40
32.600        27
32.610        60
32.620        33
32.630        40
32.640        20
32.650        20
32.660         7
32.670        40
32.680        47
32.690        20
32.700        67
32.710        47
32.720        53
32.730        20
32.740        40
32.750        33
32.760        47
32.770        40
32.780        27
32.790        67
32.800        13
32.810        33
32.820        40
32.830        33
32.840        47
32.850        27
32.860        20
32.870        13
32.880        53
32.890        47
32.900        27
32.910        27
32.920        40
32.930        27
32.940        33
32.950        27
32.960        13
32.970        27
32.980        40
32.990        40
33.000        40
33.010        13
33.020        27
33.030        47
33.040        47
33.050        27
33.060        33
33.070        47
33.080        47
33.090        40
33.100        20
33.110        60
33.120        27
33.130        53
33.140        47
33.150        40
33.160        73
33.170        80
33.180        47
33.190        27
33.200        60
33.210        60
33.220        27
33.230        47
33.240        40
33.250        47
33.260        13
33.270        53
33.280        47
33.290        33
33.300        13
33.310        20
33.320        33
33.330        33
33.340        40
33.350        27
33.360        27
33.370        47
33.380        33
33.390        33
33.400        40
33.410        47
33.420        20
33.430        27
33.440        33
33.450        40
33.460        40
33.470         7
33.480        53
33.490        40
33.500        53
33.510        33
33.520        33
33.530        33
33.540        27
33.550        40
33.560        33
33.570        20
33.580        27
33.590        20
33.600        33
33.610        27
33.620        20
33.630        20
33.640        27
33.650        27
33.660        40
33.670        33
33.680        33
33.690        13
33.700        20
33.710        13
33.720        67
33.730        20
33.740        40
33.750        20
33.760        27
33.770        13
33.780        40
33.790        20
33.800        20
33.810        40
33.820        53
33.830        13
33.840        27
33.850        40
33.860        20
33.870        20
33.880        13
33.890        20
33.900         7
33.910        40
33.920        27
33.930        33
33.940        13
33.950        47
33.960        33
33.970        40
33.980        33
33.990        47
34.000        27
34.010        27
34.020        20
34.030        13
34.040        27
34.050        20
34.060        27
34.070        27
34.080        33
34.090        33
34.100        13
34.110        53
34.120        40
34.130        13
34.140        13
34.150        73
34.160         7
34.170         7
34.180        67
34.190        13
34.200        73
34.210        27
34.220        27
34.230        47
34.240        27
34.250        40
34.260        27
34.270        60
34.280        33
34.290        40
34.300        13
34.310        27
34.320        20
34.330        40
34.340        20
34.350        40
34.360        20
34.370        20
34.380        20
34.390        33
34.400        20
34.410        67
34.420        33
34.430         7
34.440        60
34.450        33
34.460        40
34.470        53
34.480        33
34.490        53
34.500        13
34.510        40
34.520        47
34.530        87
34.540        40
34.550        20
34.560        33
34.570        60
34.580        47
34.590        47
34.600        33
34.610        13
34.620        27
34.630        27
34.640        27
34.650        27
34.660        40
34.670        73
34.680        53
34.690        47
34.700        33
34.710         7
34.720        27
34.730        40
34.740        47
34.750        33
34.760        20
34.770        47
34.780        40
34.790        20
34.800        27
34.810        67
34.820        40
34.830        27
34.840        47
34.850        27
34.860        40
34.870        53
34.880         7
34.890        53
34.900        40
34.910        33
34.920        27
34.930        60
34.940        47
34.950        93
34.960        53
34.970        73
34.980       113
34.990        80
35.000       127
35.010       153
35.020       113
35.030       167
35.040       140
35.050       187
35.060       393
35.070       367
35.080       453
35.090       560
35.100       826
35.110       820
35.120       773
35.130       740
35.140       633
35.150       593
35.160       387
35.170       426
35.180       360
35.190       433
35.200       393
35.210       393
35.220       347
35.230       267
35.240       227
35.250       167
35.260       127
35.270       127
35.280        80
35.290        40
35.300        47
35.310        47
35.320        67
35.330        53
35.340        67
35.350        40
35.360        67
35.370        40
35.380        87
35.390        33
35.400        60
35.410        40
35.420        47
35.430        47
35.440        47
35.450        27
35.460        60
35.470        53
35.480        27
35.490        40
35.500        27
35.510        40
35.520        40
35.530        27
35.540        53
35.550        53
35.560        20
35.570        67
35.580        47
35.590        27
35.600        40
35.610        40
35.620        27
35.630        27
35.640        33
35.650        27
35.660        53
35.670        27
35.680        27
35.690         7
35.700        40
35.710        60
35.720        13
35.730        33
35.740        33
35.750        20
35.760        73
35.770        47
35.780        40
35.790        27
35.800        13
35.810        13
35.820        73
35.830        33
35.840        33
35.850        27
35.860        40
35.870        40
35.880        20
35.890        33
35.900        40
35.910        33
35.920        20
35.930        47
35.940        27
35.950        27
35.960        33
35.970        60
35.980        47
35.990        47
36.000        20
36.010        47
36.020        40
36.030        40
36.040        47
36.050        47
36.060        40
36.070        13
36.080        40
36.090        13
36.100        40
36.110        33
36.120        27
36.130        20
36.140        53
36.150        20
36.160        13
36.170        20
36.180        53
36.190        20
36.200        60
36.210        27
36.220        27
36.230        20
36.240        27
36.250        33
36.260         7
36.270        27
36.280         7
36.290        27
36.300        47
36.310        27
36.320        47
36.330        27
36.340        40
36.350         0
36.360        40
36.370        13
36.380        13
36.390        40
36.400        67
36.410        27
36.420        47
36.430        33
36.440        33
36.450        40
36.460        40
36.470        40
36.480        13
36.490        27
36.500        33
36.510        33
36.520        47
36.530        40
36.540        47
36.550        47
36.560        13
36.570        33
36.580        13
36.590        20
36.600        47
36.610        40
36.620        33
36.630        40
36.640        67
36.650        20
36.660        27
36.670        27
36.680        60
36.690        20
36.700        27
36.710        33
36.720         7
36.730        13
36.740        47
36.750        33
36.760        27
36.770        47
36.780        13
36.790        27
36.800        53
36.810        20
36.820        53
36.830        13
36.840        13
36.850        20
36.860        53
36.870        40
36.880        47
36.890        73
36.900        33
36.910        27
36.920        33
36.930        60
36.940        40
36.950        27
36.960        33
36.970        47
36.980        40
36.990        67
37.000        20
37.010         7
37.020        27
37.030        40
37.040        20
37.050        13
37.060        47
37.070        27
37.080        33
37.090        13
37.100        40
37.110         7
37.120        33
37.130        20
37.140        27
37.150        13
37.160        67
37.170        20
37.180        20
37.190        20
37.200        20
37.210        60
37.220        20
37.230        27
37.240        47
37.250        20
37.260        20
37.270        20
37.280        20
37.290         7
37.300         7
37.310        13
37.320         7
37.330        60
37.340        60
37.350        20
37.360        20
37.370        13
37.380        53
37.390        47
37.400        20
37.410        40
37.420        20
37.430        27
37.440        27
37.450        73
37.460        33
37.470        33
37.480        40
37.490        27
37.500        33
37.510        27
37.520        27
37.530         7
37.540        40
37.550        27
37.560        20
37.570        47
37.580        40
37.590        47
37.600        40
37.610        27
37.620        13
37.630        20
37.640        33
37.650        27
37.660        20
37.670        53
37.680        27
37.690        33
37.700        20
37.710        40
37.720        33
37.730        27
37.740        27
37.750        87
37.760       107
37.770        73
37.780       113
37.790       187
37.800        80
37.810        87
37.820       133
37.830        87
37.840        47
37.850        80
37.860        47
37.870        67
37.880        67
37.890        40
37.900        53
37.910       100
37.920        67
37.930        73
37.940        33
37.950        40
37.960        33
37.970        47
37.980        53
37.990        40
38.000        53
38.010        33
38.020        40
38.030        27
38.040        20
38.050        40
38.060        73
38.070        47
38.080        53
38.090        27
38.100        40
38.110        33
38.120         7
38.130        80
38.140        67
38.150        40
38.160        40
38.170        47
38.180        53
38.190        73
38.200        93
38.210        33
38.220        47
38.230        87
38.240        73
38.250        67
38.260        93
38.270        67
38.280        33
38.290        73
38.300        33
38.310        53
38.320        60
38.330        80
38.340        53
38.350        67
38.360        47
38.370        40
38.380        27
38.390        80
38.400        73
38.410        73
38.420        33
38.430        60
38.440        53
38.450        27
38.460        53
38.470        67
38.480        40
38.490        53
38.500        67
38.510        53
38.520        67
38.530        93
38.540        27
38.550        33
38.560        33
38.570        33
38.580        40
38.590        40
38.600        60
38.610        40
38.620        47
38.630        40
38.640        47
38.650        33
38.660        40
38.670        20
38.680        53
38.690        27
38.700        20
38.710        27
38.720        47
38.730        27
38.740        27
38.750        27
38.760        33
38.770        27
38.780        40
38.790        73
38.800        53
38.810        20
38.820        27
38.830         7
38.840        13
38.850        33
38.860        13
38.870        53
38.880        27
38.890        40
38.900        27
38.910        20
38.920        27
38.930        27
38.940        40
38.950        27
38.960        13
38.970        53
38.980        20
38.990        47
39.000        20
39.010         7
39.020        40
39.030        33
39.040        33
39.050        13
39.060         7
39.070        33
39.080        20
39.090        33
39.100        20
39.110        33
39.120         7
39.130        27
39.140        27
39.150        27
39.160        27
39.170        40
39.180        33
39.190        20
39.200        33
39.210        33
39.220        13
39.230        27
39.240        33
39.250        53
39.260        20
39.270        20
39.280        13
39.290        47
39.300        27
39.310        33
39.320        47
39.330        33
39.340        13
39.350        27
39.360        33
39.370        33
39.380        20
39.390        20
39.400        20
39.410        13
39.420        33
39.430        13
39.440        13
39.450        47
39.460        27
39.470        20
39.480         7
39.490        47
39.500        27
39.510        33
39.520        40
39.530        53
39.540         7
39.550        13
39.560        27
39.570        20
39.580        33
39.590        33
39.600        20
39.610        40
39.620        13
39.630        27
39.640         7
39.650        53
39.660        27
39.670        33
39.680        20
39.690        27
39.700        60
39.710        20
39.720        53
39.730        27
39.740        33
39.750        27
39.760        47
39.770         7
39.780        20
39.790        27
39.800         7
39.810        33
39.820         7
39.830         7
39.840        20
39.850        27
39.860        40
39.870        13
39.880        27
39.890        20
39.900        20
39.910        13
39.920        13
39.930        20
39.940        13
39.950         7
39.960        40
39.970        33
39.980        20
39.990         7
40.000         0
40.010        13
40.020         7
40.030        20
40.040        27
40.050        33
40.060        40
40.070        13
40.080        53
40.090        40
40.100        27
40.110        20
40.120        33
40.130        47
40.140        33
40.150        27
40.160        60
40.170        47
40.180        13
40.190        20
40.200        47
40.210        27
40.220        33
40.230        80
40.240        40
40.250        27
40.260        47
40.270        27
40.280        47
40.290        20
40.300        40
40.310        20
40.320        20
40.330        33
40.340        27
40.350        40
40.360        33
40.370        47
40.380        20
40.390        47
40.400        20
40.410         7
40.420        27
40.430        20
40.440        47
40.450        27
40.460        40
40.470         0
40.480        27
40.490        27
40.500        13
40.510        13
40.520        33
40.530        40
40.540        33
40.550        20
40.560        20
40.570        53
40.580        27
40.590        13
40.600        20
40.610        33
40.620         7
40.630        27
40.640        33
40.650        33
40.660         7
40.670         7
40.680         7
40.690        20
40.700        20
40.710        13
40.720        20
40.730        60
40.740        20
40.750        27
40.760         7
40.770        13
40.780        20
40.790        27
40.800        47
40.810         7
40.820        47
40.830        33
40.840         7
40.850         7
40.860        13
40.870        13
40.880        27
40.890        20
40.900        13
40.910        40
40.920        13
40.930        47
40.940        40
40.950        20
40.960        20
40.970        20
40.980        20
40.990        33
41.000        40
41.010        27
41.020         7
41.030        40
41.040        27
41.050        33
41.060        27
41.070        33
41.080        47
41.090        33
41.100        20
41.110        27
41.120        13
41.130        27
41.140        20
41.150        40
41.160        53
41.170        33
41.180        33
41.190        40
41.200        47
41.210        33
41.220        40
41.230        20
41.240        33
41.250        13
41.260        27
41.270        33
41.280        20
41.290        40
41.300        13
41.310         0
41.320        33
41.330        40
41.340        67
41.350         7
41.360        33
41.370        13
41.380        13
41.390        33
41.400        33
41.410        13
41.420        33
41.430        27
41.440        20
41.450        60
41.460        33
41.470        20
41.480        27
41.490        20
41.500        33
41.510        13
41.520        20
41.530        33
41.540        33
41.550        20
41.560        27
41.570        20
41.580        47
41.590         7
41.600        53
41.610         7
41.620        47
41.630        60
41.640        27
41.650        47
41.660        40
41.670        40
41.680        60
41.690        53
41.700        53
41.710        80
41.720        67
41.730        73
41.740        60
41.750        33
41.760        47
41.770        60
41.780        60
41.790        40
41.800        60
41.810        67
41.820        40
41.830        53
41.840        27
41.850        53
41.860        27
41.870        33
41.880        27
41.890        13
41.900        53
41.910        33
41.920        13
41.930        27
41.940        27
41.950        73
41.960        33
41.970        47
41.980        27
41.990        47
42.000        13
42.010         7
42.020        40
42.030        27
42.040        47
42.050        40
42.060        47
42.070        20
42.080        33
42.090        13
42.100        47
42.110        27
42.120        13
42.130        33
42.140        20
42.150        27
42.160        27
42.170        20
42.180        47
42.190        27
42.200         7
42.210        33
42.220        27
42.230        27
42.240        33
42.250        13
42.260        20
42.270        40
42.280        40
42.290        40
42.300        47
42.310        27
42.320        27
42.330        20
42.340        47
42.350         0
42.360        27
42.370         7
42.380        20
42.390        13
42.400        27
42.410        20
42.420        13
42.430        13
42.440        27
42.450        20
42.460        20
42.470        13
42.480        47
42.490         7
42.500        13
42.510        27
42.520        33
42.530        60
42.540        33
42.550        33
42.560        27
42.570        33
42.580        53
42.590        20
42.600        27
42.610        27
42.620        27
42.630        33
42.640        33
42.650        67
42.660        27
42.670        27
42.680        53
42.690        13
42.700         0
42.710        13
42.720        33
42.730        33
42.740        33
42.750         7
42.760        13
42.770        47
42.780        33
42.790        47
42.800        33
42.810        20
42.820        40
42.830        20
42.840        13
42.850        27
42.860        33
42.870        20
42.880        20
42.890        47
42.900        33
42.910        47
42.920        40
42.930         7
42.940        33
42.950        20
42.960        33
42.970        13
42.980        20
42.990        40
43.000         0
43.010        27
43.020        40
43.030        53
43.040        27
43.050         7
43.060        27
43.070        40
43.080        27
43.090        20
43.100        47
43.110        33
43.120        33
43.130        20
43.140        40
43.150        27
43.160        73
43.170        53
43.180        73
43.190        67
43.200        40
43.210        33
43.220        60
43.230        47
43.240        33
43.250        47
43.260        87
43.270        87
43.280       133
43.290       200
43.300       207
43.310       273
43.320       400
43.330       353
43.340       460
43.350       566
43.360       486
43.370       520
43.380       553
43.390       433
43.400       500
43.410       360
43.420       353
43.430       207
43.440       287
43.450       400
43.460       287
43.470       260
43.480       247
43.490       320
43.500       207
43.510       247
43.520       180
43.530       140
43.540        87
43.550        80
43.560        47
43.570        60
43.580        33
43.590        20
43.600        27
43.610        27
43.620        27
43.630        60
43.640        27
43.650        27
43.660        40
43.670        47
43.680         7
43.690        60
43.700        40
43.710        20
43.720        13
43.730        60
43.740        47
43.750        33
43.760        27
43.770        33
43.780        67
43.790        40
43.800         7
43.810        20
43.820        20
43.830        33
43.840        27
43.850        20
43.860        13
43.870        13
43.880        40
43.890        13
43.900        27
43.910        20
43.920        27
43.930        53
43.940        27
43.950        27
43.960        27
43.970        40
43.980        13
43.990        27
44.000        27
44.010        33
44.020        27
44.030        20
44.040        27
44.050        27
44.060        13
44.070         7
44.080         0
44.090        33
44.100        33
44.110        20
44.120        27
44.130        47
44.140        13
44.150        27
44.160        33
44.170        13
44.180        53
44.190        27
44.200        20
44.210        27
44.220        20
44.230        27
44.240        20
44.250        13
44.260        27
44.270        40
44.280        53
44.290        33
44.300        20
44.310         7
44.320        27
44.330        47
44.340        13
44.350        27
44.360        40
44.370        13
44.380        47
44.390         7
44.400        13
44.410        13
44.420        13
44.430        13
44.440         7
44.450        13
44.460        33
44.470        20
44.480        60
44.490        13
44.500        20
44.510        27
44.520        27
44.530        40
44.540        67
44.550        73
44.560        53
44.570        40
44.580        53
44.590        60
44.600        20
44.610        20
44.620        13
44.630         7
44.640        40
44.650        40
44.660        27
44.670        47
44.680        27
44.690        60
44.700        27
44.710        27
44.720        13
44.730        20
44.740        27
44.750        27
44.760        33
44.770        27
44.780        67
44.790        33
44.800        20
44.810        33
44.820        33
44.830        13
44.840        27
44.850        33
44.860        53
44.870         0
44.880        13
44.890        33
44.900        60
44.910        13
44.920        40
44.930        53
44.940        33
44.950        13
44.960        20
44.970        20
44.980        40
44.990         0
45.000        33
45.010        27
45.020         7
45.030        27
45.040        13
45.050        40
45.060        20
45.070        33
45.080        20
45.090        33
45.100        27
45.110        47
45.120        13
45.130        40
45.140        33
45.150        13
45.160        27
45.170        27
45.180        27
45.190        67
45.200        20
45.210        20
45.220        53
45.230        40
45.240        13
45.250        27
45.260        20
45.270        47
45.280        47
45.290        40
45.300        40
45.310        47
45.320        40
45.330         7
45.340         7
45.350        33
45.360        27
45.370        33
45.380        20
45.390        73
45.400        40
45.410        40
45.420        47
45.430        47
45.440        60
45.450        47
45.460        80
45.470       107
45.480        80
45.490        73
45.500        47
45.510        80
45.520        93
45.530        93
45.540        47
45.550        73
45.560       113
45.570        80
45.580       133
45.590       147
45.600       127
45.610       113
45.620       173
45.630       240
45.640       173
45.650       247
45.660       153
45.670       273
45.680       367
45.690       373
45.700       387
45.710       453
45.720       440
45.730       473
45.740       566
45.750       633
45.760       666
45.770       800
45.780       740
45.790       740
45.800       686
45.810       880
45.820       760
45.830       720
45.840       720
45.850       800
45.860       793
45.870       726
45.880       680
45.890       753
45.900       773
45.910       686
45.920       820
45.930       800
45.940       593
45.950       466
45.960       446
45.970       453
45.980       426
45.990       433
46.000       367
46.010       300
46.020       253
46.030       233
46.040       247
46.050       220
46.060       227
46.070       140
46.080       120
46.090        80
46.100       100
46.110       113
46.120        67
46.130        60
46.140        80
46.150        53
46.160        80
46.170        73
46.180        47
46.190        73
46.200        93
46.210        33
46.220        47
46.230        53
46.240        53
46.250        60
46.260        40
46.270        53
46.280        53
46.290        33
46.300        53
46.310        47
46.320        40
46.330        60
46.340        47
46.350        40
46.360        53
46.370        60
46.380        60
46.390        93
46.400        60
46.410        53
46.420        60
46.430        73
46.440        87
46.450        87
46.460        67
46.470        87
46.480       120
46.490       107
46.500       107
46.510       107
46.520       133
46.530       153
46.540       153
46.550        93
46.560       127
46.570       173
46.580       213
46.590       207
46.600       147
46.610       220
46.620       213
46.630       227
46.640       220
46.650       247
46.660       373
46.670       307
46.680       320
46.690       367
46.700       260
46.710       240
46.720       380
46.730       453
46.740       380
46.750       433
46.760       480
46.770       327
46.780       333
46.790       373
46.800       426
46.810       426
46.820       360
46.830       360
46.840       327
46.850       380
46.860       313
46.870       440
46.880       347
46.890       227
46.900       380
46.910       253
46.920       300
46.930       213
46.940       213
46.950       240
46.960       187
46.970       193
46.980       193
46.990       187
47.000       233
47.010       120
47.020       153
47.030       153
47.040       133
47.050       113
47.060       147
47.070        60
47.080        60
47.090        67
47.100        67
47.110        73
47.120       113
47.130        33
47.140        60
47.150        33
47.160        67
47.170        33
47.180        53
47.190        20
47.200        27
47.210        47
47.220        40
47.230        33
47.240        47
47.250        20
47.260        53
47.270        40
47.280        60
47.290        47
47.300        53
47.310        47
47.320        53
47.330        27
47.340        53
47.350        33
47.360         7
47.370        40
47.380        20
47.390        20
47.400        53
47.410        33
47.420        47
47.430        33
47.440        33
47.450        40
47.460        20
47.470        33
47.480        47
47.490        47
47.500        13
47.510        40
47.520        27
47.530        20
47.540        27
47.550        20
47.560        40
47.570        20
47.580        40
47.590         7
47.600        20
47.610        33
47.620         7
47.630        33
47.640        33
47.650        27
47.660        40
47.670        33
47.680        13
47.690        27
47.700        40
47.710        33
47.720        20
47.730        33
47.740        27
47.750        40
47.760        20
47.770        80
47.780        40
47.790        27
47.800        60
47.810        20
47.820        33
47.830        33
47.840        33
47.850        20
47.860        20
47.870        20
47.880        27
47.890         7
47.900        27
47.910        20
47.920        27
47.930        40
47.940        20
47.950        47
47.960        33
47.970         7
47.980        33
47.990        53
48.000        40
48.010        27
48.020        20
48.030         7
48.040        40
48.050        53
48.060         7
48.070        33
48.080        20
48.090        20
48.100        33
48.110        20
48.120        13
48.130        40
48.140        20
48.150        33
48.160        53
48.170        47
48.180        53
48.190        13
48.200        20
48.210        33
48.220        20
48.230        27
48.240        27
48.250        60
48.260        27
48.270        27
48.280        27
48.290        33
48.300        40
48.310        73
48.320        27
48.330        33
48.340        53
48.350        20
48.360         7
48.370        40
48.380        47
48.390        20
48.400        27
48.410        27
48.420        27
48.430        20
48.440        27
48.450        40
48.460        47
48.470        13
48.480        27
48.490        27
48.500        27
48.510        60
48.520        20
48.530        33
48.540        27
48.550         0
48.560        27
48.570        40
48.580        20
48.590        27
48.600        27
48.610        47
48.620        40
48.630        27
48.640        13
48.650         7
48.660        33
48.670        20
48.680        20
48.690        27
48.700        53
48.710        40
48.720        13
48.730        20
48.740        27
48.750        33
48.760        40
48.770        13
48.780        13
48.790        20
48.800        27
48.810        27
48.820        20
48.830        27
48.840        33
48.850        27
48.860        60
48.870        13
48.880        40
48.890         7
48.900        20
48.910        40
48.920        20
48.930        13
48.940        20
48.950        33
48.960        27
48.970        13
48.980        33
48.990         0
49.000        40
49.010        47
49.020        47
49.030        47
49.040        33
49.050        33
49.060        53
49.070        40
49.080        20
49.090        33
49.100        33
49.110        27
49.120        40
49.130        33
49.140        20
49.150        13
49.160        33
49.170        33
49.180        13
49.190        13
49.200        27
49.210        47
49.220        13
49.230        33
49.240         7
49.250        40
49.260         7
49.270        20
49.280        20
49.290        27
49.300        13
49.310        60
49.320        33
49.330        53
49.340        13
49.350        47
49.360        40
49.370        80
49.380        67
49.390        67
49.400        40
49.410        33
49.420        67
49.430        53
49.440        73
49.450        60
49.460        40
49.470        27
49.480        67
49.490        53
49.500        93
49.510        47
49.520        53
49.530        67
49.540        53
49.550        67
49.560        73
49.570        60
49.580        73
49.590        60
49.600        87
49.610        73
49.620       100
49.630        40
49.640        93
49.650        73
49.660        93
49.670       100
49.680        67
49.690        67
49.700       140
49.710        87
49.720        67
49.730        73
49.740        60
49.750        53
49.760        47
49.770        80
49.780        33
49.790        60
49.800        53
49.810        87
49.820        80
49.830        60
49.840        60
49.850       120
49.860        40
49.870        73
49.880        67
49.890        87
49.900        60
49.910        80
49.920        73
49.930       107
49.940         7
49.950        40
49.960        27
49.970        60
49.980        67
49.990        47
50.000        60
50.010        53
50.020        60
50.030        53
50.040        33
50.050        47
50.060        67
50.070        40
50.080        33
50.090        80
50.100        60
50.110        27
50.120        33
50.130        33
50.140        27
50.150        33
50.160        40
50.170        53
50.180        20
50.190        67
50.200        40
50.210        53
50.220        40
50.230        53
50.240        13
50.250        33
50.260        40
50.270        33
50.280        33
50.290        27
50.300        27
50.310        27
50.320        60
50.330        40
50.340        67
50.350        47
50.360        40
50.370        53
50.380        47
50.390        20
50.400        20
50.410        47
50.420        20
50.430        20
50.440        80
50.450        53
50.460        40
50.470        47
50.480        33
50.490        60
50.500        60
50.510        13
50.520        13
50.530        27
50.540        40
50.550        27
50.560        20
50.570        27
50.580        20
50.590        47
50.600        20
50.610        20
50.620        47
50.630        20
50.640        40
50.650        33
50.660        13
50.670        27
50.680        13
50.690         0
50.700        13
50.710        20
50.720        20
50.730        27
50.740         0
50.750        20
50.760        33
50.770        40
50.780         7
50.790        20
50.800        40
50.810        20
50.820         7
50.830        13
50.840        20
50.850         7
50.860        40
50.870        33
50.880        20
50.890        47
50.900         7
50.910         7
50.920        20
50.930        13
50.940        27
50.950        40
50.960        13
50.970        33
50.980        20
50.990        13
51.000         7
51.010        33
51.020        20
51.030        20
51.040        20
51.050         7
51.060        27
51.070        13
51.080        33
51.090         7
51.100         7
51.110         0
51.120        27
51.130        20
51.140        40
51.150        13
51.160        40
51.170        13
51.180        40
51.190        13
51.200         7
51.210         0
51.220        40
51.230        13
51.240        13
51.250        13
51.260        27
51.270        27
51.280         7
51.290        20
51.300        33
51.310         7
51.320        20
51.330         0
51.340         7
51.350        13
51.360        27
51.370        47
51.380        33
51.390        33
51.400        20
51.410        13
51.420        20
51.430        40
51.440        27
51.450        27
51.460        33
51.470         7
51.480        60
51.490        33
51.500        40
51.510        20
51.520        13
51.530        40
51.540        80
51.550        20
51.560        47
51.570        33
51.580         7
51.590        27
51.600        20
51.610        33
51.620        13
51.630        27
51.640         7
51.650        27
51.660         7
51.670        20
51.680        60
51.690        20
51.700        13
51.710        27
51.720         0
51.730        13
51.740        13
51.750        40
51.760        27
51.770        27
51.780        27
51.790        13
51.800        20
51.810        20
51.820        40
51.830        27
51.840        13
51.850        33
51.860        13
51.870        20
51.880        20
51.890        13
51.900        20
51.910        13
51.920         7
51.930        27
51.940        13
51.950        13
51.960        27
51.970        33
51.980         7
51.990        20
52.000        40
52.010        27
52.020        20
52.030        13
52.040        20
52.050        60
52.060        20
52.070        27
52.080        13
52.090        13
52.100        27
52.110        27
52.120         7
52.130        20
52.140         0
52.150        33
52.160        13
52.170        27
52.180         7
52.190         7
52.200         7
52.210        33
52.220        47
52.230        27
52.240        20
52.250        60
52.260        33
52.270        13
52.280        27
52.290        20
52.300        13
52.310        13
52.320        20
52.330        27
52.340        13
52.350        47
52.360        20
52.370        53
52.380        40
52.390        27
52.400        20
52.410        33
52.420        40
52.430        20
52.440        73
52.450        20
52.460        60
52.470        13
52.480        80
52.490       120
52.500       200
52.510       273
52.520       267
52.530       353
52.540       353
52.550       333
52.560       233
52.570       213
52.580       187
52.590        93
52.600        80
52.610       107
52.620        53
52.630        93
52.640        73
52.650       120
52.660       133
52.670       180
52.680       173
52.690       173
52.700       147
52.710       127
52.720        80
52.730        73
52.740        67
52.750        73
52.760        27
52.770        27
52.780        27
52.790        60
52.800        40
52.810        27
52.820        27
52.830        40
52.840        20
52.850        60
52.860         7
52.870        13
52.880        20
52.890        40
52.900        20
52.910        27
52.920        20
52.930        33
52.940         0
52.950        13
52.960        40
52.970         7
52.980        27
52.990        13
53.000        27
53.010        13
53.020        27
53.030        47
53.040        53
53.050        27
53.060        20
53.070        33
53.080        13
53.090        13
53.100        27
53.110        27
53.120        13
53.130        20
53.140        20
53.150         7
53.160        13
53.170        20
53.180        40
53.190        53
53.200         7
53.210        20
53.220        33
53.230        33
53.240        13
53.250        13
53.260        20
53.270        33
53.280        20
53.290        13
53.300        20
53.310        13
53.320        33
53.330        20
53.340        33
53.350        20
53.360        13
53.370        27
53.380        20
53.390        27
53.400        20
53.410        13
53.420        27
53.430         0
53.440        40
53.450        27
53.460        27
53.470         7
53.480        13
53.490         0
53.500        13
53.510        33
53.520        13
53.530        33
53.540        27
53.550        27
53.560        13
53.570         0
53.580        40
53.590        20
53.600        20
53.610        27
53.620        33
53.630         7
53.640         7
53.650         7
53.660         7
53.670         7
53.680        20
53.690        13
53.700         7
53.710        27
53.720         0
53.730        33
53.740         7
53.750        20
53.760         0
53.770        27
53.780         7
53.790        40
53.800        20
53.810        20
53.820        33
53.830        13
53.840         7
53.850        33
53.860        33
53.870        27
53.880         7
53.890        13
53.900         7
53.910        13
53.920         7
53.930        27
53.940         0
53.950         7
53.960         7
53.970        40
53.980        20
53.990         0
54.000        20
54.010        27
54.020        33
54.030        13
54.040        33
54.050         7
54.060         0
54.070         7
54.080        13
54.090        20
54.100        40
54.110        13
54.120        13
54.130        20
54.140         7
54.150        13
54.160        20
54.170        13
54.180        20
54.190        20
54.200         7
54.210        33
54.220        13
54.230        20
54.240        13
54.250        20
54.260        20
54.270         7
54.280         0
54.290        20
54.300        20
54.310         0
54.320         7
54.330         7
54.340        20
54.350        13
54.360        13
54.370        20
54.380        33
54.390         7
54.400        27
54.410        13
54.420        27
54.430        27
54.440        27
54.450        13
54.460        20
54.470        13
54.480        40
54.490        13
54.500        13
54.510        40
54.520        20
54.530        13
54.540        20
54.550        13
54.560        47
54.570         7
54.580         7
54.590        27
54.600        27
54.610         7
54.620        20
54.630        27
54.640        13
54.650        13
54.660         7
54.670        13
54.680         7
54.690        13
54.700         0
54.710        27
54.720        20
54.730        13
54.740        20
54.750        20
54.760        13
54.770        40
54.780         7
54.790         7
54.800        13
54.810        13
54.820        33
54.830        13
54.840        27
54.850         7
54.860         7
54.870        40
54.880         0
54.890        13
54.900        13
54.910         0
54.920        40
54.930        13
54.940        27
54.950        20
54.960        13
54.970        13
54.980        13
54.990        13
55.000        40
55.010        13
55.020        27
55.030        13
55.040         7
55.050        33
55.060        13
55.070        33
55.080         7
55.090        27
55.100        20
55.110        27
55.120         0
55.130         7
55.140        13
55.150        13
55.160        47
55.170        27
55.180        20
55.190         7
55.200        20
55.210        20
55.220        20
55.230        13
55.240        13
55.250        13
55.260        33
55.270         7
55.280        20
55.290        20
55.300        13
55.310        20
55.320        13
55.330        40
55.340        27
55.350        33
55.360        20
55.370        27
55.380        33
55.390        20
55.400        20
55.410        13
55.420        13
55.430         7
55.440        13
55.450        13
55.460        20
55.470        47
55.480        20
55.490         7
55.500        33
55.510        27
55.520         7
55.530        20
55.540        20
55.550        27
55.560         7
55.570        27
55.580        47
55.590        13
55.600        27
55.610        27
55.620        67
55.630        40
55.640        13
55.650        53
55.660        40
55.670        20
55.680        40
55.690        27
55.700        47
55.710        53
55.720        40
55.730        20
55.740        47
55.750        47
55.760        67
55.770        27
55.780        60
55.790        40
55.800        40
55.810        67
55.820        67
55.830        67
55.840        20
55.850        33
55.860        33
55.870        67
55.880        40
55.890        60
55.900        40
55.910        67
55.920        47
55.930        27
55.940        53
55.950        73
55.960        27
55.970        53
55.980        60
55.990        33
56.000        67
56.010        53
56.020        47
56.030        67
56.040        60
56.050        53
56.060        53
56.070        80
56.080        27
56.090        53
56.100        47
56.110        93
56.120        47
56.130        33
56.140        60
56.150        27
56.160        60
56.170        27
56.180        33
56.190        67
56.200        47
56.210        53
56.220        67
56.230        60
56.240        47
56.250        33
56.260        53
56.270        47
56.280        80
56.290        47
56.300        27
56.310        47
56.320        60
56.330        40
56.340        47
56.350        40
56.360        20
56.370        53
56.380        13
56.390        13
56.400         7
56.410         7
56.420        53
56.430        33
56.440        27
56.450        20
56.460        40
56.470        53
56.480        67
56.490        27
56.500         7
56.510        27
56.520         0
56.530         7
56.540        33
56.550        13
56.560         7
56.570        13
56.580        33
56.590         0
56.600         7
56.610        13
56.620        33
56.630         0
56.640        27
56.650        33
56.660        13
56.670         7
56.680        20
56.690        27
56.700        13
56.710        27
56.720        27
56.730        20
56.740        20
56.750        40
56.760         7
56.770        27
56.780         0
56.790         7
56.800         0
56.810        20
56.820        27
56.830        13
56.840        33
56.850        40
56.860        13
56.870        20
56.880        53
56.890        13
56.900        13
56.910        20
56.920        13
56.930        20
56.940         7
56.950         7
56.960        40
56.970        13
56.980        13
56.990        40
57.000        27
57.010        13
57.020        13
57.030        33
57.040         0
57.050        40
57.060        27
57.070        13
57.080        40
57.090        33
57.100        20
57.110        40
57.120        60
57.130        27
57.140        13
57.150        20
57.160        60
57.170        13
57.180        20
57.190        33
57.200        13
57.210        20
57.220        60
57.230        60
57.240        73
57.250        60
57.260        40
57.270        60
57.280        40
57.290        67
57.300        40
57.310        87
57.320        40
57.330        67
57.340        40
57.350        60
57.360        60
57.370        80
57.380        93
57.390        53
57.400       133
57.410        67
57.420       140
57.430       140
57.440       147
57.450       200
57.460       287
57.470       267
57.480       520
57.490       433
57.500       686
57.510       920
57.520       926
57.530      1073
57.540      1113
57.550       806
57.560       753
57.570       500
57.580       327
57.590       247
57.600       193
57.610       187
57.620       233
57.630       260
57.640       260
57.650       327
57.660       446
57.670       480
57.680       586
57.690       520
57.700       453
57.710       420
57.720       280
57.730       247
57.740       153
57.750       107
57.760        73
57.770        73
57.780        73
57.790        73
57.800        33
57.810        40
57.820        33
57.830        40
57.840        40
57.850        33
57.860        73
57.870        40
57.880        13
57.890        40
57.900        13
57.910        53
57.920         7
57.930        33
57.940        33
57.950        53
57.960        20
57.970        20
57.980        60
57.990        47
58.000        33
58.010        47
58.020        33
58.030        47
58.040         7
58.050         7
58.060        40
58.070        60
58.080        27
58.090        13
58.100        33
58.110        27
58.120        20
58.130        20
58.140        20
58.150        27
58.160        60
58.170         0
58.180        20
58.190        27
58.200        40
58.210        27
58.220        80
58.230        27
58.240        27
58.250        20
58.260        27
58.270        53
58.280        13
58.290        40
58.300        20
58.310        27
58.320        13
58.330        33
58.340        40
58.350        20
58.360        40
58.370        13
58.380        13
58.390        40
58.400        47
58.410        13
58.420        20
58.430        27
58.440        20
58.450        20
58.460        33
58.470        40
58.480        27
58.490        20
58.500        27
58.510        20
58.520        67
58.530        27
58.540        33
58.550        40
58.560         0
58.570        20
58.580        13
58.590        27
58.600        13
58.610        13
58.620        33
58.630        13
58.640        20
58.650        33
58.660        20
58.670        20
58.680        53
58.690        20
58.700         0
58.710         7
58.720        27
58.730         0
58.740        20
58.750        13
58.760        33
58.770        27
58.780        13
58.790         0
58.800        13
58.810        40
58.820        13
58.830        13
58.840        20
58.850        33
58.860        20
58.870         7
58.880         7
58.890        13
58.900         7
58.910         7
58.920        20
58.930        20
58.940        27
58.950        20
58.960         7
58.970        13
58.980        33
58.990         7
59.000        20
59.010        33
59.020        20
59.030        27
59.040        20
59.050         7
59.060        20
59.070        13
59.080        27
59.090        20
59.100        13
59.110        33
59.120         7
59.130         7
59.140        27
59.150        20
59.160        20
59.170        27
59.180        13
59.190        20
59.200         0
59.210        13
59.220         7
59.230        27
59.240        20
59.250        20
59.260         7
59.270        13
59.280         7
59.290        13
59.300        13
59.310        20
59.320        20
59.330        33
59.340        20
59.350        40
59.360        27
59.370        13
59.380        33
59.390        13
59.400        20
59.410        20
59.420         7
59.430         7
59.440         7
59.450        27
59.460        13
59.470        27
59.480        40
59.490        20
59.500        20
59.510        33
59.520        13
59.530         7
59.540         0
59.550        33
59.560        33
59.570        27
59.580        13
59.590        27
59.600        20
59.610        40
59.620         7
59.630        13
59.640        33
59.650         7
59.660        20
59.670        20
59.680        13
59.690        13
59.700        20
59.710        13
59.720        20
59.730        20
59.740         7
59.750        33
59.760        33
59.770         7
59.780        20
59.790        20
59.800        27
59.810        13
59.820        13
59.830        40
59.840        33
59.850        20
59.860        40
59.870        27
59.880        20
59.890        13
59.900         0
59.910        13
59.920        13
59.930         7
59.940         0
59.950        13
59.960        13
59.970        33
59.980         7
59.990         7
60.000        20
