20.000        40
20.010        33
20.020        20
20.030        60
20.040        40
20.050        33
20.060        13
20.070        33
20.080        33
20.090        47
20.100       100
20.110        33
20.120        20
20.130        33
20.140        53
20.150        60
20.160        47
20.170        27
20.180        40
20.190        53
20.200        53
20.210        40
20.220        67
20.230        40
20.240        40
20.250        47
20.260        27
20.270        33
20.280        40
20.290        27
20.300        53
20.310        53
20.320        67
20.330        47
20.340        47
20.350        33
20.360        27
20.370        33
20.380        53
20.390        60
20.400        27
20.410        53
20.420        33
20.430        60
20.440        40
20.450        47
20.460        13
20.470        13
20.480        67
20.490        47
20.500        53
20.510        27
20.520        67
20.530        53
20.540        40
20.550        13
20.560        33
20.570        20
20.580        40
20.590        60
20.600        20
20.610        27
20.620        27
20.630        27
20.640        53
20.650        20
20.660        80
20.670        33
20.680        67
20.690        60
20.700        27
20.710        47
20.720        40
20.730        53
20.740        33
20.750        20
20.760        80
20.770        47
20.780        60
20.790        40
20.800        67
20.810        40
20.820        47
20.830        67
20.840        40
20.850        87
20.860        40
20.870        40
20.880        47
20.890        40
20.900        40
20.910        33
20.920        27
20.930        13
20.940        53
20.950        47
20.960        33
20.970        13
20.980        13
20.990        27
21.000        47
21.010        40
21.020        53
21.030        40
21.040        20
21.050       100
21.060        73
21.070        80
21.080        40
21.090        20
21.100        67
21.110        13
21.120        67
21.130        33
21.140        33
21.150        27
21.160        67
21.170        47
21.180        20
21.190        27
21.200        40
21.210        33
21.220        13
21.230        27
21.240        53
21.250        33
21.260        53
21.270        33
21.280        67
21.290        47
21.300        40
21.310        47
21.320        13
21.330        40
21.340        27
21.350        27
21.360        53
21.370        27
21.380        87
21.390        40
21.400        33
21.410        33
21.420        67
21.430        13
21.440        40
21.450        27
21.460        33
21.470        40
21.480        47
21.490        67
21.500        20
21.510        40
21.520         0
21.530        40
21.540        27
21.550        40
21.560        27
21.570        33
21.580        73
21.590        33
21.600        13
21.610        47
21.620        47
21.630         7
21.640        47
21.650        20
21.660         7
21.670        13
21.680        67
21.690        40
21.700        33
21.710        27
21.720        33
21.730        33
21.740        27
21.750        13
21.760        40
21.770        40
21.780        53
21.790        53
21.800        67
21.810        20
21.820        47
21.830        73
21.840        27
21.850        47
21.860        27
21.870        20
21.880        60
21.890        33
21.900        27
21.910        40
21.920        33
21.930        13
21.940        27
21.950        40
21.960        27
21.970        47
21.980        33
21.990        60
22.000        53
22.010        33
22.020        33
22.030        40
22.040         0
22.050        20
22.060        13
22.070        20
22.080        53
22.090         7
22.100        33
22.110        40
22.120        33
22.130         7
22.140        33
22.150        40
22.160        33
22.170        27
22.180        20
22.190        53
22.200        13
22.210        20
22.220        47
22.230        33
22.240        33
22.250        20
22.260        27
22.270        47
22.280        60
22.290        33
22.300        33
22.310        47
22.320        53
22.330        53
22.340        47
22.350        53
22.360        40
22.370        53
22.380        40
22.390        33
22.400        80
22.410        67
22.420        60
22.430        40
22.440        47
22.450        20
22.460        27
22.470       107
22.480        60
22.490        67
22.500        27
22.510        47
22.520        67
22.530        40
22.540        60
22.550        73
22.560        60
22.570        47
22.580        73
22.590        27
22.600        20
22.610        53
22.620        47
22.630        73
22.640        47
22.650        20
22.660        13
22.670        40
22.680        67
22.690        67
22.700        53
22.710        53
22.720        33
22.730        67
22.740        87
22.750        40
22.760        47
22.770        60
22.780        53
22.790        20
22.800        47
22.810        47
22.820        33
22.830        20
22.840        93
22.850        53
22.860        47
22.870        67
22.880        67
22.890       100
22.900        93
22.910       113
22.920        67
22.930        47
22.940        60
22.950        60
22.960        33
22.970        67
22.980        20
22.990        60
23.000        47
23.010        20
23.020        47
23.030        53
23.040        47
23.050        80
23.060        20
23.070        40
23.080        33
23.090        67
23.100        40
23.110        27
23.120        13
23.130        33
23.140        27
23.150        33
23.160         7
23.170        13
23.180        40
23.190        53
23.200        27
23.210         7
23.220        47
23.230        47
23.240        47
23.250        20
23.260        40
23.270        33
23.280        40
23.290        47
23.300        20
23.310        53
23.320        33
23.330        27
23.340        53
23.350        53
23.360        27
23.370        53
23.380        13
23.390        33
23.400        47
23.410        13
23.420        60
23.430        20
23.440        20
23.450        47
23.460        33
23.470        27
23.480        47
23.490        20
23.500        27
23.510        40
23.520        27
23.530        40
23.540        40
23.550        13
23.560        40
23.570        47
23.580        13
23.590        13
23.600        33
23.610        67
23.620        33
23.630        33
23.640        13
23.650        13
23.660        40
23.670        40
23.680        27
23.690        27
23.700        47
23.710        20
23.720        33
23.730        40
23.740        20
23.750        40
23.760        27
23.770        27
23.780        27
23.790        40
23.800        27
23.810        40
23.820        60
23.830        40
23.840        13
23.850        60
23.860        47
23.870        27
23.880        13
23.890        27
23.900        13
23.910        33
23.920        13
23.930        33
23.940        20
23.950        20
23.960        27
23.970        33
23.980        13
23.990        20
24.000        20
24.010        47
24.020        47
24.030        53
24.040        47
24.050        40
24.060        33
24.070        53
24.080        53
24.090        47
24.100        53
24.110        60
24.120        33
24.130        33
24.140        27
24.150        33
24.160        40
24.170        33
24.180        40
24.190         7
24.200        47
24.210        40
24.220        40
24.230        33
24.240        27
24.250        40
24.260        20
24.270        27
24.280        20
24.290        20
24.300        33
24.310        40
24.320        27
24.330        53
24.340        40
24.350        60
24.360        20
24.370        27
24.380        27
24.390        33
24.400        33
24.410        27
24.420        27
24.430        13
24.440        33
24.450        20
24.460        27
24.470        53
24.480        40
24.490        27
24.500        53
24.510        47
24.520        60
24.530        20
24.540         7
24.550        33
24.560        40
24.570        20
24.580        33
24.590        80
24.600        40
24.610        33
24.620        40
24.630        53
24.640        20
24.650        33
24.660        53
24.670        27
24.680        47
24.690        40
24.700        27
24.710        60
24.720        47
24.730        40
24.740        47
24.750        27
24.760        27
24.770        40
24.780        27
24.790        53
24.800        40
24.810        27
24.820        20
24.830        33
24.840        40
24.850        33
24.860        27
24.870        33
24.880        13
24.890        47
24.900        20
24.910        40
24.920        27
24.930        53
24.940        53
24.950        33
24.960        40
24.970        27
24.980        20
24.990        47
25.000        53
25.010        40
25.020        47
25.030        40
25.040        40
25.050        13
25.060        27
25.070        33
25.080        33
25.090        27
25.100        20
25.110        20
25.120        47
25.130        47
25.140        20
25.150         7
25.160        47
25.170        47
25.180        53
25.190        73
25.200        27
25.210        47
25.220        33
25.230        60
25.240        47
25.250        67
25.260        27
25.270        13
25.280        13
25.290        20
25.300        27
25.310        27
25.320        47
25.330        33
25.340        20
25.350        33
25.360        53
25.370        20
25.380        53
25.390         7
25.400        47
25.410        53
25.420        47
25.430        87
25.440        67
25.450        73
25.460        33
25.470        20
25.480        60
25.490        73
25.500        93
25.510       113
25.520       133
25.530       227
25.540       247
25.550       273
25.560       307
25.570       300
25.580       327
25.590       247
25.600       193
25.610       207
25.620       153
25.630       207
25.640       207
25.650       140
25.660        93
25.670       113
25.680        53
25.690        47
25.700       100
25.710        80
25.720        60
25.730        80
25.740        80
25.750        47
25.760        40
25.770        20
25.780        93
25.790        80
25.800        40
25.810        40
25.820        40
25.830        47
25.840        60
25.850        60
25.860        27
25.870        60
25.880        47
25.890        27
25.900        27
25.910        53
25.920        47
25.930        33
25.940        33
25.950        13
25.960        27
25.970        27
25.980        47
25.990        27
26.000        20
26.010        40
26.020        33
26.030        40
26.040        33
26.050        40
26.060        13
26.070        40
26.080        27
26.090        13
26.100        47
26.110        13
26.120        33
26.130         7
26.140        47
26.150        20
26.160        40
26.170        27
26.180        27
26.190        20
26.200        13
26.210        27
26.220        20
26.230        33
26.240        27
26.250        13
26.260        20
26.270        33
26.280        53
26.290        20
26.300        47
26.310        20
26.320        27
26.330        33
26.340        20
26.350        27
26.360        40
26.370        53
26.380        20
26.390        33
26.400        67
26.410        60
26.420        20
26.430        20
26.440        13
26.450        40
26.460        20
26.470        20
26.480        40
26.490        40
26.500         7
26.510        13
26.520        27
26.530        40
26.540        13
26.550        40
26.560        20
26.570        47
26.580         7
26.590        13
26.600        73
26.610        40
26.620        40
26.630        13
26.640        13
26.650        33
26.660        13
26.670        60
26.680        40
26.690        47
26.700        27
26.710        47
26.720        20
26.730        13
26.740        13
26.750        27
26.760        33
26.770        33
26.780        33
26.790        33
26.800        33
26.810        27
26.820        20
26.830        47
26.840        27
26.850        27
26.860        27
26.870        60
26.880        60
26.890        47
26.900        40
26.910        53
26.920        13
26.930        40
26.940        60
26.950        13
26.960        27
26.970        27
26.980        20
26.990        40
27.000         7
27.010        20
27.020        27
27.030        27
27.040        20
27.050        47
27.060        20
27.070        13
27.080        33
27.090        13
27.100        47
27.110        27
27.120        33
27.130         7
27.140        27
27.150        33
27.160        13
27.170        40
27.180        27
27.190        33
27.200        13
27.210        47
27.220        13
27.230        27
27.240        27
27.250        27
27.260        13
27.270        33
27.280        20
27.290        33
27.300        20
27.310        27
27.320        13
27.330        40
27.340        20
27.350        20
27.360        13
27.370        40
27.380        27
27.390        40
27.400        40
27.410        33
27.420        40
27.430        27
27.440        13
27.450        27
27.460        20
27.470        13
27.480        13
27.490        33
27.500        13
27.510         7
27.520        33
27.530        27
27.540        40
27.550        20
27.560        27
27.570        67
27.580        47
27.590        13
27.600        33
27.610        33
27.620        27
27.630        27
27.640        47
27.650        47
27.660        40
27.670        27
27.680        73
27.690        13
27.700        33
27.710        53
27.720        20
27.730         7
27.740        27
27.750        67
27.760        27
27.770        33
27.780        40
27.790        33
27.800        47
27.810        20
27.820        47
27.830        33
27.840        40
27.850        27
27.860        27
27.870         7
27.880        27
27.890        47
27.900        20
27.910        47
27.920        27
27.930        33
27.940        73
27.950        80
27.960        40
27.970        33
27.980        40
27.990        20
28.000        20
28.010        13
28.020        47
28.030        33
28.040        33
28.050        53
28.060        20
28.070        33
28.080        47
28.090        47
28.100        40
28.110        33
28.120        53
28.130        20
28.140        60
28.150        40
28.160        40
28.170        40
28.180        40
28.190        40
28.200        40
28.210        40
28.220        27
28.230        53
28.240        40
28.250        40
28.260        53
28.270        73
28.280        33
28.290        47
28.300        73
28.310        27
28.320        27
28.330        80
28.340        40
28.350        47
28.360        47
28.370        47
28.380        40
28.390        73
28.400        13
28.410        13
28.420        33
28.430        53
28.440        47
28.450        67
28.460        53
28.470        47
28.480        67
28.490        33
28.500        73
28.510        40
28.520        73
28.530        67
28.540        60
28.550        47
28.560        73
28.570        47
28.580        73
28.590        87
28.600        87
28.610       113
28.620        53
28.630        80
28.640       100
28.650        67
28.660        53
28.670        87
28.680        80
28.690        93
28.700       140
28.710       107
28.720        93
28.730        60
28.740        93
28.750       113
28.760       100
28.770       120
28.780       147
28.790       100
28.800       133
28.810       113
28.820       193
28.830       107
28.840       153
28.850       140
28.860       113
28.870       133
28.880       127
28.890       167
28.900       247
28.910       220
28.920       193
28.930       160
28.940       167
28.950       173
28.960       253
28.970       160
28.980       140
28.990       173
29.000       213
29.010       200
29.020       187
29.030       153
29.040       140
29.050       140
29.060       167
29.070       147
29.080       153
29.090       113
29.100        87
29.110       120
29.120       113
29.130       133
29.140       113
29.150       107
29.160       133
29.170        93
29.180       153
29.190        93
29.200       100
29.210       127
29.220       133
29.230       113
29.240       200
29.250        80
29.260       147
29.270       147
29.280       107
29.290        93
29.300       100
29.310       113
29.320        93
29.330       133
29.340       113
29.350       133
29.360       133
29.370       140
29.380       153
29.390       107
29.400        87
29.410       147
29.420       133
29.430        47
29.440       127
29.450       193
29.460       153
29.470       133
29.480       173
29.490       207
29.500       140
29.510       160
29.520       200
29.530       160
29.540       180
29.550       167
29.560       120
29.570       140
29.580       173
29.590       140
29.600       127
29.610        80
29.620        60
29.630        73
29.640        67
29.650        87
29.660        67
29.670        60
29.680        47
29.690        67
29.700       100
29.710        53
29.720        47
29.730        40
29.740        40
29.750        47
29.760        33
29.770        40
29.780        73
29.790        47
29.800        47
29.810        47
29.820        27
29.830        47
29.840        60
29.850        47
29.860        40
29.870        33
29.880        33
29.890        27
29.900        13
29.910        33
29.920        27
29.930        27
29.940         7
29.950        47
29.960        33
29.970        33
29.980        40
29.990        33
30.000        33
30.010        33
30.020        27
30.030        20
30.040        27
30.050        27
30.060        47
30.070        20
30.080        20
30.090         7
30.100        27
30.110        27
30.120        33
30.130        20
30.140        33
30.150        20
30.160         7
30.170        47
30.180        13
30.190        27
30.200        27
30.210        33
30.220        40
30.230        27
30.240        27
30.250        27
30.260        40
30.270        40
30.280        40
30.290        60
30.300        27
30.310        67
30.320         7
30.330        40
30.340        33
30.350        67
30.360        67
30.370        47
30.380        27
30.390        80
30.400        33
30.410        27
30.420        47
30.430        33
30.440        33
30.450        40
30.460        53
30.470        60
30.480        33
30.490        20
30.500        33
30.510        53
30.520        27
30.530        33
30.540        27
30.550        33
30.560        47
30.570        33
30.580        13
30.590        47
30.600        40
30.610        33
30.620        20
30.630        33
30.640        20
30.650        27
30.660        27
30.670        27
30.680        27
30.690         7
30.700        53
30.710         7
30.720        27
30.730        33
30.740        20
30.750         7
30.760        33
30.770        27
30.780        27
30.790        20
30.800        27
30.810        47
30.820        40
30.830        20
30.840        27
30.850         7
30.860        33
30.870        20
30.880        20
30.890        33
30.900        47
30.910        13
30.920        13
30.930        47
30.940        33
30.950        40
30.960        47
30.970        47
30.980        27
30.990        33
31.000        13
31.010        33
31.020        53
31.030        40
31.040        27
31.050        27
31.060        47
31.070        60
31.080        27
31.090        20
31.100        60
31.110        47
31.120        33
31.130        33
31.140        33
31.150        20
31.160        33
31.170        53
31.180        33
31.190        20
31.200        33
31.210        13
31.220        53
31.230        33
31.240        33
31.250        47
31.260        33
31.270        40
31.280        20
31.290        87
31.300        27
31.310        40
31.320        40
31.330        33
31.340        20
31.350        27
31.360        33
31.370        53
31.380        33
31.390        53
31.400        13
31.410        67
31.420        53
31.430        33
31.440        40
31.450        27
31.460        20
31.470        40
31.480        40
31.490        20
31.500        47
31.510        47
31.520        47
31.530        13
31.540        33
31.550        60
31.560        40
31.570        27
31.580        47
31.590        33
31.600        20
31.610        20
31.620        47
31.630        53
31.640        33
31.650        27
31.660        40
31.670        60
31.680        27
31.690        20
31.700        27
31.710        27
31.720        33
31.730        13
31.740        33
31.750        33
31.760        13
31.770        20
31.780        27
31.790        40
31.800        20
31.810        20
31.820        40
31.830        47
31.840        13
31.850        47
31.860        60
31.870        53
31.880        20
31.890        47
31.900        47
31.910        33
31.920        20
31.930        60
31.940        40
31.950        40
31.960        60
31.970        40
31.980        53
31.990        67
32.000        53
32.010        67
32.020        27
32.030        47
32.040        87
32.050        60
32.060        60
32.070        60
32.080        53
32.090       107
32.100        27
32.110        67
32.120        47
32.130        87
32.140        73
32.150        73
32.160        53
32.170        40
32.180        20
32.190        47
32.200        73
32.210        33
32.220        40
32.230        27
32.240        47
32.250        20
32.260        53
32.270        67
32.280        33
32.290        20
32.300        13
32.310        20
32.320        27
32.330         7
32.340        13
32.350        33
32.360        20
32.370        33
32.380        27
32.390        20
32.400        20
32.410        40
32.420        67
32.430        33
32.440        47
32.450        27
32.460         7
32.470        13
32.480        27
32.490        27
32.500        53
32.510        73
32.520        33
32.530        27
32.540        33
32.550        27
32.560        20
32.570        40
32.580        33
32.590        53
32.600        27
32.610        20
32.620        27
32.630        47
32.640        53
32.650         7
32.660        13
32.670        47
32.680        40
32.690        40
32.700         7
32.710        53
32.720        20
32.730        27
32.740        20
32.750        27
32.760        20
32.770        33
32.780        33
32.790        40
32.800        33
32.810        13
32.820        27
32.830         0
32.840         7
32.850        53
32.860         7
32.870        27
32.880        13
32.890        20
32.900        47
32.910        53
32.920        40
32.930        33
32.940        40
32.950        13
32.960        40
32.970        47
32.980        47
32.990        33
33.000        13
33.010        47
33.020        27
33.030        20
33.040        20
33.050        13
33.060        20
33.070         0
33.080        33
33.090        13
33.100        27
33.110        33
33.120        20
33.130        27
33.140        40
33.150        20
33.160        27
33.170        27
33.180        13
33.190        33
33.200        40
33.210        20
33.220         7
33.230        20
33.240        40
33.250        47
33.260        60
33.270        47
33.280        13
33.290         7
33.300        47
33.310        27
33.320        53
33.330        40
33.340         7
33.350        27
33.360         0
33.370         7
33.380        33
33.390        27
33.400        27
33.410        27
33.420        33
33.430        27
33.440        53
33.450        20
33.460        33
33.470         0
33.480        27
33.490        13
33.500         7
33.510        27
33.520         0
33.530        13
33.540        27
33.550        27
33.560        20
33.570        53
33.580         0
33.590        13
33.600        20
33.610        33
33.620        47
33.630        40
33.640        27
33.650        27
33.660         7
33.670         7
33.680        27
33.690        20
33.700        20
33.710        33
33.720         7
33.730        20
33.740        20
33.750        40
33.760        27
33.770        20
33.780        27
33.790        33
33.800        20
33.810        40
33.820         0
33.830         7
33.840        33
33.850         7
33.860        13
33.870        27
33.880         7
33.890        33
33.900        40
33.910        33
33.920         0
33.930        13
33.940        53
33.950        33
33.960        27
33.970        40
33.980        27
33.990        33
34.000        20
34.010        27
34.020        33
34.030        27
34.040        27
34.050        20
34.060        20
34.070        20
34.080        60
34.090        20
34.100        40
34.110        20
34.120        20
34.130        40
34.140        53
34.150        20
34.160        33
34.170        40
34.180        27
34.190         7
34.200        33
34.210        20
34.220         0
34.230        20
34.240        27
34.250        33
34.260        20
34.270         7
34.280         7
34.290        60
34.300         7
34.310        33
34.320        33
34.330        40
34.340         7
34.350         7
34.360        20
34.370        13
34.380        13
34.390        20
34.400        27
34.410        20
34.420        13
34.430        40
34.440        47
34.450         7
34.460         7
34.470        27
34.480         7
34.490        20
34.500         0
34.510        47
34.520        20
34.530        40
34.540        53
34.550         7
34.560        13
34.570        47
34.580        33
34.590         0
34.600         7
34.610        13
34.620        20
34.630        27
34.640        20
34.650        33
34.660         0
34.670        27
34.680        13
34.690        13
34.700         7
34.710        13
34.720        47
34.730        40
34.740        27
34.750        33
34.760        13
34.770        40
34.780        80
34.790        47
34.800        20
34.810        47
34.820        20
34.830        47
34.840        67
34.850        40
34.860        53
34.870        20
34.880        27
34.890        20
34.900        33
34.910        47
34.920        47
34.930        60
34.940        80
34.950       127
34.960       127
34.970       167
34.980       140
34.990       140
35.000       133
35.010       173
35.020       180
35.030       140
35.040       133
35.050       133
35.060       113
35.070       100
35.080       193
35.090       227
35.100       360
35.110       486
35.120       453
35.130       766
35.140       640
35.150       626
35.160       740
35.170       560
35.180       533
35.190       373
35.200       287
35.210       393
35.220       347
35.230       393
35.240       347
35.250       380
35.260       287
35.270       253
35.280       167
35.290        87
35.300        47
35.310        60
35.320        53
35.330        60
35.340        40
35.350        47
35.360         7
35.370        67
35.380        27
35.390        53
35.400        33
35.410        27
35.420        60
35.430        20
35.440        47
35.450        27
35.460        47
35.470        13
35.480        27
35.490        13
35.500        13
35.510        27
35.520        27
35.530        27
35.540        20
35.550        27
35.560        13
35.570        20
35.580        20
35.590        20
35.600        33
35.610        13
35.620        20
35.630         7
35.640        40
35.650        13
35.660        20
35.670        27
35.680        13
35.690         7
35.700        33
35.710        20
35.720        27
35.730        33
35.740        40
35.750        53
35.760         7
35.770        60
35.780        40
35.790        27
35.800        33
35.810         7
35.820        53
35.830        53
35.840        20
35.850        47
35.860        40
35.870         0
35.880        47
35.890        27
35.900        53
35.910        33
35.920        13
35.930        27
35.940        33
35.950        27
35.960        20
35.970        40
35.980        53
35.990        27
36.000        27
36.010        13
36.020        33
36.030        13
36.040        40
36.050         0
36.060        33
36.070        20
36.080        20
36.090        20
36.100        27
36.110         7
36.120        20
36.130        20
36.140        40
36.150        20
36.160        27
36.170        33
36.180        27
36.190        20
36.200         7
36.210        13
36.220        27
36.230        27
36.240        27
36.250        27
36.260        33
36.270         7
36.280        40
36.290        33
36.300        47
36.310        13
36.320        33
36.330        33
36.340        40
36.350        13
36.360        47
36.370        53
36.380        33
36.390        33
36.400         7
36.410        20
36.420        33
36.430        27
36.440        13
36.450        13
36.460        27
36.470        27
36.480         0
36.490        40
36.500        47
36.510        20
36.520        20
36.530        47
36.540        13
36.550        33
36.560        67
36.570        27
36.580        33
36.590        27
36.600        40
36.610        27
36.620        47
36.630        13
36.640        13
36.650        33
36.660         7
36.670        20
36.680        20
36.690         7
36.700        20
36.710        20
36.720         7
36.730        27
36.740        20
36.750        27
36.760        20
36.770        20
36.780        13
36.790        33
36.800        27
36.810        27
36.820        13
36.830        20
36.840        13
36.850         7
36.860         7
36.870        13
36.880        13
36.890        20
36.900        13
36.910        13
36.920        13
36.930        27
36.940        13
36.950        27
36.960        40
36.970        20
36.980         7
36.990         7
37.000        40
37.010        27
37.020        40
37.030        40
37.040         7
37.050        20
37.060         7
37.070        20
37.080        33
37.090        33
37.100        13
37.110        40
37.120        33
37.130        27
37.140        33
37.150         7
37.160        40
37.170        20
37.180        40
37.190         0
37.200        27
37.210         7
37.220        13
37.230        40
37.240        33
37.250        13
37.260        20
37.270        40
37.280        40
37.290        20
37.300         7
37.310        20
37.320        27
37.330        40
37.340        27
37.350        13
37.360        27
37.370        47
37.380        27
37.390        33
37.400        27
37.410        33
37.420        20
37.430        20
37.440        33
37.450        33
37.460        13
37.470        40
37.480        33
37.490        27
37.500        20
37.510        20
37.520        27
37.530        47
37.540        13
37.550        20
37.560        33
37.570        13
37.580         7
37.590        13
37.600        33
37.610        20
37.620        27
37.630        20
37.640        40
37.650        20
37.660        33
37.670        47
37.680        40
37.690        33
37.700         7
37.710        27
37.720        20
37.730        20
37.740        40
37.750        20
37.760        67
37.770        60
37.780        20
37.790        33
37.800        47
37.810        53
37.820        27
37.830        33
37.840        47
37.850        20
37.860        47
37.870        33
37.880        20
37.890        27
37.900        13
37.910        27
37.920        27
37.930        40
37.940        20
37.950        13
37.960        40
37.970        20
37.980        27
37.990        27
38.000        20
38.010        40
38.020        27
38.030        33
38.040        20
38.050        27
38.060        13
38.070         7
38.080        33
38.090        33
38.100        53
38.110         7
38.120        20
38.130        20
38.140        20
38.150        20
38.160        40
38.170        20
38.180        40
38.190         7
38.200        33
38.210        20
38.220        20
38.230        53
38.240        13
38.250        13
38.260        27
38.270        53
38.280        40
38.290         7
38.300        33
38.310         7
38.320        40
38.330         7
38.340        53
38.350        33
38.360         7
38.370        27
38.380        20
38.390        27
38.400        20
38.410        20
38.420        40
38.430         7
38.440        13
38.450        40
38.460        27
38.470        40
38.480        33
38.490        27
38.500        27
38.510        13
38.520        40
38.530        20
38.540        40
38.550         7
38.560        20
38.570        40
38.580        20
38.590        13
38.600        27
38.610        27
38.620        40
38.630         0
38.640         0
38.650        20
38.660        20
38.670        27
38.680        47
38.690        20
38.700        27
38.710        20
38.720        20
38.730        53
38.740        13
38.750        47
38.760        20
38.770        40
38.780        13
38.790        20
38.800        27
38.810         7
38.820        13
38.830        27
38.840        60
38.850        13
38.860        20
38.870        47
38.880        33
38.890        27
38.900        53
38.910        53
38.920        40
38.930        27
38.940        27
38.950        40
38.960        40
38.970        27
38.980        27
38.990        47
39.000         7
39.010         0
39.020        20
39.030        60
39.040        53
39.050        27
39.060        33
39.070        33
39.080        27
39.090        47
39.100        20
39.110        27
39.120        20
39.130        13
39.140        27
39.150        27
39.160        47
39.170        60
39.180        13
39.190        40
39.200        40
39.210        27
39.220         7
39.230        33
39.240        53
39.250        13
39.260        27
39.270        13
39.280        53
39.290        27
39.300        27
39.310        53
39.320        40
39.330        47
39.340        27
39.350         7
39.360        40
39.370        20
39.380        33
39.390        27
39.400         7
39.410        27
39.420        27
39.430        13
39.440         0
39.450        47
39.460        27
39.470        20
39.480        20
39.490        13
39.500        33
39.510        47
39.520        20
39.530        33
39.540        20
39.550        53
39.560        13
39.570        33
39.580        20
39.590        40
39.600        47
39.610         7
39.620        20
39.630        20
39.640        13
39.650         7
39.660         7
39.670        40
39.680        13
39.690        20
39.700        27
39.710        47
39.720        40
39.730         7
39.740        27
39.750        33
39.760         0
39.770        60
39.780        20
39.790        20
39.800        27
39.810        20
39.820        27
39.830        47
39.840        13
39.850        33
39.860         7
39.870        27
39.880        13
39.890        33
39.900        27
39.910        13
39.920        27
39.930         7
39.940        40
39.950        27
39.960        33
39.970        27
39.980        33
39.990        33
40.000         7
40.010        13
40.020        27
40.030        27
40.040        13
40.050        47
40.060        27
40.070        47
40.080        27
40.090        27
40.100        40
40.110        27
40.120         7
40.130        27
40.140        40
40.150        20
40.160        20
40.170        33
40.180        47
40.190        33
40.200        47
40.210        33
40.220        47
40.230        27
40.240        47
40.250        40
40.260        13
40.270         0
40.280        40
40.290        27
40.300        40
40.310        27
40.320        40
40.330        33
40.340         7
40.350        33
40.360         7
40.370        13
40.380        33
40.390        47
40.400         7
40.410         7
40.420        20
40.430        33
40.440        27
40.450        20
40.460        33
40.470         7
40.480        13
40.490        33
40.500        33
40.510        13
40.520         7
40.530        20
40.540         7
40.550         7
40.560        20
40.570        40
40.580        27
40.590        13
40.600        20
40.610        27
40.620        53
40.630        27
40.640        27
40.650        33
40.660         7
40.670        40
40.680        20
40.690        47
40.700        33
40.710        40
40.720        33
40.730        20
40.740        40
40.750        20
40.760        27
40.770        47
40.780        20
40.790         7
40.800        53
40.810         7
40.820        27
40.830         7
40.840        20
40.850        20
40.860        27
40.870        13
40.880        33
40.890        27
40.900        20
40.910        20
40.920        13
40.930        27
40.940        13
40.950        13
40.960        20
40.970        20
40.980        40
40.990        33
41.000         0
41.010         0
41.020        40
41.030        13
41.040        27
41.050        20
41.060        47
41.070         0
41.080        27
41.090        33
41.100        27
41.110        13
41.120        40
41.130        20
41.140        20
41.150        33
41.160        33
41.170        20
41.180        40
41.190        13
41.200        13
41.210        33
41.220        20
41.230        20
41.240        13
41.250        20
41.260        33
41.270        13
41.280        13
41.290        13
41.300         0
41.310        53
41.320        20
41.330         7
41.340        20
41.350        33
41.360        20
41.370        27
41.380        33
41.390         7
41.400        20
41.410        13
41.420        33
41.430         7
41.440        13
41.450        40
41.460        20
41.470        33
41.480        13
41.490         7
41.500        33
41.510        27
41.520        20
41.530        20
41.540        20
41.550        20
41.560        27
41.570        40
41.580        20
41.590        27
41.600        33
41.610        40
41.620        20
41.630        53
41.640        47
41.650        53
41.660        73
41.670        53
41.680        60
41.690        60
41.700        47
41.710        27
41.720        33
41.730        53
41.740        33
41.750        13
41.760        33
41.770        20
41.780        67
41.790        27
41.800        27
41.810        20
41.820        27
41.830        33
41.840        33
41.850        13
41.860        27
41.870        33
41.880         7
41.890        40
41.900        33
41.910        13
41.920        33
41.930         7
41.940        13
41.950        13
41.960        20
41.970        20
41.980        47
41.990         7
42.000        33
42.010        27
42.020        27
42.030        27
42.040        27
42.050        33
42.060        20
42.070        27
42.080        33
42.090        20
42.100        33
42.110        27
42.120        27
42.130        20
42.140        33
42.150        20
42.160        33
42.170        27
42.180        33
42.190        47
42.200        27
42.210        27
42.220        27
42.230        13
42.240        20
42.250        47
42.260        27
42.270        33
42.280        27
42.290        40
42.300        20
42.310        53
42.320        53
42.330        13
42.340        60
42.350        47
42.360        40
42.370        60
42.380        40
42.390        40
42.400        13
42.410        13
42.420        40
42.430        13
42.440        33
42.450        40
42.460        47
42.470        47
42.480        53
42.490        40
42.500        40
42.510        47
42.520        53
42.530        13
42.540        20
42.550        47
42.560        27
42.570        27
42.580        27
42.590        20
42.600        27
42.610        40
42.620        27
42.630        20
42.640        20
42.650        20
42.660        40
42.670        47
42.680        27
42.690        47
42.700        27
42.710        33
42.720        33
42.730        40
42.740        13
42.750        20
42.760        27
42.770        33
42.780        53
42.790        40
42.800        67
42.810         7
42.820        27
42.830        67
42.840        13
42.850         7
42.860        67
42.870        33
42.880         7
42.890        60
42.900        40
42.910        40
42.920        33
42.930        40
42.940        40
42.950        47
42.960        67
42.970        27
42.980        53
42.990        27
43.000        33
43.010        13
43.020        33
43.030        33
43.040        40
43.050        53
43.060        40
43.070        40
43.080        53
43.090         7
43.100        27
43.110        53
43.120        27
43.130        40
43.140        47
43.150        53
43.160        47
43.170         7
43.180        47
43.190        47
43.200        67
43.210        47
43.220        73
43.230        20
43.240        73
43.250        53
43.260        27
43.270        53
43.280       100
43.290        60
43.300       127
43.310       147
43.320       227
43.330       260
43.340       260
43.350       347
43.360       267
43.370       253
43.380       260
43.390       193
43.400       133
43.410        87
43.420        80
43.430       113
43.440       120
43.450       173
43.460       140
43.470       167
43.480       160
43.490       200
43.500        87
43.510        53
43.520        40
43.530        40
43.540        33
43.550        27
43.560        87
43.570        40
43.580        27
43.590        60
43.600        33
43.610        13
43.620        33
43.630        47
43.640        33
43.650        40
43.660        27
43.670         7
43.680        20
43.690        13
43.700        33
43.710        13
43.720        20
43.730         0
43.740        13
43.750        20
43.760        27
43.770        20
43.780        13
43.790        20
43.800         7
43.810         0
43.820        33
43.830        20
43.840        33
43.850         7
43.860        47
43.870        27
43.880        20
43.890        47
43.900        20
43.910        13
43.920        13
43.930         7
43.940        33
43.950        13
43.960         7
43.970        20
43.980        20
43.990        33
44.000        33
44.010        20
44.020        27
44.030        33
44.040        27
44.050        13
44.060        27
44.070        33
44.080        13
44.090        20
44.100        27
44.110         7
44.120         0
44.130        33
44.140        40
44.150        20
44.160         0
44.170        27
44.180        27
44.190        20
44.200        27
44.210        33
44.220        13
44.230        33
44.240        13
44.250        20
44.260        53
44.270        47
44.280         7
44.290        13
44.300        13
44.310        20
44.320        13
44.330        33
44.340        33
44.350        20
44.360        33
44.370        20
44.380         7
44.390        47
44.400        20
44.410        27
44.420        27
44.430        47
44.440        20
44.450        27
44.460        27
44.470         0
44.480        20
44.490        27
44.500        20
44.510        47
44.520        27
44.530         7
44.540        13
44.550        27
44.560        13
44.570        33
44.580        13
44.590        47
44.600        20
44.610        27
44.620        40
44.630        27
44.640        27
44.650        33
44.660        27
44.670        27
44.680        27
44.690        40
44.700        33
44.710         7
44.720        47
44.730        20
44.740        20
44.750        20
44.760        33
44.770        40
44.780        27
44.790        53
44.800        27
44.810        40
44.820        47
44.830        20
44.840        20
44.850        33
44.860        33
44.870        47
44.880        47
44.890        27
44.900         7
44.910        33
44.920        33
44.930        40
44.940        33
44.950        27
44.960        13
44.970        13
44.980         7
44.990        27
45.000        13
45.010         7
45.020        13
45.030        47
45.040         7
45.050        20
45.060        40
45.070        27
45.080        27
45.090        20
45.100        73
45.110        40
45.120        47
45.130        40
45.140        27
45.150        13
45.160        27
45.170        13
45.180        13
45.190        13
45.200        33
45.210        33
45.220        13
45.230        20
45.240        20
45.250        33
45.260        20
45.270        20
45.280        20
45.290        13
45.300        40
45.310        27
45.320        40
45.330        13
45.340         7
45.350        40
45.360        33
45.370        47
45.380        20
45.390        27
45.400        20
45.410        33
45.420         7
45.430        40
45.440        53
45.450        20
45.460        27
45.470        40
45.480        40
45.490        20
45.500        20
45.510        13
45.520        33
45.530        33
45.540        33
45.550        47
45.560        33
45.570        20
45.580        20
45.590        40
45.600        33
45.610        20
45.620        33
45.630        33
45.640        47
45.650        13
45.660        27
45.670        33
45.680        40
45.690        13
45.700        27
45.710        27
45.720        13
45.730         7
45.740        33
45.750        13
45.760        20
45.770        20
45.780        47
45.790        40
45.800        27
45.810         7
45.820        27
45.830        53
45.840        27
45.850        40
45.860        40
45.870        13
45.880        27
45.890        33
45.900        40
45.910        47
45.920        13
45.930        33
45.940        20
45.950        20
45.960        47
45.970        73
45.980        33
45.990        27
46.000        27
46.010        40
46.020        53
46.030        40
46.040        67
46.050        40
46.060        60
46.070        67
46.080        33
46.090        33
46.100        33
46.110        20
46.120        27
46.130        33
46.140        20
46.150        33
46.160        47
46.170        40
46.180        27
46.190        60
46.200        47
46.210        33
46.220        27
46.230        33
46.240        20
46.250        27
46.260        27
46.270        20
46.280        27
46.290        40
46.300        13
46.310        13
46.320        47
46.330        33
46.340        40
46.350        27
46.360        20
46.370        33
46.380        40
46.390        40
46.400        13
46.410        20
46.420        33
46.430        40
46.440        20
46.450        33
46.460        60
46.470        47
46.480        47
46.490        20
46.500        27
46.510        13
46.520        20
46.530        33
46.540        53
46.550        20
46.560        20
46.570        27
46.580        40
46.590         7
46.600         7
46.610        27
46.620        13
46.630        20
46.640        27
46.650        20
46.660        40
46.670         7
46.680        27
46.690        47
46.700        13
46.710        20
46.720        20
46.730        47
46.740        60
46.750        13
46.760        33
46.770        27
46.780        27
46.790        53
46.800        67
46.810        33
46.820        73
46.830        20
46.840        40
46.850        27
46.860        47
46.870        33
46.880        20
46.890        73
46.900        40
46.910        27
46.920        27
46.930        60
46.940         7
46.950        40
46.960        47
46.970        47
46.980        47
46.990        53
47.000        33
47.010        33
47.020        53
47.030        40
47.040        33
47.050        13
47.060        20
47.070        33
47.080        47
47.090        40
47.100        33
47.110        33
47.120        13
47.130        40
47.140        33
47.150        20
47.160        33
47.170        13
47.180        13
47.190        20
47.200        27
47.210        20
47.220         7
47.230        60
47.240        20
47.250        20
47.260         7
47.270        40
47.280        27
47.290        53
47.300        40
47.310        20
47.320        47
47.330        40
47.340        13
47.350        13
47.360        27
47.370        20
47.380        27
47.390        33
47.400        53
47.410        27
47.420        13
47.430        47
47.440        33
47.450        53
47.460        13
47.470        27
47.480        20
47.490        27
47.500        33
47.510        27
47.520        33
47.530        20
47.540         0
47.550        33
47.560        33
47.570        33
47.580        13
47.590        20
47.600        33
47.610        27
47.620        33
47.630        33
47.640        40
47.650        13
47.660         7
47.670        20
47.680        20
47.690        27
47.700         0
47.710         7
47.720        13
47.730        20
47.740         7
47.750        40
47.760        13
47.770         7
47.780        27
47.790        33
47.800        33
47.810        13
47.820        13
47.830        27
47.840         7
47.850        33
47.860        40
47.870        47
47.880        20
47.890        40
47.900        20
47.910        27
47.920         7
47.930        47
47.940        13
47.950        33
47.960         0
47.970        13
47.980        20
47.990         7
48.000        13
48.010        13
48.020        47
48.030        33
48.040        13
48.050        20
48.060        27
48.070        27
48.080        20
48.090        33
48.100        40
48.110        40
48.120        20
48.130         7
48.140        47
48.150        20
48.160        13
48.170         7
48.180        33
48.190        33
48.200        33
48.210        27
48.220        27
48.230        27
48.240        27
48.250        33
48.260         7
48.270        47
48.280         7
48.290        13
48.300        47
48.310        27
48.320        13
48.330        13
48.340        27
48.350        60
48.360        40
48.370        60
48.380        27
48.390        27
48.400        33
48.410        20
48.420        20
48.430        40
48.440        60
48.450         7
48.460         0
48.470        40
48.480        33
48.490        27
48.500        13
48.510         7
48.520        27
48.530         7
48.540        20
48.550        13
48.560        13
48.570        20
48.580        27
48.590        33
48.600         0
48.610        27
48.620        20
48.630        20
48.640        27
48.650        27
48.660         7
48.670        13
48.680        20
48.690        20
48.700         7
48.710        13
48.720         7
48.730        47
48.740        33
48.750        33
48.760        33
48.770        27
48.780        13
48.790        13
48.800        20
48.810        27
48.820        20
48.830        33
48.840        27
48.850        33
48.860        13
48.870        33
48.880        27
48.890        27
48.900        20
48.910        33
48.920        40
48.930        20
48.940        27
48.950        40
48.960        53
48.970        40
48.980        33
48.990        20
49.000        40
49.010         7
49.020        40
49.030        33
49.040        20
49.050        33
49.060        40
49.070        20
49.080        60
49.090        60
49.100        33
49.110        20
49.120        33
49.130        20
49.140        33
49.150        47
49.160        40
49.170        33
49.180        60
49.190         0
49.200        47
49.210        20
49.220        20
49.230        13
49.240        27
49.250        27
49.260        40
49.270        27
49.280        20
49.290         0
49.300        47
49.310        27
49.320        13
49.330        13
49.340        20
49.350        20
49.360        20
49.370         0
49.380        27
49.390         7
49.400         7
49.410        33
49.420        20
49.430        33
49.440         7
49.450        33
49.460        13
49.470        20
49.480         7
49.490        27
49.500        40
49.510         7
49.520        13
49.530        13
49.540        27
49.550         0
49.560        13
49.570        47
49.580        40
49.590        53
49.600        13
49.610        13
49.620        13
49.630        13
49.640        13
49.650         0
49.660        20
49.670        20
49.680        13
49.690        20
49.700         7
49.710         7
49.720        33
49.730        13
49.740        33
49.750        20
49.760        20
49.770        27
49.780        13
49.790        33
49.800         0
49.810        33
49.820        13
49.830        40
49.840        20
49.850        40
49.860        53
49.870        20
49.880        20
49.890        27
49.900        33
49.910        20
49.920        33
49.930        53
49.940        20
49.950        40
49.960        20
49.970        33
49.980        20
49.990        33
50.000        20
50.010        27
50.020        60
50.030        20
50.040        27
50.050        40
50.060        40
50.070        47
50.080        20
50.090        20
50.100        20
50.110        33
50.120        27
50.130         0
50.140        13
50.150        40
50.160        40
50.170         7
50.180        47
50.190        33
50.200         7
50.210        27
50.220        40
50.230        20
50.240        20
50.250        27
50.260        20
50.270        27
50.280        27
50.290        13
50.300        13
50.310        40
50.320        13
50.330        40
50.340        40
50.350         7
50.360        20
50.370        27
50.380        20
50.390        27
50.400        27
50.410         7
50.420        33
50.430        60
50.440        33
50.450        13
50.460         7
50.470        20
50.480        13
50.490        27
50.500        27
50.510        13
50.520        13
50.530        27
50.540         7
50.550        13
50.560        47
50.570        20
50.580        27
50.590        13
50.600        20
50.610        33
50.620        20
50.630        20
50.640         7
50.650        20
50.660         7
50.670        33
50.680        40
50.690        20
50.700         7
50.710        20
50.720        27
50.730         0
50.740        33
50.750        40
50.760        13
50.770        13
50.780        20
50.790        60
50.800        27
50.810        20
50.820         7
50.830        13
50.840        20
50.850        13
50.860        13
50.870        13
50.880        13
50.890        33
50.900         7
50.910        20
50.920        27
50.930        20
50.940        33
50.950        33
50.960        47
50.970        33
50.980        27
50.990         7
51.000        33
51.010        33
51.020        33
51.030        27
51.040         0
51.050        33
51.060        33
51.070        13
51.080        40
51.090        27
51.100        27
51.110        20
51.120        13
51.130        13
51.140        40
51.150        27
51.160        40
51.170         7
51.180        27
51.190        33
51.200        33
51.210        27
51.220         7
51.230        20
51.240        20
51.250        13
51.260        20
51.270        13
51.280        13
51.290         0
51.300         7
51.310         0
51.320        27
51.330         7
51.340         7
51.350        13
51.360        27
51.370        13
51.380        20
51.390        27
51.400         7
51.410        33
51.420        13
51.430        13
51.440        13
51.450        20
51.460        33
51.470        53
51.480        20
51.490        27
51.500        27
51.510        13
51.520         7
51.530        33
51.540        33
51.550        27
51.560        27
51.570        33
51.580        27
51.590        33
51.600        27
51.610        13
51.620        47
51.630        33
51.640        27
51.650        27
51.660        33
51.670         7
51.680        53
51.690        47
51.700        40
51.710        33
51.720        13
51.730        40
51.740        47
51.750        47
51.760        47
51.770        27
51.780        67
51.790        47
51.800        20
51.810        60
51.820        60
51.830        33
51.840        27
51.850        47
51.860        60
51.870        27
51.880        67
51.890        87
51.900        27
51.910        27
51.920        73
51.930        33
51.940        27
51.950        27
51.960        27
51.970        47
51.980        47
51.990        27
52.000        53
52.010        60
52.020        33
52.030        20
52.040        27
52.050       147
52.060        33
52.070        40
52.080        27
52.090        27
52.100        33
52.110        40
52.120        20
52.130        13
52.140        40
52.150        47
52.160        13
52.170        60
52.180        53
52.190        27
52.200        33
52.210        13
52.220        33
52.230        33
52.240        40
52.250        20
52.260        47
52.270        13
52.280        40
52.290        27
52.300        20
52.310        27
52.320        13
52.330        33
52.340        47
52.350         0
52.360        47
52.370        33
52.380         0
52.390        33
52.400         0
52.410         7
52.420        33
52.430        27
52.440        40
52.450        20
52.460        33
52.470        27
52.480         7
52.490        33
52.500        40
52.510        67
52.520        33
52.530        60
52.540        27
52.550        47
52.560        67
52.570        60
52.580        73
52.590        67
52.600        33
52.610        27
52.620        13
52.630        33
52.640        33
52.650        60
52.660        27
52.670        20
52.680        27
52.690        47
52.700        47
52.710        27
52.720        73
52.730        20
52.740        80
52.750        47
52.760        13
52.770        13
52.780        27
52.790        20
52.800        33
52.810         7
52.820        13
52.830        33
52.840        33
52.850        33
52.860        33
52.870        27
52.880        33
52.890        13
52.900        13
52.910        20
52.920        27
52.930        13
52.940        13
52.950        27
52.960        13
52.970        33
52.980        27
52.990         7
53.000        27
53.010         7
53.020        27
53.030         0
53.040        20
53.050         7
53.060        20
53.070        13
53.080        20
53.090        27
53.100        53
53.110        47
53.120        13
53.130        47
53.140        40
53.150         7
53.160        13
53.170        20
53.180        33
53.190        20
53.200        13
53.210        20
53.220        40
53.230        33
53.240        13
53.250        20
53.260        13
53.270        20
53.280        33
53.290        27
53.300         0
53.310        27
53.320        20
53.330        27
53.340        27
53.350        20
53.360         0
53.370        33
53.380         0
53.390        27
53.400         0
53.410         7
53.420         7
53.430        20
53.440        27
53.450        27
53.460        20
53.470        20
53.480        20
53.490        33
53.500        47
53.510        20
53.520        33
53.530         7
53.540        20
53.550        13
53.560        13
53.570        20
53.580        20
53.590         7
53.600        40
53.610        40
53.620        20
53.630        20
53.640        20
53.650        40
53.660        13
53.670         0
53.680         0
53.690         7
53.700        13
53.710        27
53.720        20
53.730        13
53.740        40
53.750        47
53.760        47
53.770        13
53.780        40
53.790        53
53.800        40
53.810        20
53.820        27
53.830        20
53.840        20
53.850        27
53.860        13
53.870        20
53.880        20
53.890        13
53.900        13
53.910        20
53.920        13
53.930         7
53.940        33
53.950        20
53.960        20
53.970        13
53.980        13
53.990         0
54.000         7
54.010        13
54.020        27
54.030        13
54.040        20
54.050        20
54.060        20
54.070        20
54.080        27
54.090        27
54.100        27
54.110        33
54.120        20
54.130        13
54.140        27
54.150        40
54.160        33
54.170         7
54.180        20
54.190         7
54.200        13
54.210        20
54.220        33
54.230        27
54.240        27
54.250        20
54.260        20
54.270         7
54.280        27
54.290        27
54.300        40
54.310        47
54.320        27
54.330        27
54.340        20
54.350        13
54.360        20
54.370        13
54.380         7
54.390        20
54.400        13
54.410        27
54.420        13
54.430        33
54.440        20
54.450         7
54.460        27
54.470        27
54.480        33
54.490        20
54.500        13
54.510        33
54.520        33
54.530        33
54.540        33
54.550        20
54.560         0
54.570        40
54.580        20
54.590        60
54.600        33
54.610        20
54.620         0
54.630         7
54.640        20
54.650        13
54.660        13
54.670        13
54.680        33
54.690        40
54.700        20
54.710        33
54.720        27
54.730        33
54.740         7
54.750        13
54.760        20
54.770        20
54.780        13
54.790        13
54.800        47
54.810         7
54.820         7
54.830        13
54.840        47
54.850         0
54.860        13
54.870        47
54.880        53
54.890        20
54.900        27
54.910        27
54.920         0
54.930        47
54.940        20
54.950        33
54.960        27
54.970        20
54.980        33
54.990        33
55.000        40
55.010        20
55.020        27
55.030        33
55.040        13
55.050        13
55.060        33
55.070        20
55.080        47
55.090         7
55.100        13
55.110        27
55.120        27
55.130        20
55.140        13
55.150        13
55.160        40
55.170        13
55.180        47
55.190        20
55.200        40
55.210        33
55.220        20
55.230        27
55.240        13
55.250        27
55.260        27
55.270        27
55.280         7
55.290         7
55.300         7
55.310         7
55.320        20
55.330        27
55.340        20
55.350        13
55.360        13
55.370        20
55.380        33
55.390        33
55.400         7
55.410        27
55.420        40
55.430        20
55.440        27
55.450        13
55.460         7
55.470        27
55.480         0
55.490        20
55.500        20
55.510        13
55.520        20
55.530        20
55.540         0
55.550        13
55.560        47
55.570        53
55.580        33
55.590        27
55.600        13
55.610        20
55.620        13
55.630        47
55.640        13
55.650        20
55.660        20
55.670        20
55.680        13
55.690         7
55.700        20
55.710        13
55.720         7
55.730        20
55.740        20
55.750        27
55.760        33
55.770        27
55.780        20
55.790        27
55.800        33
55.810        20
55.820        40
55.830        47
55.840        27
55.850        47
55.860        47
55.870        47
55.880        33
55.890        20
55.900        27
55.910        47
55.920        40
55.930        13
55.940        27
55.950        20
55.960        40
55.970         7
55.980         7
55.990        13
56.000        13
56.010        27
56.020        20
56.030        27
56.040        47
56.050        20
56.060         7
56.070        40
56.080        33
56.090        13
56.100        40
56.110        33
56.120        53
56.130        27
56.140        47
56.150        47
56.160        53
56.170        33
56.180        47
56.190        33
56.200        20
56.210        20
56.220        27
56.230        33
56.240        13
56.250        27
56.260        33
56.270        13
56.280        13
56.290        40
56.300        40
56.310        33
56.320         7
56.330        20
56.340        40
56.350        27
56.360         7
56.370        40
56.380        33
56.390        13
56.400        27
56.410        20
56.420        33
56.430        27
56.440        13
56.450        13
56.460        40
56.470        20
56.480        47
56.490        67
56.500        13
56.510        13
56.520        13
56.530        13
56.540        20
56.550         7
56.560        33
56.570        33
56.580        27
56.590        20
56.600        27
56.610        33
56.620        47
56.630        33
56.640        20
56.650        13
56.660        27
56.670         0
56.680         0
56.690        13
56.700        20
56.710        13
56.720        53
56.730        13
56.740        20
56.750        27
56.760        40
56.770        40
56.780        27
56.790         7
56.800        27
56.810        13
56.820        40
56.830        20
56.840        40
56.850        27
56.860        27
56.870        27
56.880        27
56.890        40
56.900        20
56.910        27
56.920        13
56.930        27
56.940        20
56.950        27
56.960        40
56.970        13
56.980        20
56.990        13
57.000        13
57.010        27
57.020        20
57.030        20
57.040        13
57.050        20
57.060        20
57.070        13
57.080        27
57.090        27
57.100        13
57.110        20
57.120        40
57.130        20
57.140         7
57.150        27
57.160        40
57.170        20
57.180        27
57.190         7
57.200        13
57.210        20
57.220        33
57.230        20
57.240        20
57.250        20
57.260        33
57.270        33
57.280        33
57.290        27
57.300        27
57.310        20
57.320        33
57.330        40
57.340        47
57.350        47
57.360        47
57.370        20
57.380        53
57.390        53
57.400        60
57.410        53
57.420        53
57.430        47
57.440       113
57.450        60
57.460        93
57.470        87
57.480       133
57.490       133
57.500       133
57.510       213
57.520       147
57.530       220
57.540       300
57.550       200
57.560       200
57.570       147
57.580       167
57.590        80
57.600        93
57.610        67
57.620        40
57.630        80
57.640        73
57.650       100
57.660        87
57.670       200
57.680       173
57.690       100
57.700       173
57.710       127
57.720       127
57.730       127
57.740        67
57.750        73
57.760        73
57.770        27
57.780        33
57.790        47
57.800        60
57.810        13
57.820        33
57.830        33
57.840        13
57.850        60
57.860        33
57.870        27
57.880        27
57.890        20
57.900         7
57.910         7
57.920        27
57.930        67
57.940        27
57.950        33
57.960        27
57.970        33
57.980        20
57.990         7
58.000        60
58.010        27
58.020        40
58.030        13
58.040        33
58.050        20
58.060        33
58.070        33
58.080        20
58.090        13
58.100        20
58.110        47
58.120        40
58.130        27
58.140        40
58.150         0
58.160        27
58.170         7
58.180        47
58.190        20
58.200        13
58.210        47
58.220        33
58.230        27
58.240        13
58.250        20
58.260        13
58.270         7
58.280        13
58.290        20
58.300        20
58.310        27
58.320        33
58.330        27
58.340         7
58.350        27
58.360        13
58.370        20
58.380        20
58.390        13
58.400         7
58.410        13
58.420         0
58.430        20
58.440        20
58.450        27
58.460         7
58.470        13
58.480        27
58.490        27
58.500        33
58.510        20
58.520        13
58.530        20
58.540        20
58.550        13
58.560        27
58.570        20
58.580         7
58.590         7
58.600        20
58.610         0
58.620        40
58.630        27
58.640        27
58.650        13
58.660        20
58.670        33
58.680        27
58.690        33
58.700        40
58.710        20
58.720        13
58.730         7
58.740        33
58.750        13
58.760         7
58.770        20
58.780        13
58.790        20
58.800        53
58.810        27
58.820        20
58.830         7
58.840        40
58.850        27
58.860        27
58.870        20
58.880        33
58.890        13
58.900        20
58.910        20
58.920        13
58.930        27
58.940         0
58.950         7
58.960        27
58.970         0
58.980         0
58.990        13
59.000        13
59.010         7
59.020         7
59.030        33
59.040        33
59.050        27
59.060        40
59.070        20
59.080        20
59.090        20
59.100        13
59.110        13
59.120        20
59.130        13
59.140         0
59.150        13
59.160        20
59.170        13
59.180        27
59.190        13
59.200        13
59.210        20
59.220        27
59.230        27
59.240        27
59.250        27
59.260         7
59.270        20
59.280        53
59.290        13
59.300        27
59.310        40
59.320        20
59.330        13
59.340        27
59.350        20
59.360        27
59.370        13
59.380        27
59.390         7
59.400         7
59.410        13
59.420        47
59.430        27
59.440        13
59.450        20
59.460        27
59.470        20
59.480        13
59.490        33
59.500        27
59.510         7
59.520        13
59.530        27
59.540        13
59.550        20
59.560         7
59.570        13
59.580        33
59.590        33
59.600        27
59.610        33
59.620        13
59.630        47
59.640        13
59.650        27
59.660        13
59.670        27
59.680        20
59.690        27
59.700        27
59.710        20
59.720        20
59.730         7
59.740        53
59.750        40
59.760        27
59.770         7
59.780        33
59.790        40
59.800        13
59.810        13
59.820        13
59.830        27
59.840        40
59.850        20
59.860        27
59.870        27
59.880        20
59.890        20
59.900        27
59.910        13
59.920        13
59.930        13
59.940         7
59.950        13
59.960        27
59.970        27
59.980        20
59.990        20
60.000        20
