20.000        40
20.010        40
20.020        60
20.030       133
20.040       100
20.050       113
20.060        87
20.070       127
20.080       127
20.090       180
20.100       140
20.110       127
20.120       127
20.130       127
20.140       160
20.150       120
20.160       120
20.170       120
20.180       127
20.190       127
20.200       133
20.210       107
20.220       127
20.230        67
20.240        87
20.250       140
20.260       113
20.270        60
20.280       120
20.290        87
20.300        60
20.310        47
20.320        87
20.330        73
20.340        93
20.350        73
20.360        47
20.370        40
20.380        60
20.390        80
20.400        80
20.410        73
20.420        87
20.430        80
20.440        60
20.450       100
20.460       127
20.470        60
20.480       107
20.490        93
20.500       120
20.510        87
20.520        80
20.530        87
20.540        73
20.550        87
20.560        60
20.570        73
20.580        93
20.590        60
20.600        27
20.610        67
20.620        80
20.630        67
20.640        87
20.650        73
20.660       100
20.670        93
20.680        47
20.690        67
20.700        73
20.710       140
20.720        73
20.730        67
20.740       107
20.750        73
20.760       107
20.770        67
20.780        73
20.790       100
20.800        67
20.810        73
20.820        60
20.830        53
20.840        87
20.850        47
20.860        73
20.870        73
20.880       133
20.890        93
20.900        93
20.910       140
20.920       107
20.930        47
20.940       107
20.950        73
20.960        73
20.970        53
20.980        87
20.990        87
21.000        93
21.010        87
21.020        93
21.030        80
21.040        93
21.050        87
21.060        53
21.070        67
21.080       100
21.090        60
21.100       100
21.110        53
21.120        40
21.130        80
21.140        67
21.150        93
21.160        87
21.170        47
21.180        60
21.190       107
21.200        53
21.210        87
21.220       100
21.230        93
21.240       107
21.250        73
21.260        87
21.270        93
21.280        47
21.290       113
21.300        73
21.310        80
21.320        60
21.330        60
21.340        73
21.350        73
21.360        60
21.370        93
21.380        80
21.390        67
21.400        47
21.410        40
21.420       100
21.430        87
21.440        80
21.450        47
21.460       100
21.470        60
21.480        87
21.490        87
21.500       107
21.510       113
21.520        73
21.530        53
21.540        27
21.550        60
21.560        60
21.570        60
21.580       107
21.590        73
21.600        73
21.610       127
21.620        73
21.630        87
21.640        87
21.650        87
21.660        93
21.670       113
21.680       140
21.690       133
21.700       107
21.710        93
21.720        73
21.730       160
21.740        73
21.750       107
21.760       147
21.770        73
21.780        87
21.790        27
21.800        93
21.810       180
21.820       127
21.830       113
21.840       120
21.850       120
21.860       107
21.870       127
21.880        93
21.890        87
21.900       133
21.910       120
21.920       133
21.930       120
21.940       120
21.950       113
21.960       153
21.970       160
21.980       113
21.990       133
22.000       133
22.010       127
22.020       173
22.030       167
22.040       120
22.050       167
22.060       160
22.070       140
22.080       120
22.090       153
22.100       147
22.110       147
22.120       127
22.130       160
22.140        80
22.150       120
22.160       193
22.170       133
22.180       140
22.190       127
22.200       207
22.210       140
22.220       187
22.230       173
22.240       140
22.250       173
22.260       207
22.270       233
22.280       173
22.290       227
22.300       253
22.310       240
22.320       233
22.330       300
22.340       347
22.350       340
22.360       333
22.370       426
22.380       453
22.390       400
22.400       553
22.410       520
22.420       560
22.430       573
22.440       626
22.450       820
22.460       746
22.470       760
22.480       786
22.490       806
22.500       913
22.510       740
22.520       726
22.530       640
22.540       626
22.550       633
22.560       706
22.570       626
22.580       533
22.590       480
22.600       466
22.610       420
22.620       367
22.630       353
22.640       340
22.650       307
22.660       267
22.670       293
22.680       313
22.690       213
22.700       187
22.710       173
22.720       220
22.730       187
22.740       193
22.750       193
22.760       187
22.770       213
22.780       160
22.790       173
22.800       167
22.810       213
22.820       153
22.830       160
22.840       180
22.850       180
22.860       160
22.870       200
22.880       187
22.890       180
22.900       267
22.910       213
22.920       253
22.930       240
22.940       193
22.950       347
22.960       207
22.970       260
22.980       240
22.990       247
23.000       273
23.010       293
23.020       247
23.030       260
23.040       253
23.050       347
23.060       506
23.070       606
23.080       886
23.090      1080
23.100      1013
23.110      1146
23.120      1200
23.130      1153
23.140       926
23.150       553
23.160       460
23.170       407
23.180       293
23.190       313
23.200       360
23.210       207
23.220       220
23.230       200
23.240       253
23.250       253
23.260       213
23.270       233
23.280       207
23.290       153
23.300       160
23.310       180
23.320       247
23.330       167
23.340       180
23.350       207
23.360       260
23.370       213
23.380       187
23.390       180
23.400       113
23.410       147
23.420       213
23.430       213
23.440       233
23.450       173
23.460       240
23.470       187
23.480       240
23.490       160
23.500       207
23.510       233
23.520       207
23.530       233
23.540       200
23.550       147
23.560       147
23.570       193
23.580       207
23.590       153
23.600       193
23.610       193
23.620       167
23.630       147
23.640       187
23.650       207
23.660       220
23.670       173
23.680       193
23.690       213
23.700       173
23.710       147
23.720       200
23.730       193
23.740       187
23.750       173
23.760       200
23.770       173
23.780       167
23.790       160
23.800       207
23.810       153
23.820       193
23.830       153
23.840       180
23.850       147
23.860       160
23.870       147
23.880       147
23.890       153
23.900       233
23.910       193
23.920       227
23.930       153
23.940       167
23.950       153
23.960       140
23.970       187
23.980       200
23.990       140
24.000       187
24.010       233
24.020       220
24.030       153
24.040       180
24.050       180
24.060       193
24.070       187
24.080       267
24.090       193
24.100       207
24.110       220
24.120       180
24.130       200
24.140       180
24.150       227
24.160       200
24.170       193
24.180       187
24.190       193
24.200       187
24.210       140
24.220       200
24.230       213
24.240       153
24.250       173
24.260       247
24.270       200
24.280       180
24.290       140
24.300       107
24.310       140
24.320       193
24.330       207
24.340       167
24.350       220
24.360       220
24.370       180
24.380       180
24.390       180
24.400       140
24.410       213
24.420       193
24.430       213
24.440       207
24.450       147
24.460       147
24.470       173
24.480       240
24.490       207
24.500       160
24.510       227
24.520       140
24.530       167
24.540       260
24.550       260
24.560       220
24.570       193
24.580       180
24.590       153
24.600       187
24.610       173
24.620       220
24.630       193
24.640       233
24.650       233
24.660       233
24.670       187
24.680       207
24.690       260
24.700       253
24.710       373
24.720       380
24.730       420
24.740       506
24.750       546
24.760       593
24.770       553
24.780       407
24.790       473
24.800       546
24.810       506
24.820       566
24.830       520
24.840       580
24.850       560
24.860       586
24.870       580
24.880       526
24.890       580
24.900       593
24.910       480
24.920       420
24.930       573
24.940       573
24.950       373
24.960       520
24.970       573
24.980       606
24.990       680
25.000       586
25.010       566
25.020       520
25.030       560
25.040       566
25.050       486
25.060       566
25.070       593
25.080       546
25.090       426
25.100       553
25.110       700
25.120       613
25.130       560
25.140       553
25.150       553
25.160       513
25.170       593
25.180       486
25.190       686
25.200       673
25.210       613
25.220       613
25.230       693
25.240       686
25.250       680
25.260       666
25.270       560
25.280       640
25.290       646
25.300       753
25.310       680
25.320       800
25.330       773
25.340       840
25.350       973
25.360      1013
25.370      1106
25.380      1333
25.390      1826
25.400      1973
25.410      2559
25.420      2972
25.430      3292
25.440      3645
25.450      4138
25.460      5131
25.470      5824
25.480      5858
25.490      6551
25.500      6451
25.510      7051
25.520      8143
25.530      8890
25.540     11329
25.550     17080
25.560     31234
25.570     51819
25.580     74697
25.590     90977
25.600     98127
25.610    102739
25.620    105038
25.630    106771
25.640     98267
25.650     85652
25.660     72324
25.670     63808
25.680     60303
25.690     56491
25.700     49420
25.710     37025
25.720     23277
25.730     13974
25.740      9876
25.750      7284
25.760      6218
25.770      5644
25.780      4465
25.790      4152
25.800      3572
25.810      2826
25.820      2399
25.830      2306
25.840      1853
25.850      1599
25.860      1339
25.870      1359
25.880      1066
25.890      1106
25.900       960
25.910       933
25.920       846
25.930       886
25.940       733
25.950       866
25.960       933
25.970       793
25.980       633
25.990       633
26.000       740
26.010       700
26.020       566
26.030       666
26.040       600
26.050       553
26.060       680
26.070       586
26.080       720
26.090       413
26.100       600
26.110       540
26.120       460
26.130       593
26.140       600
26.150       560
26.160       526
26.170       520
26.180       420
26.190       526
26.200       540
26.210       460
26.220       466
26.230       400
26.240       513
26.250       506
26.260       533
26.270       446
26.280       473
26.290       500
26.300       466
26.310       513
26.320       526
26.330       393
26.340       560
26.350       460
26.360       460
26.370       480
26.380       466
26.390       413
26.400       446
26.410       360
26.420       520
26.430       420
26.440       440
26.450       480
26.460       453
26.470       460
26.480       380
26.490       486
26.500       387
26.510       313
26.520       560
26.530       440
26.540       500
26.550       426
26.560       407
26.570       493
26.580       327
26.590       367
26.600       453
26.610       433
26.620       407
26.630       420
26.640       420
26.650       426
26.660       440
26.670       353
26.680       433
26.690       493
26.700       360
26.710       360
26.720       420
26.730       553
26.740       473
26.750       420
26.760       407
26.770       426
26.780       486
26.790       387
26.800       420
26.810       380
26.820       420
26.830       333
26.840       360
26.850       360
26.860       307
26.870       287
26.880       373
26.890       300
26.900       320
26.910       340
26.920       466
26.930       433
26.940       380
26.950       420
26.960       433
26.970       393
26.980       373
26.990       393
27.000       327
27.010       387
27.020       407
27.030       320
27.040       307
27.050       407
27.060       380
27.070       407
27.080       373
27.090       360
27.100       373
27.110       387
27.120       347
27.130       440
27.140       360
27.150       446
27.160       433
27.170       367
27.180       440
27.190       387
27.200       420
27.210       367
27.220       380
27.230       420
27.240       400
27.250       367
27.260       426
27.270       293
27.280       393
27.290       433
27.300       333
27.310       413
27.320       333
27.330       300
27.340       287
27.350       340
27.360       413
27.370       267
27.380       420
27.390       367
27.400       413
27.410       373
27.420       373
27.430       446
27.440       373
27.450       400
27.460       353
27.470       313
27.480       407
27.490       353
27.500       360
27.510       320
27.520       426
27.530       327
27.540       373
27.550       313
27.560       327
27.570       440
27.580       373
27.590       393
27.600       353
27.610       373
27.620       340
27.630       300
27.640       293
27.650       333
27.660       287
27.670       327
27.680       453
27.690       367
27.700       373
27.710       320
27.720       313
27.730       300
27.740       280
27.750       387
27.760       420
27.770       393
27.780       433
27.790       300
27.800       440
27.810       260
27.820       360
27.830       353
27.840       413
27.850       360
27.860       313
27.870       400
27.880       347
27.890       333
27.900       367
27.910       307
27.920       260
27.930       400
27.940       340
27.950       373
27.960       353
27.970       353
27.980       347
27.990       340
28.000       400
28.010       293
28.020       313
28.030       293
28.040       387
28.050       307
28.060       393
28.070       387
28.080       313
28.090       207
28.100       280
28.110       373
28.120       333
28.130       353
28.140       340
28.150       367
28.160       320
28.170       347
28.180       367
28.190       387
28.200       407
28.210       387
28.220       327
28.230       260
28.240       327
28.250       320
28.260       347
28.270       387
28.280       280
28.290       360
28.300       327
28.310       400
28.320       353
28.330       426
28.340       333
28.350       380
28.360       260
28.370       380
28.380       273
28.390       387
28.400       333
28.410       373
28.420       333
28.430       380
28.440       293
28.450       307
28.460       260
28.470       327
28.480       280
28.490       307
28.500       287
28.510       260
28.520       287
28.530       267
28.540       380
28.550       313
28.560       273
28.570       327
28.580       333
28.590       307
28.600       333
28.610       380
28.620       367
28.630       340
28.640       380
28.650       360
28.660       280
28.670       360
28.680       300
28.690       240
28.700       373
28.710       400
28.720       433
28.730       393
28.740       400
28.750       353
28.760       353
28.770       533
28.780       393
28.790       387
28.800       407
28.810       373
28.820       426
28.830       387
28.840       440
28.850       546
28.860       400
28.870       473
28.880       380
28.890       453
28.900       420
28.910       446
28.920       526
28.930       560
28.940       400
28.950       473
28.960       506
28.970       633
28.980       580
28.990       646
29.000       586
29.010       733
29.020       806
29.030       806
29.040      1040
29.050      1000
29.060      1186
29.070      1226
29.080      1220
29.090      1439
29.100      1279
29.110      1486
29.120      1493
29.130      1526
29.140      1559
29.150      1286
29.160      1319
29.170      1406
29.180      1006
29.190      1020
29.200      1073
29.210       873
29.220       860
29.230       693
29.240       693
29.250       693
29.260       546
29.270       553
29.280       460
29.290       506
29.300       446
29.310       426
29.320       506
29.330       500
29.340       380
29.350       393
29.360       340
29.370       407
29.380       460
29.390       426
29.400       446
29.410       466
29.420       540
29.430       433
29.440       413
29.450       453
29.460       460
29.470       493
29.480       513
29.490       546
29.500       566
29.510       580
29.520       606
29.530       726
29.540       860
29.550       700
29.560       773
29.570       680
29.580       680
29.590       773
29.600       640
29.610       640
29.620       706
29.630       680
29.640       693
29.650       460
29.660       620
29.670       546
29.680       480
29.690       540
29.700       373
29.710       393
29.720       393
29.730       446
29.740       367
29.750       393
29.760       380
29.770       287
29.780       327
29.790       293
29.800       320
29.810       413
29.820       480
29.830       300
29.840       287
29.850       293
29.860       293
29.870       260
29.880       200
29.890       340
29.900       267
29.910       367
29.920       293
29.930       233
29.940       260
29.950       273
29.960       193
29.970       293
29.980       273
29.990       307
30.000       267
30.010       293
30.020       347
30.030       327
30.040       273
30.050       280
30.060       273
30.070       253
30.080       300
30.090       420
30.100       327
30.110       200
30.120       267
30.130       320
30.140       367
30.150       327
30.160       340
30.170       327
30.180       267
30.190       293
30.200       280
30.210       347
30.220       367
30.230       380
30.240       413
30.250       393
30.260       387
30.270       446
30.280       313
30.290       440
30.300       393
30.310       600
30.320       367
30.330       520
30.340       493
30.350       546
30.360       526
30.370       633
30.380       706
30.390       540
30.400       586
30.410       753
30.420       640
30.430       766
30.440       473
30.450       520
30.460       493
30.470       546
30.480       440
30.490       466
30.500       400
30.510       426
30.520       373
30.530       300
30.540       287
30.550       300
30.560       367
30.570       360
30.580       273
30.590       367
30.600       327
30.610       260
30.620       313
30.630       320
30.640       240
30.650       273
30.660       293
30.670       320
30.680       287
30.690       287
30.700       273
30.710       260
30.720       253
30.730       280
30.740       233
30.750       293
30.760       273
30.770       200
30.780       200
30.790       280
30.800       220
30.810       207
30.820       253
30.830       267
30.840       207
30.850       220
30.860       220
30.870       260
30.880       287
30.890       260
30.900       240
30.910       180
30.920       267
30.930       173
30.940       207
30.950       220
30.960       233
30.970       293
30.980       233
30.990       273
31.000       220
31.010       327
31.020       260
31.030       233
31.040       247
31.050       187
31.060       240
31.070       233
31.080       213
31.090       253
31.100       240
31.110       233
31.120       153
31.130       187
31.140       247
31.150       193
31.160       280
31.170       200
31.180       267
31.190       273
31.200       260
31.210       253
31.220       293
31.230       253
31.240       247
31.250       180
31.260       287
31.270       253
31.280       193
31.290       180
31.300       220
31.310       193
31.320       260
31.330       300
31.340       293
31.350       227
31.360       240
31.370       307
31.380       220
31.390       233
31.400       313
31.410       300
31.420       280
31.430       247
31.440       347
31.450       247
31.460       280
31.470       307
31.480       253
31.490       347
31.500       327
31.510       307
31.520       187
31.530       287
31.540       353
31.550       340
31.560       293
31.570       520
31.580       380
31.590       387
31.600       367
31.610       466
31.620       353
31.630       460
31.640       440
31.650       340
31.660       413
31.670       573
31.680       473
31.690       433
31.700       473
31.710       433
31.720       453
31.730       426
31.740       373
31.750       353
31.760       407
31.770       380
31.780       393
31.790       253
31.800       260
31.810       267
31.820       260
31.830       280
31.840       353
31.850       287
31.860       273
31.870       187
31.880       233
31.890       220
31.900       207
31.910       273
31.920       307
31.930       193
31.940       193
31.950       220
31.960       247
31.970       240
31.980       207
31.990       233
32.000       280
32.010       233
32.020       307
32.030       260
32.040       273
32.050       253
32.060       393
32.070       333
32.080       373
32.090       407
32.100       333
32.110       373
32.120       287
32.130       320
32.140       247
32.150       340
32.160       327
32.170       313
32.180       273
32.190       173
32.200       307
32.210       260
32.220       240
32.230       347
32.240       273
32.250       207
32.260       160
32.270       247
32.280       187
32.290       227
32.300       153
32.310       207
32.320       153
32.330       193
32.340       220
32.350       200
32.360       240
32.370       200
32.380       207
32.390       187
32.400       187
32.410       167
32.420       213
32.430       167
32.440       153
32.450       200
32.460       193
32.470       153
32.480       180
32.490       173
32.500       140
32.510       220
32.520       220
32.530       213
32.540       287
32.550       220
32.560       220
32.570       207
32.580       220
32.590       147
32.600       220
32.610       233
32.620       200
32.630       127
32.640       173
32.650       207
32.660       173
32.670       287
32.680       213
32.690       300
32.700       253
32.710       287
32.720       160
32.730       200
32.740       213
32.750       200
32.760       233
32.770       213
32.780       213
32.790       180
32.800       287
32.810       187
32.820       287
32.830       233
32.840       247
32.850       200
32.860       207
32.870       173
32.880       180
32.890       207
32.900       160
32.910       187
32.920       153
32.930       180
32.940       193
32.950       153
32.960       207
32.970       207
32.980       173
32.990       140
33.000       133
33.010       193
33.020       147
33.030       187
33.040       240
33.050       167
33.060       207
33.070       147
33.080       173
33.090       180
33.100       147
33.110       120
33.120       120
33.130       153
33.140       120
33.150       120
33.160       140
33.170       213
33.180       127
33.190       193
33.200       220
33.210       120
33.220       160
33.230       140
33.240       180
33.250       180
33.260       167
33.270       173
33.280       160
33.290       160
33.300       160
33.310       160
33.320       200
33.330       133
33.340       140
33.350       180
33.360       127
33.370       133
33.380       180
33.390       147
33.400       127
33.410       193
33.420       160
33.430       193
33.440       133
33.450       133
33.460       120
33.470       147
33.480       173
33.490       127
33.500       100
33.510       167
33.520        93
33.530       133
33.540       167
33.550       180
33.560       153
33.570       153
33.580       167
33.590       167
33.600       107
33.610       147
33.620       127
33.630       113
33.640       167
33.650       220
33.660       120
33.670       200
33.680       173
33.690       200
33.700       153
33.710       140
33.720       167
33.730       207
33.740       120
33.750       167
33.760       147
33.770       147
33.780       160
33.790       133
33.800       153
33.810       140
33.820       153
33.830       120
33.840       140
33.850       147
33.860        93
33.870       140
33.880       213
33.890       167
33.900       107
33.910       127
33.920       127
33.930       153
33.940       107
33.950       120
33.960       140
33.970       120
33.980       120
33.990       140
34.000       107
34.010       147
34.020       147
34.030       113
34.040       200
34.050       187
34.060       113
34.070       147
34.080       120
34.090       120
34.100       173
34.110       120
34.120       147
34.130       193
34.140       120
34.150       140
34.160       147
34.170       160
34.180        67
34.190       160
34.200       180
34.210       120
34.220       133
34.230       133
34.240       133
34.250       147
34.260       187
34.270       133
34.280       120
34.290        67
34.300       140
34.310       100
34.320       127
34.330       120
34.340       133
34.350       140
34.360        93
34.370       107
34.380       173
34.390       140
34.400       113
34.410       127
34.420       133
34.430        67
34.440       167
34.450       120
34.460        80
34.470       127
34.480       127
34.490       120
34.500       140
34.510       100
34.520       140
34.530       100
34.540       127
34.550       127
34.560       120
34.570       120
34.580        80
34.590        87
34.600       107
34.610       107
34.620       120
34.630       127
34.640        80
34.650       167
34.660       153
34.670        80
34.680       167
34.690       127
34.700       167
34.710       160
34.720       127
34.730       147
34.740       160
34.750       120
34.760       140
34.770       127
34.780       113
34.790       140
34.800       113
34.810       180
34.820       140
34.830       127
34.840       173
34.850        73
34.860       113
34.870       113
34.880       120
34.890        73
34.900        87
34.910       153
34.920       113
34.930       120
34.940        87
34.950        60
34.960       133
34.970       140
34.980       147
34.990       153
35.000       153
35.010       100
35.020        73
35.030       153
35.040        93
35.050        93
35.060        93
35.070       140
35.080       107
35.090       127
35.100        80
35.110       140
35.120       127
35.130       100
35.140       173
35.150       180
35.160       180
35.170       133
35.180        80
35.190       147
35.200        87
35.210        87
35.220        67
35.230       100
35.240       113
35.250       173
35.260       180
35.270        93
35.280        93
35.290       120
35.300       140
35.310        73
35.320       107
35.330       100
35.340        87
35.350       187
35.360        87
35.370       100
35.380       107
35.390       120
35.400       160
35.410       153
35.420       133
35.430       140
35.440        60
35.450       140
35.460       120
35.470       133
35.480        93
35.490       120
35.500       140
35.510        93
35.520       113
35.530       113
35.540        60
35.550       133
35.560        93
35.570       113
35.580       120
35.590       140
35.600       120
35.610       133
35.620       140
35.630       140
35.640        87
35.650       113
35.660       120
35.670       140
35.680        93
35.690        87
35.700        33
35.710       140
35.720       133
35.730        67
35.740       147
35.750        80
35.760       113
35.770       113
35.780       153
35.790        73
35.800       113
35.810       147
35.820       173
35.830        93
35.840       113
35.850        87
35.860        67
35.870       127
35.880       120
35.890       100
35.900       127
35.910       127
35.920        80
35.930       133
35.940       113
35.950       140
35.960        60
35.970        33
35.980       120
35.990        80
36.000       113
36.010       100
36.020       140
36.030       100
36.040        67
36.050        93
36.060        73
36.070        93
36.080       133
36.090       113
36.100       140
36.110       127
36.120       107
36.130       127
36.140        67
36.150       133
36.160        93
36.170       107
36.180        73
36.190       120
36.200        73
36.210        53
36.220       133
36.230       120
36.240       113
36.250       120
36.260       100
36.270       107
36.280        93
36.290       127
36.300       120
36.310       107
36.320       133
36.330        93
36.340        80
36.350        93
36.360       153
36.370       113
36.380       153
36.390       120
36.400       140
36.410       160
36.420       180
36.430       133
36.440       173
36.450       107
36.460       167
36.470       133
36.480       160
36.490       167
36.500       153
36.510       140
36.520       133
36.530       120
36.540       140
36.550       147
36.560       127
36.570       113
36.580       133
36.590        93
36.600       100
36.610       133
36.620       107
36.630       127
36.640        87
36.650       120
36.660        80
36.670       113
36.680        93
36.690        87
36.700       113
36.710        73
36.720        47
36.730        67
36.740       133
36.750       147
36.760        73
36.770        60
36.780       107
36.790        93
36.800        73
36.810        87
36.820       133
36.830        73
36.840       127
36.850        80
36.860        87
36.870        60
36.880       127
36.890       140
36.900       107
36.910        87
36.920       100
36.930       113
36.940        60
36.950        93
36.960       107
36.970       133
36.980       120
36.990        73
37.000        67
37.010       147
37.020        80
37.030       107
37.040        47
37.050        87
37.060        47
37.070        87
37.080       113
37.090        73
37.100        87
37.110        60
37.120        67
37.130       133
37.140        73
37.150       113
37.160       120
37.170        80
37.180        67
37.190       100
37.200       133
37.210        87
37.220       100
37.230        80
37.240       120
37.250        87
37.260        87
37.270       100
37.280        93
37.290        93
37.300        80
37.310       107
37.320        27
37.330        47
37.340       153
37.350        67
37.360        73
37.370        93
37.380       120
37.390        80
37.400        67
37.410        73
37.420       140
37.430        80
37.440        67
37.450        53
37.460        67
37.470       127
37.480        93
37.490       107
37.500        93
37.510       120
37.520        80
37.530        73
37.540        80
37.550       107
37.560        73
37.570        53
37.580       100
37.590        80
37.600        60
37.610       107
37.620        87
37.630        60
37.640        87
37.650        80
37.660        53
37.670        60
37.680       100
37.690        73
37.700        67
37.710        73
37.720       127
37.730       147
37.740        80
37.750        60
37.760        73
37.770       113
37.780       100
37.790        87
37.800        60
37.810       120
37.820        87
37.830        87
37.840        87
37.850        80
37.860        87
37.870        87
37.880        73
37.890        60
37.900       100
37.910        67
37.920        60
37.930        80
37.940        67
37.950        93
37.960        53
37.970        60
37.980        93
37.990       120
38.000        53
38.010        80
38.020        73
38.030       127
38.040        80
38.050        40
38.060        67
38.070        80
38.080        47
38.090        60
38.100        87
38.110        87
38.120        47
38.130        73
38.140        33
38.150        67
38.160        73
38.170       107
38.180        53
38.190        53
38.200       100
38.210        80
38.220        93
38.230       120
38.240        87
38.250       107
38.260        87
38.270        93
38.280       113
38.290       100
38.300        73
38.310        40
38.320        67
38.330        80
38.340        73
38.350        73
38.360       100
38.370        67
38.380       133
38.390        67
38.400        93
38.410        33
38.420        67
38.430       127
38.440        67
38.450        73
38.460        53
38.470        40
38.480        60
38.490       100
38.500       100
38.510       107
38.520        47
38.530        40
38.540        67
38.550        87
38.560        80
38.570        73
38.580        47
38.590        40
38.600        80
38.610        67
38.620        60
38.630       100
38.640        73
38.650        93
38.660        40
38.670        93
38.680        53
38.690        40
38.700        53
38.710       100
38.720        60
38.730        73
38.740        87
38.750       120
38.760        67
38.770        80
38.780        73
38.790        33
38.800       100
38.810        27
38.820       100
38.830        73
38.840        93
38.850        80
38.860        60
38.870        80
38.880        47
38.890       140
38.900        47
38.910        53
38.920        80
38.930        80
38.940        53
38.950        53
38.960        67
38.970        53
38.980        73
38.990        73
39.000        53
39.010        60
39.020        80
39.030        67
39.040        73
39.050       140
39.060        47
39.070        60
39.080        67
39.090        53
39.100        53
39.110       107
39.120        40
39.130        67
39.140        40
39.150        47
39.160        67
39.170       100
39.180        40
39.190        53
39.200        47
39.210        33
39.220        67
39.230        60
39.240        53
39.250        60
39.260        73
39.270        53
39.280        80
39.290        67
39.300        53
39.310        53
39.320        87
39.330        80
39.340        60
39.350        93
39.360       100
39.370        67
39.380        40
39.390        53
39.400        27
39.410        60
39.420        47
39.430        73
39.440        60
39.450        47
39.460        60
39.470        67
39.480        53
39.490        60
39.500        27
39.510        53
39.520        47
39.530        53
39.540        40
39.550        93
39.560        53
39.570       100
39.580        20
39.590        80
39.600        47
39.610        40
39.620        67
39.630        60
39.640        73
39.650        33
39.660        53
39.670        60
39.680        53
39.690        67
39.700        67
39.710        73
39.720        80
39.730        80
39.740        53
39.750        67
39.760        40
39.770        40
39.780        40
39.790        40
39.800        40
39.810        27
39.820        53
39.830        27
39.840        53
39.850        67
39.860        27
39.870        93
39.880        80
39.890        27
39.900        33
39.910        40
39.920        60
39.930        33
39.940        67
39.950        60
39.960        73
39.970        73
39.980        73
39.990        73
40.000        33
40.010        73
40.020        60
40.030        67
40.040        40
40.050        47
40.060        80
40.070        40
40.080       100
40.090        47
40.100        53
40.110        40
40.120        40
40.130        60
40.140        80
40.150        33
40.160        73
40.170        67
40.180        67
40.190        40
40.200        40
40.210        87
40.220        73
40.230       107
40.240        53
40.250        33
40.260        53
40.270       100
40.280        53
40.290        33
40.300        40
40.310        60
40.320        60
40.330       107
40.340        53
40.350       120
40.360        60
40.370        60
40.380        67
40.390       113
40.400       140
40.410        93
40.420        87
40.430        67
40.440        20
40.450       113
40.460        53
40.470        47
40.480        73
40.490        87
40.500        60
40.510        53
40.520        73
40.530        60
40.540        47
40.550        47
40.560        87
40.570        93
40.580        60
40.590        27
40.600        47
40.610        20
40.620        73
40.630        47
40.640        53
40.650       107
40.660        67
40.670        47
40.680        27
40.690        67
40.700        53
40.710        67
40.720        53
40.730        33
40.740        53
40.750        67
40.760        53
40.770        40
40.780        40
40.790        53
40.800        53
40.810        47
40.820        60
40.830        60
40.840        73
40.850        47
40.860        73
40.870        40
40.880        27
40.890        40
40.900        60
40.910        73
40.920        67
40.930        33
40.940        47
40.950        80
40.960        73
40.970        67
40.980        53
40.990        60
41.000        33
41.010        47
41.020        40
41.030        40
41.040        60
41.050       113
41.060        47
41.070        67
41.080        73
41.090        40
41.100        40
41.110        40
41.120        47
41.130        27
41.140        87
41.150        93
41.160        53
41.170        80
41.180        40
41.190        53
41.200        53
41.210        67
41.220        47
41.230        73
41.240        40
41.250        53
41.260        40
41.270        60
41.280        60
41.290        60
41.300        33
41.310        67
41.320        87
41.330        53
41.340        53
41.350        60
41.360        47
41.370        73
41.380        80
41.390        47
41.400        60
41.410        53
41.420        87
41.430        33
41.440        33
41.450        27
41.460        47
41.470        40
41.480        73
41.490        33
41.500        27
41.510        73
41.520        40
41.530        87
41.540        87
41.550        33
41.560        47
41.570        53
41.580        67
41.590        53
41.600        73
41.610        33
41.620         0
41.630        40
41.640        27
41.650       120
41.660        27
41.670        47
41.680        80
41.690        40
41.700        47
41.710        33
41.720        33
41.730        40
41.740        40
41.750        60
41.760        93
41.770        33
41.780        73
41.790        67
41.800        40
41.810        40
41.820        47
41.830        47
41.840        47
41.850        40
41.860        47
41.870        53
41.880        47
41.890        67
41.900        73
41.910        47
41.920        67
41.930        13
41.940        33
41.950        53
41.960        27
41.970        47
41.980        53
41.990        27
42.000        33
42.010        60
42.020       100
42.030        80
42.040        87
42.050        47
42.060        20
42.070       113
42.080        80
42.090        80
42.100        67
42.110        73
42.120        87
42.130       133
42.140        73
42.150       100
42.160        80
42.170       127
42.180       100
42.190        67
42.200        73
42.210       160
42.220       120
42.230       147
42.240       107
42.250       107
42.260       200
42.270       127
42.280       140
42.290       107
42.300       100
42.310       113
42.320       100
42.330       107
42.340       140
42.350       113
42.360        87
42.370       100
42.380       127
42.390        87
42.400        53
42.410       107
42.420        93
42.430       107
42.440       107
42.450       107
42.460        67
42.470        67
42.480        60
42.490        67
42.500       107
42.510        67
42.520        40
42.530        47
42.540        33
42.550        87
42.560        47
42.570        60
42.580        53
42.590        40
42.600        80
42.610        67
42.620        60
42.630        47
42.640        20
42.650        47
42.660        47
42.670        20
42.680        27
42.690        33
42.700        60
42.710        53
42.720        40
42.730        27
42.740        73
42.750        20
42.760        60
42.770        13
42.780        73
42.790        47
42.800        40
42.810        40
42.820        67
42.830        60
42.840        47
42.850        40
42.860        47
42.870        40
42.880        67
42.890        87
42.900        33
42.910        40
42.920        47
42.930        47
42.940        67
42.950        40
42.960        40
42.970        20
42.980        53
42.990        47
43.000        40
43.010        67
43.020        73
43.030        40
43.040        27
43.050        40
43.060        53
43.070        73
43.080        33
43.090        33
43.100        33
43.110         7
43.120        73
43.130        20
43.140        33
43.150        33
43.160        27
43.170        60
43.180        27
43.190        73
43.200        53
43.210        47
43.220        40
43.230        53
43.240        73
43.250        40
43.260        53
43.270        47
43.280        27
43.290        53
43.300        33
43.310        33
43.320        40
43.330        47
43.340        40
43.350        40
43.360        53
43.370        20
43.380        73
43.390        73
43.400        93
43.410        40
43.420        73
43.430        20
43.440        20
43.450        40
43.460        53
43.470        33
43.480        53
43.490        67
43.500        47
43.510        60
43.520        67
43.530        53
43.540        20
43.550        53
43.560        60
43.570        13
43.580        53
43.590        73
43.600        87
43.610        40
43.620        73
43.630       100
43.640        67
43.650        33
43.660        33
43.670        67
43.680        47
43.690        60
43.700        67
43.710        67
43.720        67
43.730        40
43.740        53
43.750        40
43.760        33
43.770        53
43.780       100
43.790        60
43.800        13
43.810        80
43.820        87
43.830        33
43.840        60
43.850        80
43.860        80
43.870        80
43.880        87
43.890        40
43.900        47
43.910        73
43.920        73
43.930        60
43.940        73
43.950        53
43.960        80
43.970        47
43.980        53
43.990        80
44.000        73
44.010        53
44.020        53
44.030        40
44.040        33
44.050        27
44.060        33
44.070        53
44.080        20
44.090        73
44.100        67
44.110        53
44.120        53
44.130        47
44.140        53
44.150        67
44.160        73
44.170        53
44.180        67
44.190        60
44.200        53
44.210        60
44.220        60
44.230        53
44.240        67
44.250        87
44.260        93
44.270        80
44.280       107
44.290       100
44.300       127
44.310        73
44.320        87
44.330        93
44.340       107
44.350        40
44.360        87
44.370        53
44.380        93
44.390       140
44.400        73
44.410       100
44.420        93
44.430        73
44.440        80
44.450        93
44.460        80
44.470        53
44.480        47
44.490       120
44.500        93
44.510        47
44.520        67
44.530        67
44.540        93
44.550        60
44.560        67
44.570        60
44.580        40
44.590        47
44.600        33
44.610        27
44.620        47
44.630        40
44.640        40
44.650        47
44.660        33
44.670        53
44.680        27
44.690        47
44.700        53
44.710        33
44.720        40
44.730        60
44.740        60
44.750        47
44.760        47
44.770        80
44.780        27
44.790        53
44.800        73
44.810        33
44.820        53
44.830        27
44.840        60
44.850        67
44.860        20
44.870        33
44.880        73
44.890        40
44.900       107
44.910         7
44.920        40
44.930        53
44.940        67
44.950        33
44.960        20
44.970        53
44.980        53
44.990        80
45.000        40
45.010        53
45.020        47
45.030        13
45.040        53
45.050        27
45.060        47
45.070        40
45.080        33
45.090        40
45.100        13
45.110        40
45.120        60
45.130        47
45.140        20
45.150        40
45.160        33
45.170        40
45.180        60
45.190        20
45.200        33
45.210        33
45.220        27
45.230        13
45.240        60
45.250        80
45.260        33
45.270        13
45.280        67
45.290        40
45.300        47
45.310        33
45.320        40
45.330        60
45.340        33
45.350        40
45.360        33
45.370        40
45.380        33
45.390        40
45.400        47
45.410        27
45.420        20
45.430        33
45.440        47
45.450        13
45.460        47
45.470        53
45.480        40
45.490        20
45.500        33
45.510        40
45.520        40
45.530        67
45.540        67
45.550        47
45.560        33
45.570        67
45.580        60
45.590        40
45.600        80
45.610        27
45.620        40
45.630        40
45.640        67
45.650        20
45.660        60
45.670        87
45.680        67
45.690        53
45.700        67
45.710       120
45.720        87
45.730       140
45.740       147
45.750       140
45.760       127
45.770       140
45.780       147
45.790       140
45.800       213
45.810       220
45.820       220
45.830       213
45.840       247
45.850       280
45.860       240
45.870       273
45.880       253
45.890       273
45.900       320
45.910       340
45.920       380
45.930       327
45.940       240
45.950       267
45.960       293
45.970       260
45.980       373
45.990       280
46.000       247
46.010       220
46.020       307
46.030       153
46.040       280
46.050       267
46.060       260
46.070       280
46.080       213
46.090       187
46.100       240
46.110       240
46.120       240
46.130       207
46.140       173
46.150       180
46.160       220
46.170       147
46.180       153
46.190       193
46.200       127
46.210       133
46.220       180
46.230       107
46.240       133
46.250       153
46.260       107
46.270       147
46.280       127
46.290       107
46.300       140
46.310        93
46.320        80
46.330        60
46.340       113
46.350        67
46.360        60
46.370       100
46.380        87
46.390        53
46.400        93
46.410        67
46.420        73
46.430        47
46.440        33
46.450        53
46.460        47
46.470        67
46.480        67
46.490        40
46.500        60
46.510        73
46.520        60
46.530        27
46.540        87
46.550        20
46.560        53
46.570        87
46.580        67
46.590        40
46.600        67
46.610        67
46.620        47
46.630        27
46.640        87
46.650        67
46.660        73
46.670        33
46.680        87
46.690       100
46.700        73
46.710        40
46.720        87
46.730        53
46.740        67
46.750        73
46.760        67
46.770        20
46.780       113
46.790       100
46.800        87
46.810        93
46.820       100
46.830       113
46.840       107
46.850       127
46.860       120
46.870        53
46.880       113
46.890       100
46.900       127
46.910       120
46.920       107
46.930        93
46.940        67
46.950       133
46.960       120
46.970        93
46.980        93
46.990        93
47.000       100
47.010        93
47.020       147
47.030       127
47.040       153
47.050       113
47.060       187
47.070       127
47.080       200
47.090       207
47.100       153
47.110       187
47.120       267
47.130       273
47.140       433
47.150       680
47.160       740
47.170      1080
47.180      1006
47.190      1493
47.200      1573
47.210      1413
47.220      1453
47.230      1140
47.240       933
47.250       553
47.260       540
47.270       300
47.280       340
47.290       200
47.300       173
47.310       167
47.320       207
47.330       133
47.340       173
47.350       160
47.360       133
47.370       113
47.380        87
47.390       107
47.400       100
47.410        60
47.420       113
47.430        93
47.440        80
47.450        73
47.460        80
47.470        67
47.480       100
47.490        27
47.500        60
47.510        67
47.520       113
47.530        67
47.540        73
47.550        87
47.560        93
47.570        73
47.580        60
47.590        80
47.600        67
47.610       100
47.620        47
47.630        67
47.640        40
47.650        73
47.660       100
47.670       120
47.680        40
47.690        67
47.700        67
47.710        80
47.720        60
47.730        47
47.740        73
47.750        53
47.760        67
47.770        60
47.780        87
47.790        67
47.800        80
47.810        53
47.820        60
47.830       100
47.840        60
47.850        20
47.860        47
47.870       113
47.880        53
47.890        87
47.900        73
47.910        80
47.920        73
47.930        40
47.940        73
47.950        73
47.960        47
47.970        27
47.980        67
47.990        20
48.000        33
48.010        33
48.020        47
48.030        47
48.040        47
48.050        53
48.060        33
48.070        40
48.080        67
48.090        60
48.100        73
48.110        33
48.120        73
48.130        47
48.140        53
48.150        40
48.160        47
48.170        67
48.180        67
48.190        33
48.200        67
48.210        33
48.220        33
48.230        80
48.240        40
48.250        67
48.260        40
48.270        20
48.280        13
48.290        33
48.300        60
48.310        27
48.320        80
48.330        60
48.340        47
48.350        27
48.360        47
48.370        27
48.380        60
48.390        27
48.400        53
48.410        67
48.420        33
48.430        33
48.440        80
48.450        53
48.460        60
48.470        20
48.480        33
48.490        47
48.500        60
48.510        73
48.520        47
48.530        47
48.540        33
48.550        40
48.560        53
48.570        47
48.580        60
48.590        60
48.600        60
48.610        60
48.620        60
48.630        53
48.640        40
48.650        73
48.660        40
48.670        33
48.680        53
48.690        47
48.700        40
48.710        47
48.720        87
48.730        60
48.740        47
48.750        60
48.760       100
48.770       120
48.780        67
48.790        53
48.800       107
48.810        53
48.820        60
48.830        73
48.840        93
48.850        87
48.860       100
48.870        73
48.880        67
48.890        93
48.900       167
48.910        93
48.920       173
48.930       140
48.940       120
48.950       147
48.960       107
48.970       127
48.980       180
48.990       120
49.000       107
49.010       107
49.020       147
49.030       120
49.040       167
49.050       100
49.060       133
49.070       127
49.080       120
49.090       113
49.100       133
49.110        67
49.120       147
49.130       140
49.140       100
49.150       107
49.160        80
49.170        67
49.180        73
49.190        53
49.200        87
49.210        40
49.220        53
49.230        80
49.240        60
49.250        73
49.260        53
49.270        73
49.280        73
49.290        53
49.300        20
49.310        40
49.320        87
49.330        87
49.340        33
49.350        73
49.360        53
49.370        40
49.380        47
49.390        20
49.400        73
49.410        67
49.420        47
49.430        60
49.440        33
49.450        47
49.460        20
49.470        53
49.480        47
49.490        27
49.500        60
49.510        47
49.520        20
49.530        53
49.540        47
49.550        87
49.560        53
49.570        53
49.580        40
49.590        27
49.600        40
49.610        87
49.620        67
49.630        27
49.640        47
49.650        40
49.660        47
49.670        40
49.680        80
49.690        47
49.700        33
49.710        60
49.720        47
49.730       107
49.740        67
49.750        73
49.760        33
49.770        40
49.780        60
49.790        47
49.800        93
49.810       100
49.820        80
49.830        87
49.840        53
49.850        67
49.860        80
49.870       113
49.880        87
49.890        60
49.900       107
49.910       120
49.920        67
49.930        93
49.940        73
49.950        80
49.960        93
49.970        80
49.980        67
49.990        87
50.000        53
50.010       100
50.020        67
50.030        60
50.040       107
50.050        67
50.060        47
50.070        67
50.080        60
50.090        60
50.100       100
50.110        33
50.120        53
50.130        67
50.140        80
50.150        67
50.160        60
50.170        53
50.180        80
50.190        80
50.200        80
50.210        80
50.220        53
50.230        67
50.240        67
50.250        20
50.260        60
50.270        60
50.280        60
50.290        60
50.300        73
50.310        73
50.320        27
50.330        33
50.340        73
50.350        60
50.360        73
50.370        67
50.380        47
50.390        60
50.400        73
50.410        33
50.420        73
50.430        60
50.440        47
50.450        47
50.460        53
50.470        60
50.480       107
50.490        47
50.500        80
50.510        67
50.520        60
50.530        53
50.540        60
50.550        93
50.560        40
50.570        60
50.580        27
50.590        60
50.600        53
50.610        67
50.620       120
50.630       127
50.640       120
50.650       193
50.660       207
50.670       193
50.680       280
50.690       307
50.700       320
50.710       340
50.720       340
50.730       373
50.740       320
50.750       367
50.760       360
50.770       320
50.780       327
50.790       320
50.800       373
50.810       320
50.820       393
50.830       413
50.840       360
50.850       387
50.860       426
50.870       460
50.880       320
50.890       367
50.900       413
50.910       340
50.920       367
50.930       360
50.940       340
50.950       393
50.960       373
50.970       360
50.980       340
50.990       320
51.000       380
51.010       327
51.020       420
51.030       360
51.040       426
51.050       340
51.060       367
51.070       340
51.080       413
51.090       353
51.100       300
51.110       327
51.120       433
51.130       413
51.140       353
51.150       340
51.160       387
51.170       353
51.180       347
51.190       313
51.200       367
51.210       373
51.220       320
51.230       307
51.240       353
51.250       320
51.260       320
51.270       300
51.280       327
51.290       426
51.300       426
51.310       400
51.320       360
51.330       300
51.340       320
51.350       307
51.360       493
51.370       380
51.380       426
51.390       327
51.400       353
51.410       353
51.420       387
51.430       307
51.440       360
51.450       287
51.460       420
51.470       373
51.480       327
51.490       320
51.500       453
51.510       426
51.520       460
51.530       420
51.540       387
51.550       433
51.560       380
51.570       347
51.580       313
51.590       367
51.600       380
51.610       413
51.620       573
51.630       520
51.640       407
51.650       380
51.660       540
51.670       426
51.680       426
51.690       540
51.700       546
51.710       486
51.720       446
51.730       500
51.740       540
51.750       586
51.760       540
51.770       546
51.780       540
51.790       693
51.800       566
51.810       526
51.820       520
51.830       586
51.840       693
51.850       546
51.860       640
51.870       626
51.880       526
51.890       586
51.900       580
51.910       560
51.920       560
51.930       573
51.940       560
51.950       626
51.960       726
51.970       620
51.980       646
51.990       686
52.000       673
52.010       760
52.020       553
52.030       660
52.040       586
52.050       553
52.060       646
52.070       706
52.080       533
52.090       660
52.100       520
52.110       733
52.120       660
52.130       673
52.140       733
52.150       626
52.160       753
52.170       733
52.180       726
52.190       686
52.200       686
52.210       900
52.220       860
52.230       973
52.240       906
52.250      1040
52.260      1206
52.270      1326
52.280      1413
52.290      1699
52.300      1673
52.310      2092
52.320      2206
52.330      2599
52.340      2726
52.350      3532
52.360      3445
52.370      4198
52.380      4778
52.390      5138
52.400      5658
52.410      6424
52.420      6711
52.430      7364
52.440      7850
52.450      8143
52.460      8956
52.470      9443
52.480     10176
52.490     11302
52.500     14081
52.510     16313
52.520     19659
52.530     29142
52.540     46535
52.550     70858
52.560     99880
52.570    125057
52.580    141597
52.590    150087
52.600    155918
52.610    148807
52.620    133060
52.630    107857
52.640     78655
52.650     55091
52.660     40251
52.670     36379
52.680     38884
52.690     47554
52.700     60502
52.710     72884
52.720     82840
52.730     86159
52.740     87725
52.750     83687
52.760     75403
52.770     59609
52.780     42810
52.790     28115
52.800     18926
52.810     13715
52.820     10489
52.830      8317
52.840      7051
52.850      6011
52.860      5265
52.870      4618
52.880      4192
52.890      3565
52.900      3132
52.910      2679
52.920      2126
52.930      1933
52.940      1879
52.950      1686
52.960      1619
52.970      1513
52.980      1493
52.990      1200
53.000      1186
53.010       986
53.020      1279
53.030      1026
53.040      1106
53.050      1013
53.060       906
53.070       846
53.080       820
53.090       820
53.100       620
53.110       753
53.120       793
53.130       746
53.140       733
53.150       680
53.160       613
53.170       806
53.180       606
53.190       626
53.200       633
53.210       573
53.220       526
53.230       620
53.240       533
53.250       506
53.260       586
53.270       546
53.280       506
53.290       573
53.300       513
53.310       620
53.320       526
53.330       533
53.340       486
53.350       606
53.360       506
53.370       393
53.380       480
53.390       486
53.400       553
53.410       526
53.420       546
53.430       407
53.440       526
53.450       513
53.460       380
53.470       480
53.480       407
53.490       480
53.500       407
53.510       320
53.520       493
53.530       440
53.540       387
53.550       380
53.560       433
53.570       446
53.580       466
53.590       466
53.600       413
53.610       420
53.620       360
53.630       407
53.640       367
53.650       426
53.660       313
53.670       340
53.680       360
53.690       327
53.700       373
53.710       320
53.720       320
53.730       380
53.740       353
53.750       287
53.760       273
53.770       240
53.780       387
53.790       367
53.800       247
53.810       260
53.820       340
53.830       307
53.840       293
53.850       267
53.860       267
53.870       280
53.880       267
53.890       353
53.900       327
53.910       300
53.920       293
53.930       367
53.940       407
53.950       247
53.960       347
53.970       273
53.980       327
53.990       287
54.000       313
54.010       307
54.020       320
54.030       340
54.040       253
54.050       293
54.060       260
54.070       327
54.080       293
54.090       360
54.100       240
54.110       280
54.120       220
54.130       280
54.140       373
54.150       280
54.160       353
54.170       287
54.180       313
54.190       207
54.200       293
54.210       300
54.220       340
54.230       280
54.240       280
54.250       287
54.260       300
54.270       327
54.280       307
54.290       193
54.300       287
54.310       253
54.320       320
54.330       267
54.340       280
54.350       313
54.360       293
54.370       213
54.380       227
54.390       220
54.400       293
54.410       280
54.420       233
54.430       287
54.440       280
54.450       300
54.460       180
54.470       233
54.480       347
54.490       300
54.500       360
54.510       247
54.520       260
54.530       247
54.540       287
54.550       300
54.560       313
54.570       253
54.580       340
54.590       293
54.600       347
54.610       287
54.620       247
54.630       260
54.640       280
54.650       360
54.660       280
54.670       227
54.680       233
54.690       327
54.700       340
54.710       320
54.720       320
54.730       273
54.740       207
54.750       287
54.760       307
54.770       360
54.780       253
54.790       273
54.800       353
54.810       273
54.820       307
54.830       347
54.840       327
54.850       367
54.860       327
54.870       280
54.880       320
54.890       360
54.900       247
54.910       307
54.920       333
54.930       300
54.940       307
54.950       247
54.960       247
54.970       267
54.980       247
54.990       280
55.000       307
55.010       280
55.020       293
55.030       227
55.040       280
55.050       287
55.060       273
55.070       227
55.080       213
55.090       180
55.100       333
55.110       260
55.120       240
55.130       167
55.140       200
55.150       187
55.160       187
55.170       227
55.180       247
55.190       200
55.200       227
55.210       207
55.220       233
55.230       213
55.240       207
55.250       213
55.260       193
55.270       180
55.280       140
55.290       187
55.300       227
55.310       193
55.320       193
55.330       180
55.340       240
55.350       240
55.360       160
55.370       160
55.380       200
55.390       180
55.400       173
55.410       220
55.420       193
55.430       200
55.440       207
55.450       260
55.460       193
55.470       213
55.480       120
55.490       180
55.500       207
55.510       227
55.520       247
55.530       207
55.540       287
55.550       187
55.560       200
55.570       147
55.580       180
55.590       240
55.600       200
55.610       227
55.620       193
55.630       187
55.640       167
55.650       167
55.660       220
55.670       220
55.680       180
55.690       180
55.700       207
55.710       187
55.720       180
55.730       160
55.740       173
55.750       173
55.760       220
55.770       207
55.780       153
55.790       193
55.800       227
55.810       187
55.820       193
55.830       220
55.840       160
55.850       220
55.860       213
55.870       200
55.880       213
55.890       233
55.900       207
55.910       233
55.920       120
55.930       160
55.940       147
55.950       160
55.960       233
55.970       147
55.980       180
55.990       200
56.000       200
56.010       153
56.020       213
56.030       187
56.040       207
56.050       247
56.060       240
56.070       200
56.080       207
56.090       227
56.100       153
56.110       160
56.120       207
56.130       187
56.140       160
56.150       113
56.160       193
56.170       193
56.180       140
56.190       107
56.200       133
56.210       173
56.220       127
56.230       207
56.240       200
56.250       120
56.260       207
56.270       247
56.280       193
56.290       167
56.300       160
56.310       160
56.320       227
56.330       193
56.340       160
56.350       240
56.360       160
56.370       193
56.380       227
56.390       153
56.400       153
56.410       167
56.420       140
56.430       153
56.440       207
56.450       140
56.460       173
56.470       100
56.480       120
56.490        93
56.500       147
56.510       233
56.520       153
56.530       153
56.540       180
56.550       200
56.560       173
56.570       173
56.580       153
56.590       233
56.600       180
56.610       133
56.620       153
56.630       220
56.640       147
56.650       167
56.660       160
56.670       220
56.680       133
56.690       133
56.700       187
56.710       120
56.720       160
56.730       140
56.740       167
56.750       160
56.760       147
56.770       233
56.780       140
56.790       200
56.800       153
56.810        93
56.820       140
56.830       193
56.840       160
56.850       193
56.860       133
56.870       167
56.880       160
56.890       133
56.900       167
56.910        93
56.920       147
56.930       167
56.940       200
56.950       127
56.960       100
56.970       113
56.980       127
56.990       173
57.000       173
57.010       140
57.020       153
57.030       147
57.040       140
57.050       173
57.060       187
57.070       120
57.080       200
57.090       213
57.100       173
57.110       127
57.120       187
57.130       147
57.140       147
57.150       140
57.160       160
57.170       160
57.180       160
57.190       147
57.200       113
57.210       200
57.220       160
57.230       140
57.240       147
57.250       180
57.260       133
57.270       127
57.280       160
57.290       147
57.300       160
57.310       180
57.320       153
57.330       247
57.340       107
57.350       120
57.360       120
57.370       187
57.380       113
57.390       167
57.400       147
57.410       193
57.420       113
57.430       200
57.440       167
57.450       173
57.460       120
57.470       133
57.480       167
57.490       187
57.500       180
57.510        93
57.520       147
57.530       167
57.540       127
57.550       140
57.560       140
57.570       147
57.580       107
57.590       153
57.600       193
57.610       147
57.620       187
57.630       113
57.640       180
57.650       120
57.660       153
57.670       153
57.680       140
57.690       173
57.700       200
57.710       107
57.720       140
57.730       107
57.740       233
57.750       133
57.760       140
57.770       173
57.780       160
57.790       153
57.800       140
57.810       133
57.820       167
57.830       107
57.840       153
57.850       100
57.860       180
57.870       173
57.880       127
57.890       140
57.900        87
57.910       113
57.920       173
57.930       133
57.940       133
57.950       127
57.960       140
57.970       113
57.980       107
57.990       227
58.000       180
58.010       140
58.020       107
58.030       173
58.040       133
58.050       107
58.060       167
58.070       160
58.080       147
58.090       120
58.100       127
58.110       140
58.120       193
58.130       107
58.140       147
58.150       187
58.160       153
58.170       120
58.180       187
58.190       140
58.200       113
58.210       100
58.220       220
58.230       153
58.240       153
58.250       133
58.260       127
58.270        93
58.280       133
58.290       153
58.300       100
58.310       160
58.320       153
58.330       127
58.340       113
58.350       147
58.360       140
58.370       147
58.380        87
58.390       107
58.400       133
58.410       147
58.420       120
58.430        93
58.440       133
58.450       100
58.460       120
58.470       147
58.480       107
58.490       107
58.500       113
58.510       120
58.520       147
58.530       160
58.540       153
58.550       147
58.560       147
58.570       127
58.580       100
58.590       160
58.600       113
58.610       173
58.620       140
58.630        93
58.640       147
58.650       107
58.660       133
58.670       133
58.680       167
58.690       153
58.700       133
58.710       120
58.720       180
58.730       127
58.740       113
58.750       147
58.760        87
58.770       120
58.780       173
58.790       127
58.800       127
58.810       113
58.820       133
58.830        73
58.840       193
58.850        80
58.860       127
58.870       100
58.880       120
58.890        73
58.900        73
58.910       133
58.920       120
58.930       167
58.940        73
58.950       153
58.960       173
58.970       140
58.980        93
58.990       167
59.000       133
59.010       133
59.020       100
59.030       153
59.040        93
59.050        73
59.060       180
59.070       127
59.080        87
59.090       127
59.100        93
59.110       113
59.120       133
59.130       100
59.140       167
59.150       100
59.160       133
59.170       113
59.180       140
59.190       100
59.200       127
59.210       113
59.220        67
59.230       120
59.240       113
59.250       140
59.260        80
59.270       113
59.280       153
59.290        80
59.300       147
59.310        93
59.320        93
59.330       153
59.340        73
59.350       147
59.360       133
59.370        87
59.380       120
59.390        87
59.400       133
59.410       140
59.420       127
59.430        80
59.440        93
59.450       173
59.460       127
59.470       107
59.480       120
59.490       133
59.500        93
59.510       140
59.520        80
59.530       133
59.540       127
59.550       187
59.560       133
59.570       167
59.580        93
59.590       107
59.600       153
59.610       147
59.620       153
59.630       127
59.640       120
59.650        93
59.660       120
59.670       200
59.680       187
59.690       133
59.700       153
59.710        80
59.720       153
59.730        93
59.740        87
59.750       127
59.760       113
59.770       153
59.780       200
59.790       160
59.800       160
59.810       140
59.820       120
59.830       140
59.840       180
59.850       153
59.860       107
59.870       140
59.880       107
59.890       120
59.900       153
59.910       113
59.920       187
59.930       120
59.940       147
59.950        80
59.960        87
59.970        87
59.980       113
59.990       133
60.000       147
