20.000        27
20.010        27
20.020        47
20.030       100
20.040        60
20.050        80
20.060        47
20.070        67
20.080        93
20.090       113
20.100       153
20.110        33
20.120        60
20.130        60
20.140        40
20.150        20
20.160        73
20.170        27
20.180        80
20.190        80
20.200        73
20.210        47
20.220        47
20.230        60
20.240        33
20.250        27
20.260        40
20.270        60
20.280        93
20.290        73
20.300        67
20.310        67
20.320        40
20.330        47
20.340       100
20.350       107
20.360        47
20.370        80
20.380        33
20.390        60
20.400        33
20.410        40
20.420        27
20.430        53
20.440        47
20.450        80
20.460        47
20.470        33
20.480        47
20.490        47
20.500        40
20.510        40
20.520        40
20.530        27
20.540        73
20.550        80
20.560        33
20.570        67
20.580        20
20.590        13
20.600        47
20.610        13
20.620        20
20.630        60
20.640        67
20.650        40
20.660        73
20.670        87
20.680        47
20.690        73
20.700        53
20.710        40
20.720        67
20.730        33
20.740        53
20.750        60
20.760        33
20.770        80
20.780        67
20.790        47
20.800        33
20.810        13
20.820       107
20.830        53
20.840        33
20.850        80
20.860        40
20.870        60
20.880        67
20.890        27
20.900        67
20.910        40
20.920        60
20.930        73
20.940        33
20.950        53
20.960        60
20.970        20
20.980        47
20.990        40
21.000        40
21.010        47
21.020        60
21.030        47
21.040        53
21.050        47
21.060        13
21.070        53
21.080        33
21.090        47
21.100        40
21.110        67
21.120        47
21.130        40
21.140        73
21.150        60
21.160        67
21.170        40
21.180        80
21.190        67
21.200        73
21.210        47
21.220        47
21.230        40
21.240        53
21.250        33
21.260        33
21.270        27
21.280        33
21.290        20
21.300        53
21.310        40
21.320        20
21.330        20
21.340        40
21.350        87
21.360        53
21.370        60
21.380        40
21.390        47
21.400        27
21.410        20
21.420        67
21.430        13
21.440        40
21.450        20
21.460        33
21.470        80
21.480        60
21.490        27
21.500        67
21.510        53
21.520        20
21.530        40
21.540        27
21.550        40
21.560        47
21.570        47
21.580        40
21.590        40
21.600        47
21.610        27
21.620        47
21.630        60
21.640        93
21.650        33
21.660        27
21.670        47
21.680        33
21.690        27
21.700        60
21.710        47
21.720        67
21.730        33
21.740        40
21.750        20
21.760        80
21.770        33
21.780        47
21.790        53
21.800        40
21.810        60
21.820        47
21.830        67
21.840        60
21.850        60
21.860        60
21.870        87
21.880        67
21.890        87
21.900        67
21.910        73
21.920        40
21.930        60
21.940        53
21.950         7
21.960        73
21.970        60
21.980       147
21.990        53
22.000        80
22.010        47
22.020        73
22.030        73
22.040        87
22.050       133
22.060       120
22.070        67
22.080        13
22.090        73
22.100        60
22.110        87
22.120       160
22.130        87
22.140       100
22.150       127
22.160       147
22.170       133
22.180       140
22.190       227
22.200       107
22.210       133
22.220       240
22.230       280
22.240       173
22.250       260
22.260       260
22.270       260
22.280       253
22.290       353
22.300       393
22.310       486
22.320       420
22.330       466
22.340       553
22.350       540
22.360       693
22.370       793
22.380       786
22.390       953
22.400       806
22.410      1233
22.420      1186
22.430      1306
22.440      1586
22.450      1699
22.460      2013
22.470      2299
22.480      2426
22.490      2499
22.500      2346
22.510      2279
22.520      2166
22.530      1979
22.540      1859
22.550      1713
22.560      1293
22.570      1259
22.580      1153
22.590       880
22.600       746
22.610       566
22.620       400
22.630       347
22.640       207
22.650       307
22.660       247
22.670       207
22.680       173
22.690       193
22.700       200
22.710       127
22.720       147
22.730       140
22.740       140
22.750       167
22.760       140
22.770       220
22.780       173
22.790       207
22.800       247
22.810       200
22.820       247
22.830       267
22.840       227
22.850       240
22.860       253
22.870       300
22.880       287
22.890       380
22.900       340
22.910       400
22.920       433
22.930       333
22.940       373
22.950       407
22.960       413
22.970       433
22.980       520
22.990       553
23.000       480
23.010       407
23.020       360
23.030       307
23.040       347
23.050       333
23.060       300
23.070       233
23.080       240
23.090       307
23.100       220
23.110       227
23.120       200
23.130       100
23.140       160
23.150        80
23.160        73
23.170        67
23.180        80
23.190        73
23.200        67
23.210        73
23.220       127
23.230        87
23.240        53
23.250        87
23.260        80
23.270       100
23.280       100
23.290        93
23.300        60
23.310        53
23.320        60
23.330        53
23.340        67
23.350        40
23.360        33
23.370        47
23.380        67
23.390        27
23.400        47
23.410        67
23.420        47
23.430        67
23.440        27
23.450        40
23.460        80
23.470        87
23.480        53
23.490        33
23.500        33
23.510        60
23.520        60
23.530        40
23.540        40
23.550        40
23.560        53
23.570        93
23.580        53
23.590        47
23.600       107
23.610        60
23.620        87
23.630        73
23.640        27
23.650        60
23.660        53
23.670        87
23.680        67
23.690        67
23.700        87
23.710       127
23.720        47
23.730        60
23.740        67
23.750        73
23.760        87
23.770        33
23.780        47
23.790        53
23.800        20
23.810        47
23.820        60
23.830        20
23.840        33
23.850        33
23.860        93
23.870        60
23.880        53
23.890        53
23.900        73
23.910        33
23.920        73
23.930        40
23.940        67
23.950        33
23.960        73
23.970        47
23.980        87
23.990        53
24.000        33
24.010        27
24.020        53
24.030       107
24.040        33
24.050        33
24.060        47
24.070        60
24.080        47
24.090        80
24.100        60
24.110        67
24.120        53
24.130        67
24.140        67
24.150        40
24.160        20
24.170        53
24.180        73
24.190        60
24.200        33
24.210        80
24.220        93
24.230        27
24.240        40
24.250        27
24.260        13
24.270        73
24.280        47
24.290        87
24.300        53
24.310        80
24.320        47
24.330        47
24.340        40
24.350        80
24.360        27
24.370        73
24.380        60
24.390        67
24.400        33
24.410        47
24.420        33
24.430        67
24.440        33
24.450        60
24.460        53
24.470        33
24.480        73
24.490        60
24.500        80
24.510        80
24.520        53
24.530        40
24.540        80
24.550        60
24.560        40
24.570        53
24.580        33
24.590        87
24.600        87
24.610       140
24.620        67
24.630       107
24.640        67
24.650        60
24.660        87
24.670        47
24.680        87
24.690        67
24.700        60
24.710        47
24.720        73
24.730        47
24.740        80
24.750        60
24.760        53
24.770        60
24.780        53
24.790        40
24.800        80
24.810        40
24.820        47
24.830        27
24.840        53
24.850        73
24.860        47
24.870        73
24.880        60
24.890        93
24.900        53
24.910        40
24.920        60
24.930        47
24.940        47
24.950        67
24.960        67
24.970        40
24.980        87
24.990        47
25.000        73
25.010        67
25.020        40
25.030        47
25.040        73
25.050        60
25.060        80
25.070        60
25.080        53
25.090        33
25.100        60
25.110        47
25.120        47
25.130        80
25.140        67
25.150       140
25.160        93
25.170       100
25.180        67
25.190        47
25.200        87
25.210        40
25.220        67
25.230       113
25.240        93
25.250        73
25.260        53
25.270        67
25.280        33
25.290       107
25.300        53
25.310        73
25.320        80
25.330        67
25.340        80
25.350        87
25.360        53
25.370        60
25.380        73
25.390        53
25.400        53
25.410        67
25.420        47
25.430        60
25.440       100
25.450        60
25.460        67
25.470        87
25.480       113
25.490        93
25.500       120
25.510       120
25.520       160
25.530       113
25.540       140
25.550       167
25.560       133
25.570       133
25.580       113
25.590       167
25.600       160
25.610       180
25.620       153
25.630       153
25.640       213
25.650       200
25.660       193
25.670       207
25.680       307
25.690       247
25.700       267
25.710       347
25.720       287
25.730       253
25.740       320
25.750       267
25.760       273
25.770       220
25.780       280
25.790       193
25.800       233
25.810       173
25.820       200
25.830       147
25.840       140
25.850        87
25.860        93
25.870        80
25.880        60
25.890       100
25.900        73
25.910        53
25.920        53
25.930        53
25.940        87
25.950        47
25.960        40
25.970       113
25.980        40
25.990        40
26.000        20
26.010        93
26.020        53
26.030        27
26.040        73
26.050        80
26.060        53
26.070        40
26.080        80
26.090        47
26.100        47
26.110        27
26.120        20
26.130        87
26.140        40
26.150        27
26.160        60
26.170        53
26.180        53
26.190        67
26.200        53
26.210        13
26.220        27
26.230        40
26.240        53
26.250        53
26.260        87
26.270        60
26.280        33
26.290        67
26.300        40
26.310        40
26.320        40
26.330        47
26.340        60
26.350        80
26.360        20
26.370        40
26.380        67
26.390        60
26.400        33
26.410        53
26.420        13
26.430        47
26.440        73
26.450        60
26.460        67
26.470        33
26.480        47
26.490        20
26.500        40
26.510        53
26.520        47
26.530        33
26.540        53
26.550        33
26.560        33
26.570        60
26.580        33
26.590        53
26.600        33
26.610        40
26.620        47
26.630        33
26.640        40
26.650        20
26.660        60
26.670        40
26.680        47
26.690        47
26.700        80
26.710        47
26.720        67
26.730        87
26.740        60
26.750        87
26.760        20
26.770        67
26.780        40
26.790        40
26.800        67
26.810        53
26.820        27
26.830        40
26.840        47
26.850        27
26.860        80
26.870        20
26.880        40
26.890        33
26.900        67
26.910        33
26.920        40
26.930        27
26.940        40
26.950        33
26.960        27
26.970        73
26.980       120
26.990        67
27.000        87
27.010        47
27.020        27
27.030        40
27.040        60
27.050        53
27.060        47
27.070        20
27.080        33
27.090        53
27.100        47
27.110        53
27.120        40
27.130        33
27.140        27
27.150        47
27.160        40
27.170        60
27.180        13
27.190        53
27.200        47
27.210         7
27.220        60
27.230        53
27.240        53
27.250        60
27.260        60
27.270        40
27.280        53
27.290        47
27.300        27
27.310        53
27.320        53
27.330        27
27.340        53
27.350        53
27.360        33
27.370        20
27.380        40
27.390        40
27.400        60
27.410        53
27.420        27
27.430        33
27.440        47
27.450        33
27.460        40
27.470        73
27.480        53
27.490        13
27.500        53
27.510        40
27.520        67
27.530        73
27.540        27
27.550        67
27.560        40
27.570        60
27.580        67
27.590        67
27.600        33
27.610        80
27.620       107
27.630        47
27.640        33
27.650        80
27.660        87
27.670       107
27.680        67
27.690        73
27.700        60
27.710        87
27.720        27
27.730        47
27.740        47
27.750        60
27.760        67
27.770        73
27.780        47
27.790        60
27.800        33
27.810        67
27.820        27
27.830        40
27.840        60
27.850        47
27.860        40
27.870        53
27.880        53
27.890        67
27.900        27
27.910        47
27.920        47
27.930        60
27.940        47
27.950        13
27.960        93
27.970        60
27.980        93
27.990        60
28.000        53
28.010        73
28.020        60
28.030        47
28.040        73
28.050        60
28.060       107
28.070        87
28.080        93
28.090        80
28.100        80
28.110       133
28.120       127
28.130        73
28.140       120
28.150       127
28.160       127
28.170        80
28.180        73
28.190       187
28.200       153
28.210       153
28.220       180
28.230       133
28.240       120
28.250       133
28.260       160
28.270       120
28.280       140
28.290       147
28.300       180
28.310       160
28.320       227
28.330       160
28.340       220
28.350       213
28.360       200
28.370       153
28.380       113
28.390       100
28.400       167
28.410       153
28.420       100
28.430        87
28.440       153
28.450        40
28.460        40
28.470        73
28.480        60
28.490        80
28.500        47
28.510        33
28.520        47
28.530        67
28.540        47
28.550        53
28.560        13
28.570        33
28.580        60
28.590        60
28.600        20
28.610        33
28.620        33
28.630        60
28.640        40
28.650        53
28.660        33
28.670        20
28.680        93
28.690        53
28.700        33
28.710        27
28.720        60
28.730        73
28.740        47
28.750        47
28.760        60
28.770        87
28.780        67
28.790        80
28.800        93
28.810        33
28.820        60
28.830        67
28.840        27
28.850        60
28.860        87
28.870        73
28.880        40
28.890        73
28.900        73
28.910        67
28.920        53
28.930       107
28.940       100
28.950        73
28.960       100
28.970       100
28.980        67
28.990        93
29.000       153
29.010        33
29.020       120
29.030       140
29.040        80
29.050       120
29.060       100
29.070        93
29.080       100
29.090       133
29.100        93
29.110       100
29.120       113
29.130        93
29.140        60
29.150        93
29.160       120
29.170        87
29.180       107
29.190        80
29.200        87
29.210        80
29.220        80
29.230        87
29.240        40
29.250        60
29.260        27
29.270        73
29.280        80
29.290        67
29.300        47
29.310        27
29.320        27
29.330        20
29.340        73
29.350        40
29.360        60
29.370        67
29.380        73
29.390        53
29.400        67
29.410        87
29.420        87
29.430       140
29.440        73
29.450        60
29.460        40
29.470        67
29.480       153
29.490        73
29.500       113
29.510        87
29.520       100
29.530        73
29.540        80
29.550        60
29.560        80
29.570       107
29.580        87
29.590       147
29.600       107
29.610        53
29.620       100
29.630        87
29.640       127
29.650       100
29.660        87
29.670        67
29.680        73
29.690        67
29.700        67
29.710        93
29.720        67
29.730        33
29.740        73
29.750        47
29.760        47
29.770        40
29.780        60
29.790        47
29.800        53
29.810        27
29.820        53
29.830        40
29.840        27
29.850        33
29.860        33
29.870        27
29.880        33
29.890        60
29.900        20
29.910        27
29.920        20
29.930        40
29.940        53
29.950        27
29.960        20
29.970        20
29.980        47
29.990        67
30.000        67
30.010        27
30.020        40
30.030        60
30.040        53
30.050        60
30.060        13
30.070        40
30.080        27
30.090        60
30.100        80
30.110        53
30.120        40
30.130        80
30.140        27
30.150        47
30.160        60
30.170        60
30.180        80
30.190        67
30.200        60
30.210       107
30.220       100
30.230        67
30.240       127
30.250       120
30.260       113
30.270       187
30.280       167
30.290       200
30.300       180
30.310       160
30.320       267
30.330       247
30.340       220
30.350       260
30.360       207
30.370       260
30.380       267
30.390       133
30.400       280
30.410       200
30.420       267
30.430       207
30.440       147
30.450       153
30.460       120
30.470       160
30.480       120
30.490       100
30.500        93
30.510       100
30.520        73
30.530        67
30.540        73
30.550        73
30.560        93
30.570        53
30.580        67
30.590        47
30.600        80
30.610        40
30.620        27
30.630        47
30.640        33
30.650        27
30.660        20
30.670        40
30.680        27
30.690        33
30.700        33
30.710        60
30.720        27
30.730        53
30.740        47
30.750        47
30.760        53
30.770        53
30.780       113
30.790        27
30.800        27
30.810        53
30.820        20
30.830        47
30.840        60
30.850        47
30.860        40
30.870        80
30.880        40
30.890        40
30.900        13
30.910        53
30.920        53
30.930        33
30.940        40
30.950        47
30.960        60
30.970        27
30.980        20
30.990        47
31.000        53
31.010        33
31.020        27
31.030        53
31.040        27
31.050        33
31.060        40
31.070        60
31.080        53
31.090        40
31.100        33
31.110        33
31.120        33
31.130         7
31.140        47
31.150        20
31.160        40
31.170        20
31.180        20
31.190        47
31.200        20
31.210        40
31.220        27
31.230        27
31.240        40
31.250        20
31.260        33
31.270        33
31.280        47
31.290        20
31.300        33
31.310        40
31.320        13
31.330        47
31.340        27
31.350        47
31.360        53
31.370        33
31.380        40
31.390        27
31.400        27
31.410        13
31.420        67
31.430        40
31.440        27
31.450        40
31.460        33
31.470        40
31.480        13
31.490        47
31.500        40
31.510        13
31.520        40
31.530       100
31.540        20
31.550        40
31.560        47
31.570        53
31.580        20
31.590        27
31.600        53
31.610        60
31.620        47
31.630        53
31.640        60
31.650        27
31.660        60
31.670        67
31.680        60
31.690        40
31.700        60
31.710        27
31.720        33
31.730        27
31.740        73
31.750        27
31.760        27
31.770        60
31.780        20
31.790        27
31.800        40
31.810        33
31.820        40
31.830        67
31.840        27
31.850        47
31.860        40
31.870        60
31.880        27
31.890        40
31.900        27
31.910        27
31.920        53
31.930        87
31.940        73
31.950        60
31.960        80
31.970        40
31.980        87
31.990        67
32.000        93
32.010       113
32.020       113
32.030       207
32.040       100
32.050       113
32.060       127
32.070       120
32.080       153
32.090       113
32.100        80
32.110       133
32.120       113
32.130       107
32.140       127
32.150        93
32.160        93
32.170        80
32.180       113
32.190       113
32.200        47
32.210        73
32.220        47
32.230        53
32.240        47
32.250       107
32.260        27
32.270        27
32.280        73
32.290        40
32.300        53
32.310        27
32.320        33
32.330        33
32.340        40
32.350        27
32.360        40
32.370        33
32.380        40
32.390        60
32.400        60
32.410        47
32.420         7
32.430        47
32.440        33
32.450        60
32.460        33
32.470        67
32.480        40
32.490        27
32.500        33
32.510        27
32.520        13
32.530        80
32.540        13
32.550        20
32.560        53
32.570        13
32.580        53
32.590        33
32.600        47
32.610        27
32.620        20
32.630        13
32.640        20
32.650        20
32.660        60
32.670        27
32.680        27
32.690        53
32.700        33
32.710        33
32.720        33
32.730        27
32.740        40
32.750        27
32.760        20
32.770        60
32.780        47
32.790        33
32.800        20
32.810        33
32.820        20
32.830        40
32.840        27
32.850        53
32.860        47
32.870        47
32.880        47
32.890        67
32.900        40
32.910        27
32.920        20
32.930        47
32.940        33
32.950        53
32.960        53
32.970        13
32.980        27
32.990        40
33.000        20
33.010        20
33.020        33
33.030        67
33.040        33
33.050        53
33.060        13
33.070         7
33.080        33
33.090        27
33.100        20
33.110        33
33.120        53
33.130        33
33.140        33
33.150        27
33.160        33
33.170        33
33.180        13
33.190        47
33.200        13
33.210        40
33.220        27
33.230        33
33.240        20
33.250        20
33.260        13
33.270        13
33.280        20
33.290        40
33.300        47
33.310        33
33.320        73
33.330        13
33.340        27
33.350        20
33.360        27
33.370        33
33.380        33
33.390        20
33.400        40
33.410        33
33.420        33
33.430        40
33.440        40
33.450        47
33.460        33
33.470        33
33.480        47
33.490        27
33.500        60
33.510        20
33.520        27
33.530        47
33.540        40
33.550        27
33.560        47
33.570        47
33.580        13
33.590        27
33.600        47
33.610        20
33.620        33
33.630        20
33.640        13
33.650        13
33.660        40
33.670        13
33.680        13
33.690        20
33.700        53
33.710         7
33.720        40
33.730        33
33.740        33
33.750        33
33.760        33
33.770        40
33.780        60
33.790        53
33.800        27
33.810        20
33.820        40
33.830         7
33.840        20
33.850        53
33.860        47
33.870        60
33.880        47
33.890        53
33.900        33
33.910        40
33.920        40
33.930        27
33.940        27
33.950        33
33.960        47
33.970        27
33.980        53
33.990         7
34.000        27
34.010        33
34.020        60
34.030        33
34.040        33
34.050        20
34.060        27
34.070        33
34.080        33
34.090        33
34.100        27
34.110        27
34.120        73
34.130        20
34.140        33
34.150        53
34.160        20
34.170        40
34.180        40
34.190        27
34.200        60
34.210        53
34.220        47
34.230        33
34.240        33
34.250        67
34.260        33
34.270        27
34.280        47
34.290        20
34.300        53
34.310        27
34.320        40
34.330        20
34.340        53
34.350        27
34.360        40
34.370        33
34.380        60
34.390        27
34.400        47
34.410        40
34.420        40
34.430        20
34.440        33
34.450        27
34.460        20
34.470        40
34.480        33
34.490        27
34.500        40
34.510        53
34.520        40
34.530        40
34.540        40
34.550        47
34.560        33
34.570        33
34.580        53
34.590        47
34.600        27
34.610        33
34.620         7
34.630        40
34.640        33
34.650        40
34.660        27
34.670        33
34.680         7
34.690        20
34.700        27
34.710         0
34.720        40
34.730        27
34.740        33
34.750        47
34.760        53
34.770        27
34.780        47
34.790        60
34.800        27
34.810        33
34.820        33
34.830         7
34.840         7
34.850        33
34.860        20
34.870        73
34.880        20
34.890        27
34.900        33
34.910        47
34.920        33
34.930        47
34.940        67
34.950        53
34.960        33
34.970       140
34.980        53
34.990        93
35.000        93
35.010        80
35.020       113
35.030       113
35.040       180
35.050        73
35.060       133
35.070       113
35.080       167
35.090       120
35.100       193
35.110       193
35.120       233
35.130       233
35.140       380
35.150       546
35.160       446
35.170       680
35.180       633
35.190       666
35.200       506
35.210       520
35.220       413
35.230       320
35.240       393
35.250       287
35.260       380
35.270       373
35.280       327
35.290       387
35.300       233
35.310       200
35.320       127
35.330        73
35.340        47
35.350       127
35.360        53
35.370        53
35.380        33
35.390        40
35.400        53
35.410        27
35.420        53
35.430        47
35.440        47
35.450        13
35.460        27
35.470        47
35.480        13
35.490        67
35.500        60
35.510        33
35.520        27
35.530        60
35.540        47
35.550        47
35.560        20
35.570        33
35.580        47
35.590        27
35.600        33
35.610        20
35.620        27
35.630         7
35.640        20
35.650        33
35.660        40
35.670        60
35.680        47
35.690        60
35.700        67
35.710        20
35.720        20
35.730        53
35.740        40
35.750        27
35.760        27
35.770        27
35.780        20
35.790        33
35.800        13
35.810        47
35.820        33
35.830        47
35.840        33
35.850        40
35.860        40
35.870        13
35.880        20
35.890        33
35.900        33
35.910        27
35.920        27
35.930        67
35.940        33
35.950        47
35.960        33
35.970        27
35.980        40
35.990        53
36.000        27
36.010        27
36.020         7
36.030        47
36.040        33
36.050        20
36.060        27
36.070        47
36.080        27
36.090        33
36.100        40
36.110        40
36.120        67
36.130        20
36.140        27
36.150        27
36.160        20
36.170        27
36.180        33
36.190        40
36.200        13
36.210        40
36.220        53
36.230        33
36.240         7
36.250        47
36.260        33
36.270        13
36.280         7
36.290        40
36.300        60
36.310        47
36.320         7
36.330        13
36.340        40
36.350        27
36.360        27
36.370        27
36.380        27
36.390        47
36.400        40
36.410        33
36.420        40
36.430        20
36.440        13
36.450        67
36.460        20
36.470        27
36.480        13
36.490        47
36.500        40
36.510        20
36.520        33
36.530        27
36.540         7
36.550        27
36.560        27
36.570        20
36.580         0
36.590        27
36.600        53
36.610        20
36.620        20
36.630        27
36.640        20
36.650        20
36.660        33
36.670        60
36.680        60
36.690        27
36.700        40
36.710        47
36.720         7
36.730        27
36.740         7
36.750        40
36.760        20
36.770        13
36.780        13
36.790         0
36.800        20
36.810        13
36.820        53
36.830        13
36.840        53
36.850        20
36.860        47
36.870        20
36.880        33
36.890        27
36.900        53
36.910        33
36.920        33
36.930        47
36.940        33
36.950        13
36.960        40
36.970        40
36.980        47
36.990        20
37.000        27
37.010        20
37.020        20
37.030         0
37.040         7
37.050        33
37.060        27
37.070        33
37.080        33
37.090        20
37.100        20
37.110         7
37.120         0
37.130        20
37.140        27
37.150        47
37.160        27
37.170        13
37.180        13
37.190        27
37.200        27
37.210        47
37.220        13
37.230        33
37.240        47
37.250        47
37.260        13
37.270        27
37.280        13
37.290        27
37.300        53
37.310        27
37.320        33
37.330        27
37.340         0
37.350         7
37.360        47
37.370        60
37.380        33
37.390        13
37.400        53
37.410        33
37.420        20
37.430        53
37.440        33
37.450         7
37.460        20
37.470        27
37.480        40
37.490        13
37.500        60
37.510        47
37.520        33
37.530        27
37.540        53
37.550        33
37.560        40
37.570        20
37.580        47
37.590        33
37.600         7
37.610        33
37.620        20
37.630        20
37.640        20
37.650        40
37.660        40
37.670        40
37.680        33
37.690        33
37.700        80
37.710        53
37.720        40
37.730        27
37.740        47
37.750        60
37.760        20
37.770        60
37.780        47
37.790        27
37.800        87
37.810        20
37.820        73
37.830        33
37.840        53
37.850        40
37.860        53
37.870        40
37.880        60
37.890        40
37.900        47
37.910        53
37.920        27
37.930        27
37.940        67
37.950        47
37.960        33
37.970        33
37.980        20
37.990        47
38.000        27
38.010        27
38.020        67
38.030        27
38.040        47
38.050        27
38.060        20
38.070        20
38.080        13
38.090        40
38.100        53
38.110        13
38.120        20
38.130        53
38.140        20
38.150        13
38.160        40
38.170        53
38.180        20
38.190        27
38.200        33
38.210        27
38.220        33
38.230        33
38.240        47
38.250        33
38.260        40
38.270        53
38.280        67
38.290        47
38.300        33
38.310        40
38.320        40
38.330        40
38.340        47
38.350        67
38.360        60
38.370       100
38.380        47
38.390        47
38.400        67
38.410        40
38.420        80
38.430        40
38.440        40
38.450        53
38.460        67
38.470        67
38.480        40
38.490        53
38.500        53
38.510        67
38.520        27
38.530        60
38.540        60
38.550        60
38.560        27
38.570        73
38.580        80
38.590        87
38.600        27
38.610        20
38.620        33
38.630        60
38.640        53
38.650        40
38.660        87
38.670        20
38.680        40
38.690        60
38.700        60
38.710        40
38.720        13
38.730        47
38.740        20
38.750        33
38.760        47
38.770        20
38.780        47
38.790        47
38.800        47
38.810         7
38.820        53
38.830        40
38.840        53
38.850        53
38.860        47
38.870        27
38.880        40
38.890        67
38.900        27
38.910        40
38.920        40
38.930        27
38.940        33
38.950        40
38.960        27
38.970        33
38.980        27
38.990        13
39.000        73
39.010        53
39.020        40
39.030        20
39.040        47
39.050        40
39.060        60
39.070        47
39.080        40
39.090        13
39.100        27
39.110        33
39.120         0
39.130        47
39.140        27
39.150        13
39.160        20
39.170        40
39.180        33
39.190        20
39.200        27
39.210        20
39.220        67
39.230        33
39.240         7
39.250        40
39.260        27
39.270        20
39.280        20
39.290        20
39.300        27
39.310         7
39.320        13
39.330        40
39.340        20
39.350        47
39.360        27
39.370        27
39.380        27
39.390        33
39.400        33
39.410        13
39.420         7
39.430        47
39.440        60
39.450        33
39.460        53
39.470        27
39.480        33
39.490        60
39.500        20
39.510        33
39.520        13
39.530         7
39.540        33
39.550         7
39.560        20
39.570         7
39.580        20
39.590        40
39.600         7
39.610        13
39.620        13
39.630        33
39.640        27
39.650         7
39.660        13
39.670        20
39.680        20
39.690        20
39.700        53
39.710        27
39.720        13
39.730        20
39.740        47
39.750        13
39.760        40
39.770        27
39.780        40
39.790        20
39.800        20
39.810        20
39.820        33
39.830        33
39.840        13
39.850        13
39.860        33
39.870        13
39.880        20
39.890        60
39.900        27
39.910        27
39.920        20
39.930        27
39.940        33
39.950        40
39.960         7
39.970         7
39.980        47
39.990        20
40.000         7
40.010        53
40.020         0
40.030        13
40.040        33
40.050        33
40.060        20
40.070        20
40.080        13
40.090        27
40.100        20
40.110        20
40.120        33
40.130        33
40.140        53
40.150        33
40.160        40
40.170        40
40.180        40
40.190        20
40.200        13
40.210        20
40.220        47
40.230        13
40.240        27
40.250        60
40.260        53
40.270        27
40.280        40
40.290        13
40.300        47
40.310        40
40.320        47
40.330        20
40.340        87
40.350        53
40.360        33
40.370        47
40.380        20
40.390        20
40.400        27
40.410        53
40.420        33
40.430        40
40.440        20
40.450        47
40.460        13
40.470         7
40.480        47
40.490        33
40.500        33
40.510        13
40.520        20
40.530        13
40.540        60
40.550        20
40.560        20
40.570        13
40.580        20
40.590        33
40.600        33
40.610        33
40.620        20
40.630         7
40.640        33
40.650        40
40.660        27
40.670        33
40.680        53
40.690         7
40.700        27
40.710        13
40.720         7
40.730        27
40.740         7
40.750        20
40.760        27
40.770        33
40.780        33
40.790        13
40.800        13
40.810        13
40.820        33
40.830         7
40.840         7
40.850        33
40.860        20
40.870        20
40.880        27
40.890         7
40.900        67
40.910        20
40.920        20
40.930        53
40.940        20
40.950         7
40.960        27
40.970        40
40.980        20
40.990        20
41.000        40
41.010        20
41.020        40
41.030        20
41.040        13
41.050         7
41.060        33
41.070         7
41.080        47
41.090        40
41.100        33
41.110        20
41.120         7
41.130        20
41.140        53
41.150        13
41.160        13
41.170        33
41.180        33
41.190        53
41.200        40
41.210        40
41.220        73
41.230        33
41.240        40
41.250        67
41.260        47
41.270        27
41.280        13
41.290        20
41.300        20
41.310         7
41.320        33
41.330         7
41.340        33
41.350        20
41.360        33
41.370        27
41.380        20
41.390         7
41.400        27
41.410        27
41.420        27
41.430         7
41.440        20
41.450         7
41.460        27
41.470        13
41.480        20
41.490        67
41.500        27
41.510        20
41.520        40
41.530        27
41.540        20
41.550        13
41.560         7
41.570         7
41.580        13
41.590        33
41.600        13
41.610        27
41.620        47
41.630        27
41.640        47
41.650        47
41.660        47
41.670       100
41.680        67
41.690        80
41.700        93
41.710        87
41.720       100
41.730        93
41.740        53
41.750        73
41.760        53
41.770        53
41.780        20
41.790        53
41.800        40
41.810        80
41.820        87
41.830        40
41.840        40
41.850        53
41.860        60
41.870        13
41.880        33
41.890        40
41.900        60
41.910         7
41.920        20
41.930        67
41.940        13
41.950        40
41.960         7
41.970        13
41.980        47
41.990        27
42.000        13
42.010        20
42.020        33
42.030        73
42.040        47
42.050        73
42.060        73
42.070        40
42.080        53
42.090        73
42.100        33
42.110        67
42.120        33
42.130        87
42.140        53
42.150        80
42.160        73
42.170        60
42.180        67
42.190       107
42.200        87
42.210       100
42.220        73
42.230        47
42.240        40
42.250        60
42.260        47
42.270        60
42.280        73
42.290        60
42.300        47
42.310        53
42.320        53
42.330        53
42.340        60
42.350        53
42.360        47
42.370        27
42.380        20
42.390        73
42.400        27
42.410        40
42.420         7
42.430        40
42.440        13
42.450        33
42.460        40
42.470        27
42.480         0
42.490        13
42.500        40
42.510        33
42.520        33
42.530        13
42.540        33
42.550        33
42.560        20
42.570         7
42.580        47
42.590        13
42.600         7
42.610         7
42.620        53
42.630        33
42.640        53
42.650        40
42.660        40
42.670        33
42.680        27
42.690        33
42.700        33
42.710        20
42.720        40
42.730        33
42.740        20
42.750        13
42.760        13
42.770        20
42.780        20
42.790         7
42.800        13
42.810        47
42.820        20
42.830        33
42.840         7
42.850        27
42.860        20
42.870        33
42.880        40
42.890        53
42.900        80
42.910        40
42.920        20
42.930         7
42.940        13
42.950        27
42.960        20
42.970        13
42.980        40
42.990        13
43.000        40
43.010         7
43.020         7
43.030        27
43.040        27
43.050        20
43.060        27
43.070         7
43.080        47
43.090        40
43.100        27
43.110        47
43.120        40
43.130        33
43.140         7
43.150        20
43.160        40
43.170        13
43.180        33
43.190        47
43.200        53
43.210        33
43.220        47
43.230        20
43.240        53
43.250        53
43.260        40
43.270        53
43.280        60
43.290        47
43.300        73
43.310       113
43.320       120
43.330       107
43.340       133
43.350       100
43.360       120
43.370       133
43.380       107
43.390       140
43.400       153
43.410       120
43.420       147
43.430        67
43.440       113
43.450        93
43.460       140
43.470        73
43.480       100
43.490        93
43.500        67
43.510        60
43.520        73
43.530        53
43.540       107
43.550        60
43.560        27
43.570        27
43.580        53
43.590        40
43.600        40
43.610        47
43.620        20
43.630        20
43.640        27
43.650        20
43.660        33
43.670        40
43.680        33
43.690        27
43.700        27
43.710        20
43.720         7
43.730        47
43.740        33
43.750        13
43.760        33
43.770        53
43.780        40
43.790        53
43.800        33
43.810        33
43.820        13
43.830        20
43.840        20
43.850        20
43.860        27
43.870        13
43.880        40
43.890        33
43.900        20
43.910        13
43.920        20
43.930        33
43.940        13
43.950        13
43.960        27
43.970        20
43.980        40
43.990        33
44.000        20
44.010        33
44.020        13
44.030        20
44.040        13
44.050        33
44.060        33
44.070        13
44.080        20
44.090        13
44.100        27
44.110        27
44.120         0
44.130        27
44.140        27
44.150        40
44.160        27
44.170        20
44.180        13
44.190        33
44.200        13
44.210        33
44.220        33
44.230        27
44.240        20
44.250        33
44.260        40
44.270        20
44.280        20
44.290        40
44.300        13
44.310        33
44.320        20
44.330        33
44.340         0
44.350        27
44.360        33
44.370         7
44.380         7
44.390        33
44.400         7
44.410        27
44.420        33
44.430        47
44.440        20
44.450         7
44.460        40
44.470        13
44.480        27
44.490        33
44.500        40
44.510        27
44.520        20
44.530        33
44.540        20
44.550        20
44.560        27
44.570        20
44.580        27
44.590        33
44.600        27
44.610        13
44.620        47
44.630        20
44.640        20
44.650        67
44.660        40
44.670        33
44.680        33
44.690        27
44.700        13
44.710        33
44.720        13
44.730        40
44.740        27
44.750        13
44.760        27
44.770        20
44.780        27
44.790        27
44.800        13
44.810        27
44.820        13
44.830        20
44.840        13
44.850        20
44.860        40
44.870        13
44.880        13
44.890        13
44.900        27
44.910         0
44.920        33
44.930        27
44.940        13
44.950        33
44.960        53
44.970        27
44.980        33
44.990        27
45.000        20
45.010        67
45.020         7
45.030        13
45.040        27
45.050        33
45.060        33
45.070        40
45.080        13
45.090        47
45.100        53
45.110         7
45.120        27
45.130        33
45.140        20
45.150        20
45.160        40
45.170        40
45.180        47
45.190        20
45.200        13
45.210        20
45.220        33
45.230        67
45.240        20
45.250        33
45.260        47
45.270        27
45.280        53
45.290        20
45.300        33
45.310        13
45.320         7
45.330         7
45.340         0
45.350        20
45.360        13
45.370        53
45.380        47
45.390        27
45.400        13
45.410        33
45.420        27
45.430        60
45.440         7
45.450        33
45.460        40
45.470        27
45.480        60
45.490        33
45.500        40
45.510        27
45.520        60
45.530        27
45.540        27
45.550        47
45.560        53
45.570        40
45.580        73
45.590        73
45.600       100
45.610        53
45.620        53
45.630        80
45.640        93
45.650        80
45.660       113
45.670       153
45.680       133
45.690       167
45.700       213
45.710       147
45.720       153
45.730       253
45.740       247
45.750       247
45.760       267
45.770       367
45.780       260
45.790       393
45.800       466
45.810       573
45.820       626
45.830       653
45.840       706
45.850       740
45.860       813
45.870       673
45.880       640
45.890       746
45.900       846
45.910       573
45.920       753
45.930       486
45.940       466
45.950       540
45.960       546
45.970       606
45.980       573
45.990       513
46.000       407
46.010       433
46.020       387
46.030       420
46.040       380
46.050       267
46.060       267
46.070       207
46.080       193
46.090       193
46.100       187
46.110       153
46.120       127
46.130       107
46.140       100
46.150       133
46.160        60
46.170        87
46.180        60
46.190        60
46.200        87
46.210        60
46.220        67
46.230        67
46.240        27
46.250        40
46.260        67
46.270        73
46.280        53
46.290        47
46.300        40
46.310        60
46.320        80
46.330        47
46.340        47
46.350        73
46.360        40
46.370        27
46.380        40
46.390        40
46.400        20
46.410        20
46.420        60
46.430        33
46.440        20
46.450        73
46.460        40
46.470        33
46.480        73
46.490        47
46.500        60
46.510        80
46.520        20
46.530        27
46.540        53
46.550        27
46.560        27
46.570        40
46.580        73
46.590        60
46.600        67
46.610        73
46.620       100
46.630        60
46.640        60
46.650        80
46.660        80
46.670        93
46.680        47
46.690        60
46.700       100
46.710        87
46.720       153
46.730       147
46.740        93
46.750       153
46.760       113
46.770       147
46.780       153
46.790       173
46.800       127
46.810       173
46.820       200
46.830       167
46.840       160
46.850       267
46.860       160
46.870       207
46.880       227
46.890       213
46.900       193
46.910       240
46.920       173
46.930       173
46.940       193
46.950       213
46.960       240
46.970       233
46.980       193
46.990       220
47.000       160
47.010       127
47.020       180
47.030       180
47.040       173
47.050       140
47.060       133
47.070       120
47.080       153
47.090        47
47.100        80
47.110       120
47.120        87
47.130       100
47.140       133
47.150        67
47.160       113
47.170        80
47.180        40
47.190        33
47.200        67
47.210        60
47.220        27
47.230        73
47.240        27
47.250        27
47.260        40
47.270        47
47.280        20
47.290        80
47.300        67
47.310        27
47.320        40
47.330        40
47.340        13
47.350        20
47.360        47
47.370        47
47.380        27
47.390        33
47.400        33
47.410        20
47.420        40
47.430         7
47.440        27
47.450        73
47.460        20
47.470        27
47.480         7
47.490        13
47.500        20
47.510        13
47.520        27
47.530         7
47.540        20
47.550        27
47.560         7
47.570         7
47.580        47
47.590        20
47.600        73
47.610        27
47.620        53
47.630         7
47.640        40
47.650        53
47.660         7
47.670        33
47.680        47
47.690        33
47.700        27
47.710         7
47.720        13
47.730         7
47.740        13
47.750         7
47.760        53
47.770        20
47.780        27
47.790        47
47.800        27
47.810        40
47.820         7
47.830        33
47.840         7
47.850        33
47.860        27
47.870        27
47.880        40
47.890        20
47.900        40
47.910        27
47.920         7
47.930         7
47.940        13
47.950        27
47.960        13
47.970        33
47.980        33
47.990        27
48.000        27
48.010        27
48.020        27
48.030        53
48.040        27
48.050        20
48.060        27
48.070        20
48.080        33
48.090        20
48.100        20
48.110        27
48.120        47
48.130        40
48.140        27
48.150        40
48.160        27
48.170        33
48.180        40
48.190        33
48.200        40
48.210         7
48.220        27
48.230         7
48.240        53
48.250        33
48.260        47
48.270        40
48.280        27
48.290        27
48.300        27
48.310        27
48.320        60
48.330        53
48.340         0
48.350        60
48.360         7
48.370        33
48.380        13
48.390        27
48.400        20
48.410        47
48.420         7
48.430        20
48.440        40
48.450        47
48.460        40
48.470        27
48.480        33
48.490        40
48.500        33
48.510        27
48.520        13
48.530        33
48.540        20
48.550        40
48.560        67
48.570        13
48.580        53
48.590        27
48.600        20
48.610        20
48.620        33
48.630        47
48.640         7
48.650        27
48.660        27
48.670        33
48.680        47
48.690        20
48.700        20
48.710        20
48.720       107
48.730        13
48.740        67
48.750        40
48.760        27
48.770        20
48.780        53
48.790        47
48.800        33
48.810        93
48.820        73
48.830        47
48.840        93
48.850        53
48.860        47
48.870        47
48.880        60
48.890        33
48.900       107
48.910        60
48.920        73
48.930        47
48.940        40
48.950        60
48.960        60
48.970        60
48.980        67
48.990        67
49.000        73
49.010        80
49.020       113
49.030        60
49.040        67
49.050        40
49.060        47
49.070        87
49.080        27
49.090        27
49.100        20
49.110        47
49.120        53
49.130        33
49.140         7
49.150        47
49.160        53
49.170        33
49.180        33
49.190        13
49.200        33
49.210        47
49.220        40
49.230        40
49.240        20
49.250        20
49.260        60
49.270        33
49.280        20
49.290        13
49.300        40
49.310        20
49.320        13
49.330        27
49.340        20
49.350        20
49.360        20
49.370        40
49.380        20
49.390        13
49.400        20
49.410        47
49.420        20
49.430        13
49.440        20
49.450        47
49.460        33
49.470        33
49.480        13
49.490        33
49.500        27
49.510        40
49.520        20
49.530        40
49.540        40
49.550        33
49.560        40
49.570        67
49.580        13
49.590        47
49.600        47
49.610        40
49.620        27
49.630        53
49.640        67
49.650        60
49.660        27
49.670        60
49.680        47
49.690        53
49.700       100
49.710        33
49.720        60
49.730        47
49.740        73
49.750        80
49.760        67
49.770       100
49.780        87
49.790        80
49.800        60
49.810        67
49.820       127
49.830        73
49.840        67
49.850        80
49.860        73
49.870       127
49.880        60
49.890        87
49.900        73
49.910        73
49.920        73
49.930       113
49.940        80
49.950        80
49.960        67
49.970        73
49.980        80
49.990        40
50.000        80
50.010        40
50.020        60
50.030        47
50.040        87
50.050        47
50.060        33
50.070        53
50.080        33
50.090        33
50.100        60
50.110        40
50.120        27
50.130        27
50.140        33
50.150        47
50.160        60
50.170        40
50.180        40
50.190        33
50.200        47
50.210        33
50.220        47
50.230        20
50.240        47
50.250        27
50.260        33
50.270        33
50.280        47
50.290        53
50.300        53
50.310        33
50.320        40
50.330        33
50.340        27
50.350        40
50.360        33
50.370        53
50.380        47
50.390        27
50.400        33
50.410        13
50.420        27
50.430        27
50.440        27
50.450        27
50.460        53
50.470        47
50.480        13
50.490        33
50.500        27
50.510        27
50.520        40
50.530        33
50.540        47
50.550        20
50.560        20
50.570        13
50.580        20
50.590        27
50.600        53
50.610         0
50.620        40
50.630        60
50.640        13
50.650        20
50.660        13
50.670        27
50.680        27
50.690        27
50.700         7
50.710        33
50.720        13
50.730        27
50.740        47
50.750         7
50.760        13
50.770        20
50.780        40
50.790        20
50.800        27
50.810        53
50.820        33
50.830        20
50.840        40
50.850        27
50.860         0
50.870        33
50.880        33
50.890        40
50.900        20
50.910        33
50.920        47
50.930        20
50.940         7
50.950        13
50.960        53
50.970        33
50.980        27
50.990        13
51.000        20
51.010        20
51.020        13
51.030        13
51.040        20
51.050        20
51.060        13
51.070        33
51.080        47
51.090        13
51.100        27
51.110        20
51.120        13
51.130        20
51.140        47
51.150        20
51.160        20
51.170        13
51.180        27
51.190         7
51.200        40
51.210        13
51.220        27
51.230        47
51.240        33
51.250        33
51.260        27
51.270        13
51.280        13
51.290        33
51.300         0
51.310        13
51.320        20
51.330         7
51.340        20
51.350        20
51.360        13
51.370         7
51.380        40
51.390        20
51.400         7
51.410        20
51.420        47
51.430        13
51.440        33
51.450        33
51.460        53
51.470        40
51.480        13
51.490        33
51.500        27
51.510        47
51.520        33
51.530        20
51.540        20
51.550        60
51.560        47
51.570        73
51.580        73
51.590        40
51.600        47
51.610        93
51.620        67
51.630        80
51.640        67
51.650        33
51.660       100
51.670        80
51.680       107
51.690        47
51.700        53
51.710       107
51.720        73
51.730        73
51.740       107
51.750       107
51.760        67
51.770        93
51.780        87
51.790       127
51.800        67
51.810        40
51.820       107
51.830        87
51.840        93
51.850        67
51.860        80
51.870        47
51.880        60
51.890        93
51.900       100
51.910        53
51.920        73
51.930        47
51.940        67
51.950        53
51.960        53
51.970        33
51.980        40
51.990        27
52.000        47
52.010        40
52.020        27
52.030        33
52.040        20
52.050        27
52.060        20
52.070        13
52.080        33
52.090        20
52.100        27
52.110        47
52.120        27
52.130        53
52.140        27
52.150        20
52.160        40
52.170        33
52.180        20
52.190        13
52.200         7
52.210         7
52.220        27
52.230        20
52.240        40
52.250         7
52.260        13
52.270        13
52.280        13
52.290        33
52.300         7
52.310        20
52.320        33
52.330        13
52.340        20
52.350        20
52.360        13
52.370        13
52.380        20
52.390        13
52.400        40
52.410        20
52.420        27
52.430        20
52.440        67
52.450        20
52.460        33
52.470       100
52.480        67
52.490        73
52.500        47
52.510        47
52.520       100
52.530        67
52.540       120
52.550       167
52.560       200
52.570       287
52.580       373
52.590       287
52.600       280
52.610       273
52.620       247
52.630       207
52.640       113
52.650       107
52.660        60
52.670        47
52.680       127
52.690        60
52.700       113
52.710       107
52.720       147
52.730       380
52.740       160
52.750       120
52.760       127
52.770       100
52.780        60
52.790        80
52.800        40
52.810        33
52.820        47
52.830        33
52.840        27
52.850         7
52.860        20
52.870        33
52.880        20
52.890        20
52.900        27
52.910        20
52.920        27
52.930         7
52.940        27
52.950        20
52.960        47
52.970         7
52.980        13
52.990        40
53.000        27
53.010        20
53.020        13
53.030        27
53.040        20
53.050         7
53.060        27
53.070        20
53.080        13
53.090        20
53.100        20
53.110        40
53.120        47
53.130        27
53.140         0
53.150        20
53.160        33
53.170        20
53.180        20
53.190        40
53.200        60
53.210        20
53.220        27
53.230        20
53.240        67
53.250        27
53.260        47
53.270        53
53.280        33
53.290        40
53.300         7
53.310        33
53.320        20
53.330        20
53.340         7
53.350        20
53.360        13
53.370         7
53.380        33
53.390        27
53.400        20
53.410        20
53.420        60
53.430        40
53.440        33
53.450        27
53.460        27
53.470        33
53.480         7
53.490        27
53.500        13
53.510        13
53.520        13
53.530        27
53.540        20
53.550        20
53.560        27
53.570        40
53.580        33
53.590        20
53.600        20
53.610        53
53.620        20
53.630        27
53.640        47
53.650        33
53.660        20
53.670         7
53.680         7
53.690        27
53.700        13
53.710        13
53.720        13
53.730        27
53.740        20
53.750        20
53.760         0
53.770        13
53.780        13
53.790        13
53.800        20
53.810        13
53.820        47
53.830        53
53.840        33
53.850        20
53.860        13
53.870         7
53.880        20
53.890        20
53.900        13
53.910         0
53.920         7
53.930        20
53.940        13
53.950        20
53.960        13
53.970         7
53.980         7
53.990        20
54.000        40
54.010        53
54.020        33
54.030         7
54.040        20
54.050        40
54.060        27
54.070        33
54.080        20
54.090        13
54.100        40
54.110        27
54.120        27
54.130         7
54.140        53
54.150        13
54.160        27
54.170        13
54.180        13
54.190        20
54.200         7
54.210        20
54.220         7
54.230        13
54.240        33
54.250        13
54.260        40
54.270        13
54.280        20
54.290         7
54.300         7
54.310        20
54.320        27
54.330        13
54.340         7
54.350         0
54.360        20
54.370        13
54.380        20
54.390        20
54.400        13
54.410        40
54.420        20
54.430        13
54.440        33
54.450        13
54.460         7
54.470        27
54.480        27
54.490        27
54.500         7
54.510         0
54.520         7
54.530        27
54.540         7
54.550        13
54.560        13
54.570        13
54.580        13
54.590        13
54.600         0
54.610        20
54.620        27
54.630        20
54.640        53
54.650        13
54.660         0
54.670        13
54.680        13
54.690        13
54.700        13
54.710        13
54.720        40
54.730        20
54.740        27
54.750        13
54.760        20
54.770        27
54.780        27
54.790         0
54.800        27
54.810        13
54.820        20
54.830        33
54.840        27
54.850         7
54.860        33
54.870        20
54.880        13
54.890         0
54.900        27
54.910         7
54.920        20
54.930        20
54.940        27
54.950        47
54.960        27
54.970         7
54.980         7
54.990         7
55.000         7
55.010        47
55.020        13
55.030         7
55.040        13
55.050        13
55.060         7
55.070        47
55.080         0
55.090        20
55.100         7
55.110        20
55.120        13
55.130         7
55.140        13
55.150        33
55.160        33
55.170        33
55.180        33
55.190        27
55.200        20
55.210        20
55.220        27
55.230        13
55.240        27
55.250        20
55.260         7
55.270         0
55.280        20
55.290        20
55.300        13
55.310        33
55.320        27
55.330        27
55.340         7
55.350        27
55.360         7
55.370         0
55.380        40
55.390        20
55.400        13
55.410        33
55.420         7
55.430        27
55.440        27
55.450        13
55.460        53
55.470        20
55.480        13
55.490        20
55.500        33
55.510        27
55.520        27
55.530        27
55.540        20
55.550        20
55.560         7
55.570        47
55.580        13
55.590        20
55.600        27
55.610        20
55.620        40
55.630        20
55.640        27
55.650        13
55.660        13
55.670        20
55.680        13
55.690        67
55.700        20
55.710        33
55.720        47
55.730        33
55.740         7
55.750        27
55.760        60
55.770        20
55.780        27
55.790        20
55.800        47
55.810        40
55.820        20
55.830        33
55.840        20
55.850        47
55.860        47
55.870         7
55.880        33
55.890        27
55.900        27
55.910        40
55.920        13
55.930        20
55.940        47
55.950        53
55.960        13
55.970        33
55.980        47
55.990        33
56.000        40
56.010        40
56.020        60
56.030        40
56.040        53
56.050        53
56.060        33
56.070        47
56.080        47
56.090        60
56.100        40
56.110        20
56.120        67
56.130        47
56.140        27
56.150        67
56.160        47
56.170       100
56.180        53
56.190        40
56.200        33
56.210        60
56.220        33
56.230        60
56.240        27
56.250        67
56.260        40
56.270        67
56.280        67
56.290        53
56.300        53
56.310        67
56.320       100
56.330        27
56.340        53
56.350        47
56.360        20
56.370        60
56.380        40
56.390        27
56.400        20
56.410         7
56.420        20
56.430        27
56.440        67
56.450        27
56.460        53
56.470        27
56.480        20
56.490        60
56.500        53
56.510         0
56.520        27
56.530        27
56.540        20
56.550        53
56.560        27
56.570        13
56.580        40
56.590        27
56.600        20
56.610        33
56.620        27
56.630        33
56.640        27
56.650        20
56.660         7
56.670        20
56.680        27
56.690         7
56.700        47
56.710         7
56.720        33
56.730         0
56.740        33
56.750        20
56.760        47
56.770        20
56.780        13
56.790        20
56.800        27
56.810        33
56.820        20
56.830         0
56.840        13
56.850        27
56.860        13
56.870        47
56.880         7
56.890        27
56.900        13
56.910         7
56.920        20
56.930        40
56.940        20
56.950        13
56.960        13
56.970        27
56.980        40
56.990        13
57.000        13
57.010        27
57.020        13
57.030        20
57.040        20
57.050        33
57.060         7
57.070        13
57.080        40
57.090        33
57.100        40
57.110        33
57.120        60
57.130        27
57.140        13
57.150        13
57.160        20
57.170        33
57.180        67
57.190        53
57.200         7
57.210         7
57.220        40
57.230        33
57.240        67
57.250        20
57.260        80
57.270        27
57.280        47
57.290        47
57.300        40
57.310        33
57.320        33
57.330        20
57.340        20
57.350        73
57.360        60
57.370       107
57.380        47
57.390        67
57.400        53
57.410        67
57.420       113
57.430       120
57.440       153
57.450       173
57.460       160
57.470       260
57.480       446
57.490       473
57.500       593
57.510       593
57.520       913
57.530       773
57.540       686
57.550       606
57.560       460
57.570       466
57.580       433
57.590       327
57.600       260
57.610       240
57.620       220
57.630       227
57.640       287
57.650       273
57.660       353
57.670       287
57.680       380
57.690       327
57.700       393
57.710       360
57.720       280
57.730       193
57.740        93
57.750        93
57.760        80
57.770        73
57.780        47
57.790        60
57.800        40
57.810        40
57.820        47
57.830        20
57.840        47
57.850        47
57.860        13
57.870        47
57.880        27
57.890        33
57.900        33
57.910        33
57.920        47
57.930        33
57.940        33
57.950        27
57.960        40
57.970        53
57.980        27
57.990         7
58.000        20
58.010        27
58.020         7
58.030        47
58.040        47
58.050        13
58.060        40
58.070        33
58.080        13
58.090        13
58.100         7
58.110        20
58.120        13
58.130        33
58.140         7
58.150        20
58.160        13
58.170        27
58.180        67
58.190        27
58.200        13
58.210        33
58.220        40
58.230        53
58.240        67
58.250         7
58.260        20
58.270        33
58.280        47
58.290        27
58.300        20
58.310        13
58.320        27
58.330        20
58.340        20
58.350        33
58.360        27
58.370        13
58.380        33
58.390         7
58.400        13
58.410        33
58.420        13
58.430        27
58.440        33
58.450        20
58.460        13
58.470        20
58.480         7
58.490        67
58.500        13
58.510        20
58.520         7
58.530         7
58.540        33
58.550        20
58.560        27
58.570        20
58.580        33
58.590        20
58.600        13
58.610        20
58.620        27
58.630        20
58.640        13
58.650         7
58.660        13
58.670        20
58.680        13
58.690        40
58.700         7
58.710         7
58.720        13
58.730        20
58.740        20
58.750        13
58.760        13
58.770        20
58.780        33
58.790        27
58.800         7
58.810         0
58.820        20
58.830        27
58.840        27
58.850         0
58.860         7
58.870        13
58.880        33
58.890        20
58.900        13
58.910        27
58.920        13
58.930         7
58.940         7
58.950        27
58.960        20
58.970        27
58.980        33
58.990        27
59.000        20
59.010         0
59.020        13
59.030        33
59.040        20
59.050        20
59.060        20
59.070        47
59.080        53
59.090        20
59.100         7
59.110        20
59.120        47
59.130         7
59.140        33
59.150         7
59.160         0
59.170        20
59.180         7
59.190        13
59.200         0
59.210        13
59.220        27
59.230         7
59.240        33
59.250        27
59.260        27
59.270        27
59.280         7
59.290        13
59.300        13
59.310         7
59.320         0
59.330        13
59.340        27
59.350        40
59.360         7
59.370        33
59.380        40
59.390         7
59.400        33
59.410        20
59.420        40
59.430        47
59.440         7
59.450         7
59.460        40
59.470        20
59.480        13
59.490        33
59.500        13
59.510         7
59.520        20
59.530         7
59.540        33
59.550        13
59.560        27
59.570        13
59.580        27
59.590        20
59.600        27
59.610        40
59.620        27
59.630        27
59.640        20
59.650        13
59.660        27
59.670        33
59.680        53
59.690        13
59.700        47
59.710        33
59.720        13
59.730        20
59.740        60
59.750        27
59.760        27
59.770        33
59.780        13
59.790         7
59.800        20
59.810        33
59.820        20
59.830        13
59.840        33
59.850        20
59.860        13
59.870        33
59.880        27
59.890        27
59.900         0
59.910        13
59.920        33
59.930        13
59.940        33
59.950        20
59.960        20
59.970        20
59.980        13
59.990        13
60.000        20
