20.000        53
20.010        53
20.020        47
20.030        53
20.040        20
20.050        67
20.060        53
20.070        53
20.080        53
20.090        60
20.100        40
20.110        67
20.120        53
20.130        80
20.140        53
20.150        33
20.160        47
20.170        60
20.180        47
20.190        40
20.200        47
20.210        53
20.220        47
20.230        47
20.240        40
20.250        47
20.260        67
20.270        47
20.280        60
20.290        80
20.300        40
20.310       100
20.320        60
20.330        40
20.340        40
20.350        60
20.360        67
20.370        47
20.380        40
20.390        27
20.400        33
20.410        47
20.420        33
20.430        40
20.440        60
20.450        60
20.460        93
20.470        33
20.480        73
20.490        20
20.500        27
20.510        67
20.520        40
20.530        47
20.540        20
20.550        33
20.560        60
20.570        60
20.580        67
20.590        40
20.600        40
20.610        47
20.620        47
20.630        53
20.640        40
20.650        47
20.660        47
20.670        27
20.680        80
20.690        67
20.700        53
20.710        27
20.720        67
20.730        67
20.740        40
20.750        60
20.760        40
20.770        53
20.780        20
20.790        40
20.800        47
20.810        67
20.820        73
20.830        27
20.840        53
20.850        33
20.860        40
20.870        27
20.880        33
20.890        27
20.900        33
20.910        40
20.920        13
20.930        13
20.940        67
20.950        53
20.960        33
20.970        47
20.980        20
20.990        47
21.000        27
21.010        47
21.020        27
21.030        60
21.040        27
21.050        40
21.060        40
21.070        20
21.080        73
21.090        60
21.100        40
21.110        67
21.120        33
21.130        60
21.140        53
21.150        53
21.160        53
21.170        40
21.180        47
21.190        80
21.200        67
21.210        53
21.220        67
21.230        33
21.240        60
21.250        40
21.260        47
21.270        80
21.280        53
21.290        47
21.300        67
21.310        60
21.320        40
21.330        13
21.340        40
21.350        40
21.360        13
21.370        20
21.380        60
21.390        47
21.400        60
21.410        47
21.420        47
21.430        20
21.440        40
21.450        20
21.460        27
21.470        40
21.480        47
21.490        33
21.500         7
21.510        27
21.520        60
21.530        40
21.540        73
21.550        33
21.560        40
21.570        27
21.580        40
21.590        40
21.600        40
21.610        27
21.620        47
21.630        40
21.640        53
21.650        60
21.660        13
21.670        73
21.680        67
21.690        60
21.700        60
21.710        27
21.720        33
21.730        13
21.740        60
21.750        87
21.760        47
21.770        73
21.780        33
21.790        20
21.800        33
21.810        60
21.820        40
21.830        67
21.840        67
21.850       107
21.860        93
21.870        60
21.880        47
21.890        53
21.900        60
21.910        33
21.920        47
21.930        47
21.940        53
21.950        53
21.960        53
21.970        33
21.980        40
21.990        20
22.000        33
22.010        47
22.020        40
22.030        47
22.040        47
22.050        40
22.060        60
22.070        73
22.080        67
22.090        60
22.100        53
22.110        47
22.120        47
22.130        80
22.140       100
22.150        73
22.160        60
22.170        67
22.180       100
22.190        33
22.200        60
22.210        47
22.220        53
22.230        73
22.240        53
22.250        80
22.260        40
22.270        73
22.280        87
22.290       107
22.300       107
22.310       147
22.320       107
22.330        87
22.340       147
22.350       180
22.360       180
22.370       153
22.380       227
22.390       173
22.400       260
22.410       207
22.420       293
22.430       280
22.440       313
22.450       420
22.460       333
22.470       400
22.480       400
22.490       580
22.500       480
22.510       546
22.520       493
22.530       486
22.540       566
22.550       486
22.560       533
22.570       480
22.580       393
22.590       393
22.600       380
22.610       380
22.620       307
22.630       207
22.640       267
22.650       247
22.660       187
22.670       207
22.680       213
22.690       167
22.700       180
22.710       180
22.720       120
22.730       133
22.740       133
22.750       127
22.760       153
22.770       140
22.780       120
22.790       200
22.800        87
22.810       147
22.820       133
22.830       160
22.840       173
22.850       173
22.860       167
22.870       113
22.880       113
22.890        93
22.900        53
22.910        87
22.920       120
22.930       100
22.940        93
22.950        60
22.960        93
22.970        93
22.980        60
22.990        87
23.000        60
23.010        53
23.020        13
23.030        73
23.040        33
23.050        40
23.060        47
23.070        60
23.080        80
23.090        33
23.100        87
23.110        33
23.120        33
23.130        33
23.140        20
23.150        47
23.160        67
23.170        80
23.180        80
23.190        67
23.200        87
23.210        40
23.220        47
23.230        53
23.240        47
23.250        40
23.260        53
23.270        53
23.280        47
23.290        60
23.300        40
23.310        13
23.320        73
23.330        20
23.340        67
23.350        33
23.360        53
23.370        53
23.380        47
23.390        47
23.400        53
23.410        67
23.420        27
23.430        60
23.440        33
23.450        47
23.460        53
23.470        33
23.480        60
23.490        53
23.500        47
23.510        80
23.520        33
23.530        53
23.540        47
23.550        40
23.560        67
23.570        20
23.580        60
23.590        20
23.600        53
23.610        47
23.620        33
23.630        53
23.640        67
23.650        87
23.660        40
23.670        67
23.680        47
23.690        40
23.700        60
23.710        93
23.720        67
23.730        27
23.740        67
23.750        60
23.760        53
23.770        33
23.780        80
23.790        27
23.800        27
23.810        93
23.820        53
23.830        40
23.840        67
23.850        27
23.860        33
23.870        20
23.880        33
23.890        47
23.900        60
23.910        53
23.920        40
23.930        27
23.940        80
23.950        40
23.960        53
23.970        53
23.980        40
23.990        33
24.000        47
24.010        60
24.020        33
24.030        47
24.040        33
24.050        53
24.060        47
24.070        53
24.080        60
24.090        33
24.100        60
24.110        60
24.120        47
24.130        27
24.140        47
24.150        47
24.160        87
24.170        73
24.180        40
24.190        40
24.200        33
24.210        53
24.220        40
24.230        47
24.240        80
24.250        60
24.260        20
24.270        20
24.280        53
24.290        13
24.300        33
24.310        40
24.320        53
24.330        20
24.340        33
24.350        53
24.360        47
24.370        40
24.380        27
24.390        27
24.400        27
24.410        13
24.420         7
24.430        53
24.440        33
24.450        40
24.460        33
24.470        33
24.480         7
24.490        67
24.500        80
24.510        40
24.520        60
24.530        40
24.540        40
24.550        73
24.560        73
24.570        13
24.580        27
24.590        47
24.600        73
24.610        53
24.620        47
24.630        47
24.640        47
24.650        20
24.660        27
24.670        67
24.680        33
24.690        33
24.700        27
24.710        53
24.720        40
24.730        47
24.740        67
24.750        33
24.760        33
24.770        53
24.780        53
24.790        47
24.800        33
24.810        47
24.820        47
24.830        47
24.840        33
24.850        40
24.860        13
24.870        33
24.880        60
24.890        33
24.900        47
24.910        33
24.920        53
24.930        53
24.940        53
24.950        53
24.960        33
24.970        33
24.980        53
24.990        33
25.000        47
25.010        67
25.020        47
25.030        40
25.040        80
25.050        53
25.060        33
25.070        33
25.080        40
25.090        33
25.100        40
25.110        40
25.120        40
25.130        80
25.140        47
25.150        33
25.160        47
25.170        40
25.180        67
25.190        60
25.200        20
25.210        27
25.220        73
25.230        60
25.240        67
25.250        53
25.260        33
25.270        53
25.280        33
25.290        20
25.300        33
25.310        40
25.320        40
25.330        53
25.340        53
25.350        80
25.360        60
25.370        53
25.380        47
25.390        80
25.400        60
25.410        40
25.420        60
25.430        53
25.440        53
25.450        47
25.460        60
25.470        60
25.480        60
25.490       140
25.500       133
25.510       133
25.520       147
25.530        87
25.540       133
25.550       207
25.560       180
25.570       173
25.580       160
25.590       147
25.600       193
25.610       120
25.620       173
25.630       187
25.640       180
25.650       153
25.660       227
25.670       180
25.680       260
25.690       327
25.700       260
25.710       426
25.720       367
25.730       380
25.740       446
25.750       420
25.760       387
25.770       466
25.780       440
25.790       420
25.800       273
25.810       360
25.820       253
25.830       287
25.840       200
25.850       220
25.860       113
25.870       200
25.880       167
25.890        93
25.900        87
25.910       160
25.920        47
25.930        73
25.940        73
25.950        80
25.960        60
25.970        67
25.980        93
25.990        47
26.000        67
26.010        80
26.020        27
26.030        53
26.040        33
26.050        47
26.060        33
26.070        40
26.080        33
26.090        47
26.100        47
26.110        33
26.120        60
26.130        47
26.140        33
26.150        67
26.160        40
26.170        40
26.180        47
26.190        40
26.200        47
26.210        67
26.220        73
26.230        47
26.240        40
26.250        73
26.260        20
26.270        73
26.280        20
26.290        47
26.300        40
26.310        40
26.320        53
26.330        33
26.340        60
26.350        27
26.360        67
26.370        60
26.380        47
26.390        27
26.400        20
26.410        33
26.420        20
26.430        20
26.440       100
26.450        53
26.460        33
26.470        27
26.480        33
26.490        67
26.500        53
26.510         0
26.520        13
26.530        27
26.540        40
26.550        47
26.560        40
26.570        53
26.580        27
26.590        33
26.600        47
26.610        47
26.620        40
26.630         7
26.640        67
26.650        27
26.660        40
26.670        20
26.680        33
26.690        47
26.700        33
26.710         7
26.720        27
26.730        53
26.740        67
26.750        40
26.760        53
26.770        33
26.780        53
26.790        13
26.800        20
26.810        47
26.820        20
26.830        60
26.840        13
26.850        13
26.860        60
26.870        13
26.880        27
26.890        53
26.900        27
26.910        93
26.920        40
26.930        20
26.940        40
26.950        33
26.960        33
26.970        27
26.980        80
26.990        20
27.000        40
27.010        47
27.020        33
27.030        20
27.040        40
27.050        27
27.060        13
27.070        33
27.080        33
27.090        40
27.100        47
27.110        33
27.120        47
27.130        40
27.140        27
27.150        40
27.160        53
27.170        60
27.180        33
27.190        60
27.200        47
27.210        33
27.220        27
27.230        40
27.240        20
27.250        20
27.260        13
27.270        40
27.280        67
27.290        27
27.300        60
27.310        60
27.320        33
27.330        20
27.340        40
27.350        47
27.360        27
27.370        33
27.380        33
27.390        33
27.400        60
27.410        60
27.420        27
27.430        47
27.440        33
27.450        53
27.460        60
27.470        53
27.480        47
27.490        47
27.500        80
27.510        27
27.520        53
27.530        60
27.540        27
27.550        33
27.560        33
27.570        40
27.580        40
27.590        60
27.600        67
27.610       113
27.620        73
27.630        40
27.640        67
27.650        87
27.660        67
27.670        67
27.680        93
27.690        73
27.700        80
27.710        93
27.720        87
27.730        80
27.740        40
27.750        67
27.760        60
27.770        47
27.780        67
27.790       100
27.800        80
27.810        33
27.820        27
27.830        40
27.840        27
27.850        53
27.860        27
27.870        27
27.880        60
27.890        40
27.900        60
27.910        13
27.920        67
27.930        40
27.940        53
27.950        27
27.960        27
27.970        40
27.980        47
27.990        47
28.000        47
28.010        27
28.020        27
28.030        27
28.040        47
28.050        53
28.060        60
28.070        27
28.080        47
28.090        27
28.100        33
28.110        80
28.120        53
28.130        53
28.140        47
28.150        60
28.160        27
28.170        47
28.180        13
28.190        40
28.200        73
28.210        33
28.220        67
28.230        60
28.240        53
28.250        53
28.260        60
28.270        60
28.280        40
28.290        47
28.300        47
28.310        93
28.320        80
28.330        40
28.340        40
28.350        27
28.360        60
28.370        40
28.380        40
28.390        27
28.400        60
28.410        60
28.420        33
28.430       100
28.440        27
28.450        20
28.460        20
28.470        33
28.480        27
28.490        73
28.500        33
28.510        87
28.520        67
28.530        40
28.540        33
28.550        53
28.560        33
28.570        53
28.580        40
28.590        33
28.600        60
28.610        60
28.620        40
28.630        20
28.640        67
28.650        73
28.660        93
28.670        33
28.680        53
28.690        33
28.700        27
28.710        47
28.720        33
28.730        80
28.740        27
28.750        53
28.760        67
28.770        93
28.780        47
28.790        60
28.800        13
28.810        60
28.820        20
28.830        27
28.840        60
28.850        20
28.860        40
28.870        67
28.880        60
28.890        33
28.900        47
28.910        20
28.920        47
28.930        27
28.940        33
28.950        33
28.960        20
28.970        60
28.980        53
28.990        27
29.000        73
29.010        47
29.020        53
29.030        53
29.040        33
29.050        60
29.060        67
29.070       100
29.080        47
29.090        87
29.100        33
29.110        67
29.120        40
29.130        40
29.140        60
29.150        47
29.160        47
29.170        20
29.180        53
29.190        40
29.200        67
29.210        80
29.220        67
29.230        53
29.240        40
29.250        33
29.260        60
29.270        67
29.280        53
29.290        40
29.300        53
29.310       120
29.320        67
29.330        40
29.340       100
29.350        53
29.360        87
29.370       100
29.380       120
29.390       113
29.400        93
29.410       160
29.420       113
29.430       127
29.440       133
29.450       140
29.460       153
29.470       173
29.480       280
29.490       280
29.500       327
29.510       267
29.520       273
29.530       293
29.540       373
29.550       340
29.560       307
29.570       380
29.580       253
29.590       253
29.600       200
29.610       233
29.620       160
29.630       273
29.640       207
29.650       160
29.660       160
29.670       160
29.680       133
29.690       133
29.700        60
29.710       127
29.720       107
29.730        93
29.740        80
29.750       107
29.760        93
29.770        20
29.780        47
29.790        20
29.800        20
29.810        67
29.820        53
29.830        33
29.840        53
29.850        47
29.860        53
29.870        27
29.880        67
29.890        53
29.900        67
29.910        60
29.920        33
29.930        87
29.940        40
29.950        27
29.960        33
29.970        33
29.980        33
29.990        13
30.000        33
30.010        60
30.020        33
30.030        33
30.040        47
30.050        53
30.060        40
30.070        47
30.080        60
30.090        40
30.100        33
30.110        27
30.120        33
30.130        33
30.140        53
30.150        33
30.160        40
30.170        93
30.180        60
30.190        40
30.200        40
30.210        40
30.220        40
30.230        40
30.240        73
30.250        67
30.260        80
30.270       100
30.280       120
30.290       113
30.300        87
30.310       113
30.320       187
30.330       167
30.340        93
30.350       173
30.360       173
30.370       233
30.380       247
30.390       207
30.400       220
30.410       267
30.420       187
30.430       287
30.440       227
30.450       180
30.460       220
30.470       140
30.480       200
30.490       167
30.500       193
30.510       193
30.520       140
30.530       147
30.540       133
30.550        87
30.560       100
30.570        67
30.580        60
30.590        87
30.600        27
30.610        53
30.620        67
30.630        53
30.640        33
30.650        27
30.660        20
30.670        53
30.680        20
30.690        40
30.700        53
30.710        33
30.720        33
30.730        47
30.740        80
30.750        47
30.760        13
30.770        47
30.780        33
30.790         7
30.800        13
30.810        27
30.820        33
30.830        20
30.840        20
30.850        13
30.860        40
30.870        20
30.880        53
30.890        40
30.900        67
30.910        47
30.920        27
30.930        40
30.940        20
30.950        20
30.960        20
30.970        47
30.980        33
30.990        33
31.000        33
31.010        33
31.020        47
31.030        47
31.040        67
31.050        80
31.060        40
31.070        53
31.080        20
31.090        33
31.100        27
31.110        60
31.120         0
31.130         7
31.140        40
31.150        13
31.160        53
31.170        20
31.180        40
31.190        33
31.200        27
31.210        20
31.220        67
31.230        53
31.240        27
31.250        20
31.260        53
31.270        33
31.280        27
31.290        40
31.300        47
31.310        20
31.320        20
31.330        27
31.340        60
31.350        20
31.360        20
31.370        20
31.380        20
31.390        40
31.400        60
31.410        47
31.420        33
31.430        40
31.440        20
31.450        20
31.460        20
31.470        27
31.480        40
31.490        47
31.500        60
31.510        47
31.520        40
31.530        33
31.540        40
31.550        27
31.560        53
31.570        27
31.580        20
31.590        27
31.600        33
31.610        20
31.620        73
31.630        27
31.640        20
31.650        47
31.660        20
31.670        33
31.680        40
31.690        40
31.700        33
31.710        33
31.720        33
31.730        60
31.740        27
31.750        33
31.760        33
31.770        20
31.780        47
31.790        20
31.800        73
31.810        33
31.820        27
31.830        47
31.840        40
31.850         7
31.860        73
31.870        47
31.880        87
31.890        60
31.900        47
31.910        47
31.920       100
31.930        73
31.940        47
31.950       107
31.960       107
31.970        73
31.980        93
31.990       167
32.000       140
32.010       207
32.020       153
32.030       153
32.040       147
32.050       187
32.060       233
32.070       307
32.080       227
32.090       293
32.100       247
32.110       287
32.120       293
32.130       320
32.140       200
32.150       327
32.160       273
32.170       220
32.180       220
32.190       220
32.200       140
32.210       180
32.220       140
32.230       160
32.240       127
32.250       100
32.260       120
32.270        53
32.280        67
32.290        80
32.300        67
32.310        93
32.320        40
32.330        47
32.340        47
32.350        27
32.360        47
32.370        13
32.380        33
32.390        20
32.400        47
32.410        27
32.420        20
32.430        67
32.440        20
32.450        53
32.460        20
32.470        33
32.480        40
32.490        20
32.500        47
32.510        20
32.520        67
32.530        53
32.540        13
32.550        40
32.560        20
32.570        33
32.580        60
32.590        40
32.600        33
32.610         0
32.620        33
32.630        53
32.640        33
32.650        20
32.660        47
32.670         7
32.680        27
32.690        20
32.700        20
32.710        27
32.720        27
32.730        20
32.740         7
32.750        27
32.760        47
32.770        13
32.780        33
32.790        20
32.800        53
32.810        40
32.820        27
32.830        20
32.840        40
32.850        27
32.860        20
32.870        20
32.880        20
32.890        40
32.900        67
32.910         7
32.920        20
32.930        27
32.940        47
32.950        20
32.960        27
32.970        33
32.980        33
32.990        47
33.000         7
33.010         7
33.020        33
33.030        27
33.040        20
33.050        27
33.060        27
33.070        13
33.080        27
33.090        47
33.100        33
33.110         0
33.120        27
33.130        40
33.140        13
33.150        40
33.160        40
33.170        27
33.180        20
33.190        40
33.200        20
33.210        33
33.220        13
33.230         7
33.240        27
33.250        33
33.260        60
33.270        40
33.280        53
33.290        27
33.300        13
33.310        20
33.320        33
33.330         7
33.340        47
33.350        20
33.360        20
33.370        27
33.380        20
33.390        13
33.400        27
33.410        13
33.420        27
33.430        40
33.440        13
33.450        33
33.460        40
33.470        27
33.480         0
33.490        27
33.500         0
33.510        33
33.520        20
33.530         7
33.540        20
33.550        27
33.560        27
33.570        27
33.580        20
33.590        27
33.600         7
33.610        20
33.620        27
33.630        27
33.640        27
33.650        33
33.660         7
33.670        20
33.680        20
33.690        27
33.700         0
33.710        27
33.720        33
33.730        27
33.740        20
33.750        27
33.760        33
33.770        27
33.780        33
33.790        33
33.800        40
33.810        47
33.820        60
33.830        13
33.840        60
33.850        20
33.860        27
33.870        27
33.880        20
33.890        33
33.900        13
33.910        47
33.920        40
33.930        33
33.940        27
33.950        20
33.960        33
33.970        20
33.980        40
33.990        13
34.000        13
34.010        40
34.020        20
34.030        13
34.040         7
34.050        47
34.060        20
34.070        53
34.080        20
34.090        20
34.100        13
34.110        20
34.120        73
34.130        33
34.140         7
34.150        33
34.160        33
34.170        73
34.180        33
34.190        40
34.200        33
34.210        20
34.220        73
34.230        67
34.240        40
34.250        27
34.260        60
34.270        20
34.280        27
34.290        40
34.300        47
34.310        13
34.320         7
34.330        27
34.340        60
34.350        13
34.360        33
34.370        20
34.380        27
34.390        20
34.400        33
34.410        47
34.420        33
34.430        27
34.440        27
34.450         7
34.460        47
34.470        27
34.480        33
34.490        20
34.500        27
34.510        47
34.520        33
34.530        33
34.540        27
34.550        73
34.560        33
34.570        40
34.580        27
34.590        40
34.600        47
34.610        53
34.620        40
34.630        40
34.640        20
34.650        20
34.660        47
34.670        40
34.680        40
34.690        47
34.700        13
34.710         7
34.720        40
34.730        20
34.740        47
34.750        20
34.760        40
34.770        27
34.780        20
34.790        13
34.800        13
34.810        40
34.820        13
34.830        13
34.840        40
34.850        33
34.860        13
34.870        67
34.880        47
34.890        27
34.900        40
34.910        40
34.920        53
34.930        53
34.940        53
34.950        93
34.960        67
34.970        47
34.980        60
34.990        33
35.000        53
35.010        40
35.020        27
35.030        67
35.040        67
35.050        13
35.060        87
35.070       133
35.080        53
35.090       100
35.100       153
35.110       200
35.120       247
35.130       213
35.140       313
35.150       320
35.160       267
35.170       233
35.180       240
35.190       353
35.200       273
35.210       207
35.220       187
35.230       233
35.240       107
35.250       187
35.260       153
35.270       180
35.280       140
35.290        80
35.300        53
35.310        80
35.320        53
35.330        13
35.340        60
35.350        27
35.360        60
35.370        60
35.380        20
35.390        40
35.400        20
35.410        33
35.420        20
35.430        40
35.440         0
35.450        13
35.460        33
35.470        20
35.480        27
35.490        40
35.500        13
35.510        33
35.520        13
35.530        27
35.540        47
35.550         7
35.560        53
35.570        33
35.580        40
35.590        13
35.600        27
35.610         7
35.620        27
35.630        13
35.640        53
35.650        53
35.660        13
35.670        13
35.680        20
35.690        27
35.700        40
35.710        20
35.720        13
35.730        33
35.740        20
35.750        40
35.760         7
35.770        20
35.780        40
35.790        27
35.800        20
35.810        13
35.820         7
35.830        40
35.840         7
35.850        13
35.860        33
35.870         7
35.880        27
35.890        27
35.900        20
35.910        13
35.920        27
35.930        60
35.940        33
35.950        33
35.960         7
35.970        33
35.980        20
35.990         7
36.000        20
36.010        33
36.020        20
36.030        53
36.040        20
36.050        27
36.060        33
36.070        20
36.080        13
36.090         7
36.100        20
36.110        20
36.120        20
36.130        20
36.140        27
36.150        33
36.160        27
36.170        53
36.180        13
36.190        27
36.200        33
36.210        27
36.220        20
36.230        20
36.240        33
36.250        20
36.260        53
36.270        13
36.280        20
36.290        13
36.300        20
36.310        13
36.320        27
36.330        33
36.340        13
36.350         7
36.360        20
36.370        13
36.380        33
36.390        27
36.400        33
36.410        47
36.420        53
36.430         7
36.440        13
36.450         7
36.460        27
36.470        20
36.480        47
36.490         7
36.500        47
36.510        27
36.520        27
36.530        13
36.540        47
36.550        20
36.560        33
36.570        13
36.580        20
36.590        53
36.600        13
36.610        20
36.620         0
36.630         7
36.640        27
36.650         0
36.660        20
36.670        20
36.680        40
36.690        27
36.700         7
36.710        20
36.720        33
36.730        33
36.740        27
36.750         0
36.760        20
36.770        20
36.780        20
36.790        40
36.800        27
36.810        27
36.820        27
36.830        20
36.840        47
36.850        47
36.860        47
36.870        47
36.880        33
36.890        47
36.900        13
36.910        13
36.920        27
36.930        33
36.940        13
36.950        33
36.960        40
36.970         7
36.980        33
36.990        13
37.000         7
37.010        20
37.020        27
37.030        40
37.040        20
37.050        33
37.060        20
37.070        27
37.080        47
37.090        33
37.100        33
37.110        20
37.120         7
37.130        13
37.140        40
37.150        40
37.160        13
37.170         7
37.180        20
37.190        20
37.200        33
37.210        20
37.220        13
37.230        13
37.240        27
37.250        13
37.260        33
37.270        13
37.280        27
37.290        27
37.300         0
37.310        20
37.320        13
37.330        20
37.340        40
37.350        33
37.360         7
37.370        40
37.380        47
37.390        60
37.400        20
37.410        40
37.420        27
37.430         0
37.440        27
37.450        20
37.460        20
37.470        40
37.480        20
37.490         7
37.500        40
37.510        33
37.520        33
37.530        40
37.540        20
37.550        40
37.560        60
37.570        27
37.580        20
37.590         7
37.600        40
37.610         0
37.620        20
37.630        27
37.640        60
37.650        73
37.660       120
37.670        73
37.680       113
37.690        80
37.700       127
37.710        67
37.720        33
37.730        40
37.740        60
37.750        67
37.760        93
37.770        93
37.780        93
37.790        47
37.800        60
37.810        53
37.820        67
37.830        33
37.840        40
37.850        20
37.860        33
37.870        93
37.880        47
37.890        53
37.900        33
37.910        47
37.920        33
37.930        20
37.940        20
37.950        13
37.960         7
37.970        27
37.980        13
37.990        27
38.000        27
38.010        13
38.020        20
38.030        33
38.040        20
38.050        53
38.060        27
38.070         7
38.080        27
38.090        13
38.100        27
38.110        33
38.120        47
38.130        40
38.140        20
38.150        67
38.160        27
38.170        13
38.180        47
38.190        20
38.200        27
38.210        13
38.220        13
38.230        13
38.240        27
38.250         7
38.260        27
38.270        33
38.280        20
38.290        40
38.300        40
38.310         7
38.320        20
38.330        20
38.340        20
38.350        33
38.360        20
38.370        40
38.380        27
38.390        20
38.400         7
38.410        47
38.420        33
38.430        33
38.440        13
38.450        40
38.460        13
38.470        27
38.480        40
38.490        20
38.500        20
38.510        13
38.520        13
38.530        40
38.540        13
38.550        33
38.560        13
38.570        13
38.580        27
38.590        13
38.600         7
38.610        33
38.620        47
38.630        33
38.640        13
38.650        27
38.660        20
38.670        20
38.680        33
38.690        33
38.700        20
38.710         7
38.720        40
38.730        33
38.740        47
38.750        40
38.760        13
38.770        40
38.780        40
38.790        33
38.800        13
38.810        13
38.820        40
38.830        33
38.840        40
38.850        53
38.860        53
38.870        20
38.880        27
38.890        40
38.900        60
38.910        53
38.920        27
38.930       100
38.940        47
38.950        60
38.960        20
38.970        13
38.980        33
38.990        40
39.000        40
39.010        47
39.020        53
39.030        33
39.040        33
39.050        33
39.060        47
39.070        27
39.080        47
39.090        20
39.100        27
39.110        27
39.120        20
39.130         7
39.140        40
39.150        33
39.160        27
39.170        40
39.180        33
39.190        53
39.200        40
39.210        13
39.220         7
39.230        20
39.240        20
39.250        13
39.260        20
39.270        33
39.280         7
39.290        27
39.300        27
39.310        20
39.320        13
39.330        20
39.340        47
39.350        20
39.360        33
39.370        33
39.380         7
39.390         0
39.400        13
39.410        53
39.420        27
39.430        27
39.440        20
39.450        13
39.460        53
39.470        13
39.480        13
39.490        40
39.500         7
39.510        13
39.520        13
39.530        20
39.540        27
39.550        20
39.560        40
39.570        13
39.580        20
39.590        33
39.600        20
39.610        33
39.620        13
39.630        20
39.640        53
39.650        20
39.660        13
39.670        27
39.680         0
39.690        13
39.700        13
39.710        33
39.720        47
39.730         7
39.740        27
39.750         7
39.760        40
39.770        27
39.780        33
39.790        13
39.800         7
39.810         7
39.820        40
39.830        27
39.840        40
39.850        27
39.860        27
39.870        13
39.880        20
39.890        27
39.900        33
39.910        13
39.920        13
39.930        40
39.940        27
39.950        40
39.960        27
39.970        13
39.980        47
39.990         7
40.000        13
40.010         7
40.020        20
40.030        27
40.040        20
40.050         7
40.060        33
40.070         7
40.080        33
40.090        20
40.100        20
40.110        20
40.120        33
40.130        20
40.140        20
40.150        27
40.160        33
40.170        13
40.180        33
40.190        40
40.200        27
40.210        40
40.220        33
40.230        13
40.240         7
40.250        27
40.260        27
40.270        13
40.280         7
40.290        27
40.300        20
40.310        13
40.320        27
40.330        13
40.340        27
40.350        20
40.360        27
40.370         7
40.380         7
40.390        33
40.400        20
40.410        13
40.420        33
40.430        27
40.440        20
40.450        13
40.460        13
40.470        27
40.480        20
40.490        27
40.500        27
40.510        27
40.520        20
40.530        33
40.540         7
40.550        20
40.560        13
40.570        40
40.580        40
40.590        13
40.600        27
40.610        60
40.620        20
40.630         7
40.640        40
40.650        27
40.660        33
40.670        13
40.680        13
40.690        20
40.700        33
40.710         7
40.720        13
40.730        20
40.740        40
40.750        27
40.760        13
40.770         7
40.780        20
40.790        33
40.800        20
40.810        20
40.820        20
40.830        27
40.840        20
40.850        27
40.860        33
40.870        13
40.880        13
40.890        13
40.900        33
40.910        33
40.920        33
40.930        33
40.940        40
40.950        27
40.960        20
40.970        67
40.980        20
40.990        13
41.000        20
41.010        20
41.020        27
41.030        27
41.040        40
41.050        20
41.060        33
41.070        20
41.080        20
41.090        33
41.100        13
41.110        20
41.120        40
41.130        53
41.140        40
41.150        27
41.160        13
41.170        27
41.180        13
41.190        27
41.200         7
41.210        13
41.220        13
41.230        27
41.240         7
41.250        20
41.260         7
41.270        13
41.280        27
41.290         0
41.300        20
41.310        13
41.320        40
41.330        33
41.340        13
41.350        13
41.360        20
41.370        13
41.380        33
41.390        33
41.400        13
41.410        13
41.420        20
41.430        13
41.440         7
41.450        20
41.460        40
41.470        20
41.480        13
41.490        20
41.500        33
41.510        20
41.520        40
41.530        13
41.540        20
41.550        27
41.560        33
41.570        13
41.580        33
41.590        13
41.600         7
41.610        40
41.620        27
41.630        20
41.640        33
41.650        40
41.660        27
41.670        60
41.680        53
41.690        67
41.700        53
41.710        40
41.720        40
41.730        40
41.740        20
41.750        33
41.760        27
41.770        60
41.780        20
41.790        47
41.800        13
41.810        33
41.820        27
41.830         0
41.840        27
41.850        27
41.860        13
41.870        40
41.880        33
41.890        20
41.900         7
41.910        27
41.920         7
41.930        53
41.940        20
41.950        27
41.960        40
41.970        20
41.980        20
41.990        27
42.000        13
42.010        33
42.020        20
42.030        33
42.040        47
42.050        20
42.060        27
42.070        27
42.080        33
42.090        33
42.100        60
42.110        13
42.120        40
42.130        13
42.140        73
42.150        27
42.160        67
42.170        67
42.180        67
42.190        67
42.200        40
42.210        67
42.220        53
42.230        93
42.240        80
42.250        60
42.260       127
42.270       107
42.280        87
42.290       100
42.300       133
42.310       127
42.320       113
42.330       127
42.340        93
42.350       133
42.360       107
42.370        93
42.380        73
42.390        87
42.400       127
42.410        67
42.420        53
42.430        47
42.440        53
42.450        27
42.460        73
42.470        40
42.480        47
42.490        33
42.500        20
42.510        80
42.520        27
42.530        33
42.540        53
42.550        53
42.560        33
42.570        27
42.580         7
42.590        27
42.600        27
42.610        33
42.620        20
42.630        20
42.640         7
42.650        20
42.660        40
42.670        20
42.680        33
42.690         7
42.700        20
42.710        40
42.720        13
42.730        33
42.740        47
42.750        40
42.760        13
42.770        27
42.780        20
42.790        27
42.800        27
42.810        33
42.820        13
42.830        20
42.840        20
42.850        13
42.860         7
42.870        20
42.880        33
42.890        20
42.900        27
42.910        33
42.920         7
42.930        33
42.940        47
42.950        33
42.960        27
42.970        33
42.980        40
42.990         7
43.000        33
43.010        20
43.020         7
43.030        53
43.040        20
43.050        73
43.060        27
43.070         7
43.080        40
43.090        40
43.100        20
43.110        33
43.120        27
43.130        40
43.140        33
43.150        13
43.160        20
43.170        33
43.180        27
43.190        40
43.200        33
43.210        33
43.220        40
43.230        47
43.240        47
43.250        33
43.260        27
43.270        60
43.280        60
43.290        53
43.300        80
43.310       167
43.320       140
43.330       227
43.340       240
43.350       373
43.360       307
43.370       413
43.380       387
43.390       313
43.400       207
43.410       287
43.420       120
43.430       160
43.440        93
43.450       167
43.460       213
43.470       233
43.480       193
43.490       167
43.500       140
43.510       127
43.520       127
43.530       160
43.540        47
43.550        40
43.560        47
43.570        20
43.580        40
43.590        40
43.600        47
43.610        20
43.620        47
43.630        27
43.640        33
43.650        40
43.660        33
43.670        33
43.680        67
43.690        20
43.700        13
43.710        13
43.720         0
43.730        33
43.740        33
43.750        27
43.760        40
43.770        13
43.780        33
43.790        27
43.800        13
43.810        13
43.820         7
43.830         7
43.840        27
43.850        27
43.860        13
43.870         0
43.880        33
43.890         7
43.900        27
43.910        27
43.920        33
43.930        20
43.940        13
43.950        33
43.960        13
43.970        27
43.980         7
43.990        13
44.000        33
44.010        13
44.020        33
44.030         7
44.040        20
44.050        20
44.060        47
44.070        40
44.080        27
44.090        20
44.100         7
44.110        27
44.120        13
44.130        40
44.140         0
44.150        20
44.160        27
44.170        27
44.180        20
44.190        27
44.200        20
44.210        20
44.220        27
44.230        33
44.240        33
44.250         7
44.260         0
44.270        33
44.280        20
44.290        33
44.300        40
44.310        20
44.320        27
44.330        13
44.340        13
44.350        33
44.360         0
44.370        13
44.380         0
44.390        13
44.400        27
44.410        33
44.420        27
44.430        73
44.440         7
44.450        13
44.460         7
44.470        13
44.480         0
44.490        20
44.500         7
44.510         7
44.520        20
44.530         7
44.540        47
44.550        27
44.560         7
44.570        27
44.580        33
44.590        27
44.600         7
44.610        47
44.620        33
44.630         0
44.640        27
44.650         7
44.660        13
44.670        33
44.680        27
44.690        13
44.700        20
44.710        20
44.720        40
44.730        27
44.740        20
44.750        27
44.760         0
44.770        47
44.780        53
44.790        27
44.800        13
44.810        13
44.820         0
44.830        13
44.840         7
44.850        33
44.860         0
44.870        40
44.880         7
44.890        40
44.900         7
44.910        27
44.920        20
44.930        40
44.940        13
44.950        33
44.960        20
44.970         7
44.980        20
44.990        40
45.000        20
45.010        60
45.020        27
45.030        40
45.040         7
45.050        13
45.060        40
45.070        13
45.080         7
45.090        27
45.100        13
45.110        33
45.120        47
45.130        20
45.140        33
45.150        13
45.160        20
45.170        20
45.180        20
45.190         7
45.200        27
45.210        20
45.220        13
45.230        40
45.240        27
45.250        13
45.260        20
45.270         7
45.280        20
45.290        27
45.300        13
45.310         7
45.320        33
45.330        40
45.340        33
45.350        20
45.360        20
45.370        20
45.380        13
45.390        40
45.400        20
45.410        27
45.420        13
45.430        27
45.440        27
45.450        27
45.460        20
45.470        33
45.480        13
45.490        27
45.500        20
45.510        13
45.520         7
45.530        27
45.540        20
45.550        13
45.560        13
45.570        33
45.580        20
45.590        13
45.600        13
45.610        20
45.620         7
45.630        27
45.640         0
45.650        40
45.660        27
45.670         7
45.680        33
45.690        27
45.700        20
45.710        40
45.720        13
45.730        33
45.740        47
45.750        47
45.760        47
45.770        33
45.780        47
45.790        13
45.800        13
45.810        47
45.820        27
45.830        33
45.840        53
45.850        27
45.860        67
45.870        87
45.880        73
45.890        80
45.900       127
45.910       147
45.920        67
45.930       127
45.940       127
45.950       187
45.960       173
45.970       187
45.980       173
45.990       260
46.000       233
46.010       173
46.020       173
46.030       220
46.040       220
46.050       220
46.060       167
46.070       227
46.080       207
46.090       180
46.100       247
46.110       200
46.120       233
46.130       233
46.140       187
46.150       187
46.160       193
46.170       180
46.180       187
46.190       140
46.200       213
46.210       133
46.220       213
46.230       127
46.240       147
46.250       107
46.260        60
46.270        73
46.280        80
46.290       127
46.300       107
46.310        93
46.320        93
46.330        47
46.340        67
46.350        60
46.360        67
46.370        67
46.380        73
46.390        33
46.400        20
46.410        80
46.420        40
46.430        27
46.440        60
46.450        53
46.460        47
46.470        27
46.480        73
46.490        67
46.500        60
46.510        27
46.520        53
46.530        47
46.540        47
46.550        47
46.560        87
46.570        53
46.580        47
46.590        47
46.600        73
46.610        73
46.620        40
46.630        53
46.640        67
46.650        53
46.660        60
46.670        60
46.680        53
46.690        53
46.700        53
46.710        73
46.720        47
46.730        60
46.740        40
46.750        80
46.760       140
46.770        80
46.780        53
46.790        87
46.800        27
46.810        53
46.820        53
46.830        93
46.840        40
46.850        40
46.860        47
46.870        60
46.880        60
46.890        87
46.900        67
46.910        87
46.920        53
46.930        47
46.940        33
46.950        47
46.960        47
46.970        60
46.980        47
46.990        40
47.000        13
47.010        33
47.020        40
47.030        40
47.040        27
47.050        27
47.060        40
47.070        47
47.080        27
47.090        20
47.100        40
47.110        40
47.120        33
47.130        60
47.140        47
47.150        13
47.160        20
47.170        27
47.180        47
47.190        13
47.200        13
47.210        20
47.220        33
47.230        47
47.240        33
47.250        27
47.260        53
47.270        40
47.280        20
47.290        33
47.300        53
47.310        20
47.320        33
47.330        20
47.340        27
47.350        13
47.360        40
47.370        47
47.380        27
47.390        20
47.400        33
47.410        20
47.420        20
47.430         0
47.440        13
47.450        20
47.460        27
47.470        33
47.480        40
47.490        13
47.500        33
47.510        13
47.520        60
47.530        13
47.540        20
47.550         7
47.560        27
47.570        27
47.580        13
47.590        47
47.600        40
47.610        33
47.620        33
47.630        20
47.640        20
47.650         7
47.660        20
47.670        13
47.680        33
47.690        13
47.700        40
47.710        33
47.720        33
47.730        27
47.740        27
47.750        20
47.760        27
47.770        13
47.780        13
47.790         7
47.800        20
47.810        27
47.820        27
47.830         7
47.840         7
47.850        33
47.860        13
47.870        20
47.880        20
47.890         0
47.900         0
47.910        20
47.920        33
47.930        27
47.940        20
47.950        20
47.960        13
47.970        53
47.980        27
47.990        13
48.000        20
48.010        33
48.020        13
48.030        13
48.040        33
48.050        40
48.060        33
48.070        27
48.080        27
48.090        27
48.100        47
48.110        33
48.120        47
48.130        13
48.140        33
48.150         7
48.160        40
48.170        13
48.180        27
48.190        47
48.200        13
48.210         7
48.220        20
48.230         7
48.240        33
48.250        47
48.260         7
48.270        27
48.280        13
48.290        20
48.300        47
48.310         7
48.320        13
48.330        40
48.340         7
48.350        20
48.360        40
48.370         7
48.380        13
48.390        73
48.400        33
48.410        40
48.420        13
48.430        27
48.440        20
48.450        53
48.460        47
48.470        13
48.480        27
48.490        27
48.500        47
48.510        20
48.520        27
48.530        27
48.540        27
48.550        13
48.560        33
48.570        33
48.580        13
48.590         7
48.600         0
48.610        13
48.620        27
48.630        13
48.640        20
48.650        13
48.660        20
48.670        20
48.680        20
48.690        33
48.700        40
48.710        20
48.720        20
48.730        20
48.740        13
48.750        27
48.760        20
48.770        33
48.780        73
48.790        20
48.800        33
48.810        33
48.820        20
48.830        33
48.840        20
48.850        13
48.860        40
48.870        47
48.880        67
48.890        27
48.900        20
48.910        73
48.920        60
48.930        60
48.940        27
48.950        67
48.960       127
48.970        80
48.980        60
48.990        53
49.000        53
49.010       100
49.020        93
49.030       120
49.040        87
49.050       127
49.060       120
49.070        33
49.080       107
49.090       107
49.100        47
49.110        60
49.120        80
49.130       127
49.140        73
49.150        67
49.160        73
49.170        80
49.180        67
49.190        87
49.200       100
49.210        73
49.220        33
49.230        20
49.240        33
49.250        40
49.260        33
49.270        40
49.280        40
49.290        47
49.300        33
49.310        53
49.320        47
49.330        27
49.340        40
49.350        13
49.360        27
49.370        33
49.380        33
49.390        47
49.400        20
49.410         0
49.420        27
49.430         7
49.440        27
49.450        33
49.460        13
49.470        20
49.480        20
49.490        40
49.500        33
49.510        20
49.520        53
49.530        13
49.540        40
49.550        20
49.560        27
49.570        20
49.580        33
49.590        13
49.600        27
49.610         7
49.620        33
49.630        20
49.640        13
49.650        20
49.660        20
49.670        13
49.680        40
49.690        33
49.700         7
49.710        13
49.720        20
49.730        27
49.740         7
49.750        47
49.760        27
49.770         7
49.780        27
49.790        20
49.800        20
49.810        53
49.820        20
49.830        20
49.840        20
49.850        20
49.860        33
49.870         7
49.880        27
49.890        47
49.900        40
49.910        20
49.920        27
49.930        40
49.940         0
49.950        20
49.960        20
49.970         7
49.980        27
49.990        20
50.000        20
50.010        13
50.020        13
50.030        47
50.040        60
50.050        53
50.060        20
50.070        13
50.080        27
50.090        27
50.100         7
50.110        40
50.120        20
50.130        27
50.140        20
50.150        13
50.160        27
50.170        13
50.180        47
50.190        27
50.200        33
50.210        20
50.220        27
50.230        40
50.240        13
50.250         7
50.260         7
50.270        33
50.280         7
50.290        20
50.300        13
50.310         7
50.320         0
50.330        13
50.340        47
50.350        13
50.360        27
50.370        13
50.380        33
50.390        13
50.400        33
50.410        13
50.420         7
50.430        27
50.440        47
50.450        20
50.460        13
50.470        13
50.480        20
50.490        13
50.500         7
50.510        27
50.520        27
50.530        33
50.540        27
50.550         7
50.560        27
50.570        33
50.580        27
50.590        13
50.600         7
50.610        20
50.620        33
50.630        13
50.640        40
50.650        27
50.660        27
50.670        53
50.680        27
50.690        13
50.700        60
50.710         7
50.720        27
50.730        40
50.740        27
50.750        27
50.760        33
50.770        13
50.780         7
50.790        20
50.800        20
50.810         7
50.820        13
50.830        13
50.840         7
50.850        33
50.860         7
50.870        20
50.880        20
50.890        20
50.900        47
50.910         7
50.920         7
50.930         7
50.940         7
50.950         7
50.960        20
50.970        47
50.980         0
50.990        20
51.000        20
51.010        27
51.020        27
51.030        20
51.040        33
51.050        13
51.060         7
51.070         0
51.080         7
51.090         7
51.100        27
51.110         7
51.120         0
51.130        27
51.140        33
51.150        20
51.160         0
51.170        20
51.180        13
51.190        20
51.200         7
51.210        40
51.220        20
51.230         7
51.240        13
51.250        13
51.260        13
51.270        20
51.280        13
51.290        27
51.300        13
51.310         7
51.320        20
51.330        33
51.340        13
51.350        40
51.360        40
51.370        13
51.380        20
51.390        53
51.400        20
51.410        13
51.420         7
51.430        13
51.440         7
51.450        13
51.460         7
51.470        20
51.480        27
51.490        20
51.500        27
51.510        60
51.520        33
51.530         7
51.540         7
51.550        20
51.560        40
51.570        33
51.580        27
51.590        40
51.600        13
51.610        13
51.620        27
51.630        60
51.640        27
51.650        40
51.660        47
51.670        13
51.680        53
51.690        67
51.700        27
51.710        13
51.720        27
51.730        53
51.740        87
51.750        27
51.760        53
51.770        47
51.780       100
51.790        87
51.800        73
51.810       107
51.820        67
51.830       100
51.840        47
51.850        87
51.860       100
51.870       100
51.880        80
51.890        33
51.900        73
51.910        93
51.920        93
51.930       127
51.940       140
51.950       140
51.960        73
51.970        67
51.980       133
51.990       120
52.000       120
52.010        87
52.020        47
52.030        60
52.040        67
52.050        73
52.060        87
52.070        27
52.080        87
52.090        53
52.100        67
52.110        60
52.120        27
52.130        80
52.140        53
52.150        60
52.160        47
52.170        53
52.180        27
52.190        27
52.200        60
52.210        13
52.220        40
52.230        33
52.240        40
52.250        27
52.260        33
52.270        33
52.280        27
52.290        33
52.300        27
52.310        13
52.320        27
52.330        13
52.340        40
52.350        13
52.360        33
52.370        20
52.380        60
52.390        47
52.400        93
52.410       100
52.420       107
52.430        93
52.440       100
52.450       153
52.460       100
52.470        87
52.480       113
52.490        33
52.500        67
52.510        87
52.520        53
52.530        73
52.540        87
52.550        73
52.560        73
52.570        67
52.580        73
52.590        73
52.600        47
52.610        60
52.620        40
52.630        40
52.640        47
52.650        33
52.660        20
52.670        27
52.680        47
52.690        60
52.700        33
52.710        33
52.720        27
52.730        53
52.740        33
52.750        27
52.760        33
52.770        27
52.780        20
52.790        20
52.800         7
52.810        33
52.820         7
52.830         7
52.840        27
52.850        33
52.860        20
52.870         0
52.880        27
52.890        33
52.900        20
52.910        20
52.920        27
52.930        20
52.940        13
52.950        60
52.960        33
52.970         7
52.980         7
52.990         7
53.000        20
53.010        27
53.020        33
53.030        40
53.040        27
53.050        20
53.060         7
53.070        27
53.080        20
53.090         7
53.100        33
53.110        20
53.120        13
53.130        13
53.140         7
53.150        33
53.160         7
53.170        13
53.180        20
53.190         7
53.200        20
53.210        20
53.220        13
53.230        33
53.240        20
53.250        40
53.260        27
53.270        13
53.280         7
53.290        20
53.300         7
53.310         7
53.320        40
53.330        13
53.340        20
53.350        20
53.360        27
53.370        27
53.380         7
53.390        13
53.400        33
53.410         7
53.420        27
53.430        27
53.440        27
53.450         0
53.460        20
53.470        13
53.480        40
53.490        33
53.500         0
53.510        40
53.520        20
53.530        20
53.540        13
53.550        33
53.560        13
53.570        20
53.580        33
53.590        20
53.600        33
53.610        27
53.620        33
53.630         7
53.640        53
53.650        20
53.660        20
53.670        27
53.680        13
53.690         7
53.700        27
53.710         7
53.720        27
53.730        53
53.740        13
53.750        27
53.760        20
53.770         7
53.780        20
53.790        13
53.800        20
53.810        20
53.820         7
53.830         7
53.840        13
53.850        20
53.860         7
53.870        13
53.880        13
53.890        27
53.900        20
53.910        13
53.920        20
53.930        13
53.940        33
53.950         7
53.960        27
53.970        20
53.980        20
53.990        40
54.000        27
54.010        20
54.020        27
54.030        13
54.040        20
54.050        27
54.060        13
54.070        13
54.080        20
54.090        13
54.100        20
54.110         0
54.120         7
54.130        20
54.140        13
54.150        27
54.160        40
54.170        33
54.180        27
54.190         7
54.200        33
54.210        27
54.220         0
54.230        20
54.240        20
54.250        40
54.260         7
54.270        13
54.280        20
54.290        20
54.300        47
54.310        27
54.320        33
54.330         7
54.340        20
54.350         0
54.360        13
54.370         7
54.380        20
54.390        13
54.400        27
54.410        20
54.420        20
54.430        27
54.440        13
54.450        27
54.460        27
54.470         0
54.480        13
54.490         7
54.500        20
54.510        40
54.520        13
54.530        27
54.540        40
54.550         0
54.560        13
54.570        13
54.580        27
54.590        13
54.600         7
54.610        33
54.620         7
54.630        20
54.640        20
54.650         0
54.660         7
54.670        13
54.680         7
54.690         7
54.700         7
54.710        20
54.720        27
54.730         7
54.740         7
54.750        20
54.760        40
54.770        27
54.780        27
54.790        13
54.800         0
54.810        53
54.820        27
54.830        20
54.840        40
54.850         7
54.860         7
54.870        33
54.880        33
54.890        33
54.900         0
54.910        27
54.920        27
54.930        20
54.940         7
54.950         7
54.960        33
54.970        33
54.980        13
54.990         7
55.000        40
55.010        13
55.020        20
55.030        13
55.040        47
55.050        27
55.060        20
55.070        40
55.080         0
55.090         0
55.100        13
55.110        13
55.120        13
55.130        33
55.140         0
55.150        53
55.160        27
55.170        33
55.180        27
55.190        20
55.200        27
55.210        13
55.220        13
55.230         7
55.240        20
55.250         7
55.260        27
55.270        33
55.280        27
55.290        20
55.300        20
55.310        47
55.320         7
55.330        13
55.340        13
55.350        47
55.360        33
55.370        33
55.380        27
55.390        33
55.400         7
55.410        33
55.420         7
55.430        40
55.440         0
55.450        20
55.460         7
55.470        20
55.480        27
55.490        13
55.500        20
55.510        13
55.520        47
55.530        20
55.540        13
55.550        33
55.560        20
55.570        47
55.580        27
55.590        33
55.600        33
55.610        47
55.620        20
55.630        27
55.640        13
55.650        33
55.660        33
55.670        20
55.680        53
55.690        20
55.700        47
55.710        47
55.720        33
55.730        20
55.740        40
55.750        47
55.760        27
55.770        20
55.780        67
55.790        40
55.800        20
55.810        27
55.820        47
55.830        33
55.840        27
55.850        67
55.860        53
55.870        20
55.880        27
55.890        27
55.900        20
55.910        27
55.920        27
55.930        27
55.940        47
55.950         7
55.960        20
55.970        40
55.980        27
55.990        13
56.000         0
56.010        20
56.020        47
56.030         7
56.040        27
56.050        40
56.060        13
56.070         7
56.080        53
56.090        20
56.100        27
56.110        33
56.120        13
56.130        40
56.140        27
56.150        20
56.160        47
56.170        27
56.180        20
56.190        27
56.200        40
56.210        33
56.220        40
56.230        33
56.240        20
56.250         7
56.260        20
56.270         7
56.280        47
56.290        40
56.300         0
56.310        27
56.320         7
56.330        33
56.340        53
56.350        20
56.360        40
56.370        33
56.380         7
56.390         7
56.400        53
56.410        27
56.420        33
56.430        33
56.440         7
56.450        13
56.460        27
56.470         7
56.480        27
56.490         0
56.500        20
56.510         7
56.520        20
56.530        27
56.540        13
56.550        40
56.560        27
56.570        20
56.580        13
56.590        27
56.600        13
56.610         7
56.620        13
56.630        20
56.640        13
56.650        20
56.660        13
56.670         0
56.680        40
56.690        47
56.700        13
56.710        27
56.720        13
56.730        27
56.740         7
56.750        20
56.760        47
56.770        27
56.780        20
56.790         7
56.800        13
56.810         7
56.820        40
56.830        20
56.840        20
56.850        20
56.860        20
56.870        20
56.880        27
56.890        20
56.900        27
56.910         0
56.920        27
56.930         0
56.940        27
56.950         7
56.960         7
56.970        20
56.980         7
56.990         0
57.000        20
57.010        33
57.020        53
57.030        13
57.040        20
57.050        33
57.060        20
57.070        20
57.080        13
57.090        20
57.100        20
57.110        33
57.120        20
57.130         0
57.140        13
57.150        27
57.160        13
57.170        40
57.180        20
57.190        40
57.200        33
57.210        20
57.220        40
57.230        27
57.240         7
57.250        20
57.260        13
57.270        33
57.280        40
57.290        20
57.300        53
57.310        33
57.320        53
57.330        67
57.340        20
57.350        53
57.360        20
57.370        47
57.380        60
57.390        60
57.400        60
57.410        53
57.420        93
57.430       207
57.440       167
57.450       240
57.460       233
57.470       233
57.480       167
57.490       273
57.500       233
57.510       247
57.520       193
57.530       180
57.540       207
57.550       200
57.560       140
57.570       100
57.580       113
57.590       127
57.600       113
57.610       167
57.620       133
57.630       140
57.640        93
57.650       160
57.660       133
57.670       107
57.680        87
57.690       133
57.700       113
57.710        93
57.720        80
57.730        53
57.740        60
57.750        67
57.760        20
57.770        47
57.780        40
57.790        40
57.800        27
57.810        33
57.820        47
57.830        40
57.840        33
57.850        13
57.860        40
57.870        13
57.880        13
57.890        47
57.900        33
57.910        33
57.920        27
57.930        40
57.940        27
57.950        13
57.960        53
57.970        13
57.980        13
57.990        27
58.000        13
58.010        33
58.020        20
58.030        13
58.040         0
58.050        27
58.060        13
58.070        13
58.080         0
58.090        27
58.100        40
58.110         7
58.120        13
58.130         7
58.140        13
58.150        27
58.160        20
58.170         7
58.180         7
58.190        27
58.200        27
58.210        20
58.220        13
58.230        27
58.240        20
58.250        13
58.260         7
58.270        47
58.280        20
58.290        27
58.300        33
58.310        33
58.320        47
58.330         7
58.340        20
58.350        13
58.360        13
58.370         7
58.380        33
58.390        13
58.400         7
58.410        47
58.420         7
58.430        13
58.440        27
58.450        20
58.460         0
58.470         7
58.480         7
58.490        27
58.500        33
58.510         7
58.520        33
58.530         0
58.540        27
58.550        20
58.560        27
58.570        20
58.580         7
58.590        33
58.600        20
58.610        27
58.620        27
58.630        13
58.640         7
58.650        27
58.660         7
58.670        20
58.680        27
58.690        20
58.700         7
58.710        20
58.720        13
58.730        33
58.740        13
58.750        20
58.760        13
58.770        27
58.780        27
58.790        27
58.800        13
58.810        13
58.820        20
58.830         7
58.840        27
58.850        27
58.860        13
58.870        13
58.880        27
58.890        20
58.900        33
58.910        27
58.920        27
58.930         7
58.940        20
58.950        13
58.960        13
58.970        20
58.980        20
58.990         7
59.000         0
59.010        13
59.020        33
59.030        20
59.040         0
59.050        40
59.060        20
59.070        27
59.080        27
59.090        27
59.100        33
59.110         0
59.120         0
59.130         7
59.140        27
59.150        13
59.160        13
59.170        20
59.180         7
59.190        13
59.200        27
59.210        20
59.220        13
59.230        13
59.240        27
59.250         0
59.260        40
59.270        13
59.280        20
59.290        40
59.300        33
59.310        13
59.320        20
59.330        13
59.340         7
59.350        27
59.360        13
59.370        33
59.380        47
59.390         7
59.400        13
59.410        33
59.420        13
59.430        27
59.440        13
59.450        13
59.460        27
59.470         7
59.480        33
59.490        33
59.500        13
59.510        20
59.520        13
59.530        27
59.540         7
59.550        27
59.560        47
59.570         7
59.580        27
59.590        20
59.600        13
59.610        13
59.620         7
59.630        20
59.640        20
59.650        13
59.660        20
59.670        20
59.680        13
59.690        13
59.700        40
59.710        13
59.720        13
59.730        33
59.740        27
59.750        20
59.760        20
59.770         0
59.780        40
59.790        47
59.800        27
59.810        47
59.820        20
59.830        20
59.840        40
59.850        33
59.860        33
59.870        27
59.880        27
59.890        13
59.900        20
59.910        53
59.920        33
59.930        33
59.940         7
59.950        33
59.960        53
59.970        13
59.980        20
59.990        20
60.000        20
