20.000       127
20.010       153
20.020       107
20.030       113
20.040       107
20.050       167
20.060       120
20.070       120
20.080        80
20.090       167
20.100        93
20.110        93
20.120       180
20.130       133
20.140       227
20.150       153
20.160       140
20.170       113
20.180       153
20.190       167
20.200       173
20.210       107
20.220       100
20.230       147
20.240       153
20.250       147
20.260       180
20.270       147
20.280       153
20.290       173
20.300       213
20.310       100
20.320       160
20.330        47
20.340       113
20.350       107
20.360        93
20.370        73
20.380        93
20.390        67
20.400       127
20.410       147
20.420        93
20.430       107
20.440       107
20.450       147
20.460       113
20.470       113
20.480       140
20.490       133
20.500       113
20.510       153
20.520        93
20.530       140
20.540       167
20.550       100
20.560       120
20.570        87
20.580       120
20.590       107
20.600       147
20.610       120
20.620        93
20.630       140
20.640        93
20.650       127
20.660        73
20.670       173
20.680       107
20.690       133
20.700       120
20.710       120
20.720       133
20.730       127
20.740       167
20.750       133
20.760       153
20.770        87
20.780       100
20.790        80
20.800       107
20.810       127
20.820       173
20.830       133
20.840       153
20.850       127
20.860        87
20.870       173
20.880        80
20.890       213
20.900       153
20.910       147
20.920        73
20.930       153
20.940       153
20.950       133
20.960       140
20.970       140
20.980       180
20.990       153
21.000        67
21.010       140
21.020       127
21.030       153
21.040       120
21.050       140
21.060        80
21.070       113
21.080       120
21.090       140
21.100       133
21.110        60
21.120       100
21.130        87
21.140       173
21.150       113
21.160       127
21.170        93
21.180       113
21.190       127
21.200       153
21.210       140
21.220       133
21.230       127
21.240       173
21.250       167
21.260       120
21.270       107
21.280        87
21.290        87
21.300       147
21.310       140
21.320       120
21.330       187
21.340       100
21.350       160
21.360       100
21.370       147
21.380       133
21.390       180
21.400       153
21.410       127
21.420       200
21.430       120
21.440       133
21.450       187
21.460       120
21.470       160
21.480       127
21.490       120
21.500       133
21.510       180
21.520       147
21.530       160
21.540       120
21.550       140
21.560       127
21.570       213
21.580       147
21.590       213
21.600       173
21.610       160
21.620       167
21.630        93
21.640       167
21.650       153
21.660       180
21.670       233
21.680       160
21.690       200
21.700       200
21.710       160
21.720       147
21.730       160
21.740       180
21.750       200
21.760       153
21.770       240
21.780       133
21.790       180
21.800       207
21.810       247
21.820       160
21.830       167
21.840       187
21.850       140
21.860       233
21.870       207
21.880       167
21.890       153
21.900       173
21.910       247
21.920       233
21.930       167
21.940       167
21.950       193
21.960       247
21.970       187
21.980       193
21.990       193
22.000       260
22.010       240
22.020       187
22.030       160
22.040       180
22.050       180
22.060       153
22.070       133
22.080       200
22.090       307
22.100       160
22.110       180
22.120       240
22.130       187
22.140       213
22.150       160
22.160       193
22.170       253
22.180       187
22.190       273
22.200       187
22.210       233
22.220       273
22.230       247
22.240       227
22.250       287
22.260       173
22.270       173
22.280       193
22.290       233
22.300       280
22.310       227
22.320       233
22.330       240
22.340       307
22.350       260
22.360       387
22.370       287
22.380       327
22.390       313
22.400       433
22.410       373
22.420       320
22.430       426
22.440       473
22.450       420
22.460       526
22.470       560
22.480       486
22.490       486
22.500       673
22.510       646
22.520       760
22.530       813
22.540       880
22.550       953
22.560       826
22.570      1220
22.580       993
22.590      1113
22.600      1193
22.610      1106
22.620      1240
22.630       966
22.640       986
22.650       833
22.660       806
22.670       753
22.680       746
22.690       593
22.700       500
22.710       440
22.720       420
22.730       413
22.740       300
22.750       320
22.760       253
22.770       260
22.780       260
22.790       200
22.800       293
22.810       307
22.820       273
22.830       227
22.840       260
22.850       233
22.860       260
22.870       227
22.880       227
22.890       287
22.900       293
22.910       307
22.920       320
22.930       293
22.940       247
22.950       253
22.960       240
22.970       293
22.980       247
22.990       220
23.000       380
23.010       300
23.020       293
23.030       340
23.040       267
23.050       353
23.060       420
23.070       540
23.080       720
23.090      1026
23.100      1146
23.110      1319
23.120      1193
23.130      1026
23.140      1033
23.150       806
23.160       660
23.170       466
23.180       407
23.190       340
23.200       273
23.210       426
23.220       313
23.230       253
23.240       313
23.250       267
23.260       333
23.270       213
23.280       233
23.290       240
23.300       180
23.310       313
23.320       200
23.330       253
23.340       260
23.350       233
23.360       187
23.370       267
23.380       260
23.390       273
23.400       233
23.410       293
23.420       287
23.430       253
23.440       233
23.450       267
23.460       240
23.470       267
23.480       213
23.490       280
23.500       227
23.510       247
23.520       227
23.530       213
23.540       227
23.550       173
23.560       260
23.570       147
23.580       313
23.590       233
23.600       207
23.610       313
23.620       253
23.630       247
23.640       220
23.650       260
23.660       193
23.670       207
23.680       260
23.690       147
23.700       273
23.710       233
23.720       227
23.730       220
23.740       247
23.750       253
23.760       180
23.770       267
23.780       227
23.790       180
23.800       280
23.810       213
23.820       167
23.830       153
23.840       253
23.850       160
23.860       207
23.870       267
23.880       273
23.890       240
23.900       113
23.910       233
23.920       267
23.930       240
23.940       160
23.950       227
23.960       200
23.970       233
23.980       247
23.990       207
24.000       267
24.010       253
24.020       233
24.030       227
24.040       227
24.050       253
24.060       180
24.070       207
24.080       280
24.090       260
24.100       153
24.110       240
24.120       220
24.130       193
24.140       220
24.150       260
24.160       220
24.170       220
24.180       193
24.190       180
24.200       153
24.210       227
24.220       260
24.230       240
24.240       260
24.250       167
24.260       167
24.270       187
24.280       313
24.290       227
24.300       200
24.310       220
24.320       207
24.330       267
24.340       193
24.350       187
24.360       227
24.370       213
24.380       247
24.390       140
24.400       200
24.410       233
24.420       200
24.430       213
24.440       187
24.450       127
24.460       233
24.470       167
24.480       207
24.490       140
24.500       213
24.510       180
24.520       140
24.530       193
24.540       220
24.550       220
24.560       240
24.570       207
24.580       220
24.590       180
24.600       213
24.610       247
24.620       160
24.630       240
24.640       280
24.650       167
24.660       267
24.670       233
24.680       247
24.690       200
24.700       267
24.710       313
24.720       300
24.730       340
24.740       353
24.750       380
24.760       493
24.770       433
24.780       640
24.790       546
24.800       546
24.810       460
24.820       460
24.830       493
24.840       580
24.850       533
24.860       473
24.870       480
24.880       533
24.890       466
24.900       580
24.910       473
24.920       546
24.930       480
24.940       540
24.950       480
24.960       513
24.970       546
24.980       493
24.990       520
25.000       480
25.010       446
25.020       473
25.030       586
25.040       506
25.050       420
25.060       506
25.070       473
25.080       553
25.090       500
25.100       473
25.110       613
25.120       660
25.130       586
25.140       546
25.150       606
25.160       606
25.170       480
25.180       633
25.190       580
25.200       540
25.210       560
25.220       546
25.230       573
25.240       486
25.250       593
25.260       620
25.270       753
25.280       600
25.290       573
25.300       666
25.310       693
25.320       726
25.330       860
25.340       913
25.350      1066
25.360      1213
25.370      1259
25.380      1513
25.390      1799
25.400      2259
25.410      2412
25.420      2872
25.430      3245
25.440      3652
25.450      4025
25.460      4638
25.470      4945
25.480      4891
25.490      5884
25.500      5804
25.510      6244
25.520      6637
25.530      7317
25.540      8190
25.550     10136
25.560     18239
25.570     34986
25.580     58377
25.590     77862
25.600     89291
25.610     94469
25.620     96381
25.630     99740
25.640     97121
25.650     89398
25.660     75137
25.670     61995
25.680     57090
25.690     53059
25.700     50960
25.710     41144
25.720     29402
25.730     15774
25.740      8956
25.750      6198
25.760      4918
25.770      4025
25.780      3672
25.790      3472
25.800      3199
25.810      2952
25.820      2579
25.830      2339
25.840      2146
25.850      1693
25.860      2019
25.870      1593
25.880      1499
25.890      1506
25.900      1326
25.910      1293
25.920      1040
25.930       800
25.940       840
25.950       846
25.960       746
25.970       773
25.980       746
25.990       653
26.000       626
26.010       793
26.020       660
26.030       600
26.040       526
26.050       640
26.060       593
26.070       680
26.080       560
26.090       593
26.100       593
26.110       586
26.120       540
26.130       486
26.140       513
26.150       480
26.160       453
26.170       486
26.180       593
26.190       513
26.200       580
26.210       453
26.220       446
26.230       506
26.240       440
26.250       473
26.260       360
26.270       513
26.280       327
26.290       506
26.300       426
26.310       433
26.320       433
26.330       433
26.340       413
26.350       440
26.360       327
26.370       546
26.380       486
26.390       466
26.400       446
26.410       413
26.420       393
26.430       433
26.440       426
26.450       387
26.460       426
26.470       466
26.480       340
26.490       460
26.500       433
26.510       413
26.520       413
26.530       426
26.540       486
26.550       473
26.560       387
26.570       426
26.580       367
26.590       400
26.600       440
26.610       367
26.620       360
26.630       373
26.640       426
26.650       413
26.660       400
26.670       353
26.680       453
26.690       360
26.700       373
26.710       407
26.720       420
26.730       426
26.740       353
26.750       440
26.760       413
26.770       466
26.780       440
26.790       360
26.800       360
26.810       327
26.820       340
26.830       307
26.840       380
26.850       420
26.860       313
26.870       380
26.880       347
26.890       373
26.900       347
26.910       373
26.920       473
26.930       387
26.940       280
26.950       367
26.960       393
26.970       340
26.980       327
26.990       367
27.000       360
27.010       320
27.020       320
27.030       393
27.040       367
27.050       307
27.060       367
27.070       333
27.080       380
27.090       340
27.100       407
27.110       320
27.120       320
27.130       320
27.140       347
27.150       353
27.160       353
27.170       293
27.180       347
27.190       327
27.200       300
27.210       367
27.220       333
27.230       327
27.240       307
27.250       287
27.260       253
27.270       293
27.280       353
27.290       353
27.300       340
27.310       387
27.320       373
27.330       387
27.340       367
27.350       240
27.360       287
27.370       240
27.380       313
27.390       253
27.400       313
27.410       373
27.420       387
27.430       273
27.440       293
27.450       347
27.460       280
27.470       307
27.480       333
27.490       260
27.500       347
27.510       260
27.520       300
27.530       367
27.540       433
27.550       333
27.560       340
27.570       347
27.580       333
27.590       260
27.600       260
27.610       240
27.620       340
27.630       353
27.640       340
27.650       340
27.660       300
27.670       273
27.680       387
27.690       300
27.700       267
27.710       353
27.720       307
27.730       267
27.740       267
27.750       340
27.760       333
27.770       307
27.780       300
27.790       300
27.800       287
27.810       327
27.820       340
27.830       267
27.840       287
27.850       340
27.860       227
27.870       253
27.880       360
27.890       327
27.900       327
27.910       253
27.920       313
27.930       260
27.940       253
27.950       287
27.960       333
27.970       387
27.980       300
27.990       280
28.000       253
28.010       267
28.020       207
28.030       260
28.040       260
28.050       260
28.060       287
28.070       253
28.080       300
28.090       240
28.100       320
28.110       227
28.120       320
28.130       367
28.140       260
28.150       280
28.160       220
28.170       253
28.180       387
28.190       240
28.200       333
28.210       267
28.220       267
28.230       313
28.240       240
28.250       320
28.260       293
28.270       253
28.280       273
28.290       267
28.300       233
28.310       287
28.320       287
28.330       280
28.340       293
28.350       260
28.360       333
28.370       273
28.380       300
28.390       240
28.400       280
28.410       353
28.420       307
28.430       300
28.440       220
28.450       220
28.460       333
28.470       293
28.480       227
28.490       273
28.500       267
28.510       233
28.520       267
28.530       333
28.540       273
28.550       380
28.560       333
28.570       360
28.580       380
28.590       307
28.600       353
28.610       333
28.620       420
28.630       420
28.640       426
28.650       413
28.660       460
28.670       500
28.680       433
28.690       446
28.700       540
28.710       420
28.720       480
28.730       380
28.740       340
28.750       533
28.760       307
28.770       426
28.780       353
28.790       327
28.800       407
28.810       353
28.820       313
28.830       313
28.840       287
28.850       253
28.860       373
28.870       387
28.880       313
28.890       247
28.900       287
28.910       340
28.920       273
28.930       287
28.940       307
28.950       267
28.960       280
28.970       227
28.980       240
28.990       320
29.000       300
29.010       307
29.020       240
29.030       307
29.040       327
29.050       267
29.060       233
29.070       207
29.080       293
29.090       220
29.100       313
29.110       260
29.120       267
29.130       260
29.140       193
29.150       213
29.160       320
29.170       193
29.180       300
29.190       247
29.200       307
29.210       247
29.220       280
29.230       260
29.240       247
29.250       220
29.260       320
29.270       320
29.280       293
29.290       240
29.300       320
29.310       387
29.320       313
29.330       373
29.340       473
29.350       327
29.360       413
29.370       393
29.380       426
29.390       473
29.400       580
29.410       440
29.420       500
29.430       633
29.440       720
29.450       773
29.460       793
29.470       893
29.480      1073
29.490      1286
29.500      1319
29.510      1453
29.520      1819
29.530      1959
29.540      2026
29.550      2319
29.560      2572
29.570      2539
29.580      2659
29.590      2606
29.600      2646
29.610      2586
29.620      2532
29.630      1993
29.640      2286
29.650      2019
29.660      1726
29.670      1686
29.680      1553
29.690      1379
29.700      1153
29.710      1026
29.720      1053
29.730       700
29.740       720
29.750       660
29.760       513
29.770       480
29.780       440
29.790       393
29.800       373
29.810       313
29.820       347
29.830       307
29.840       387
29.850       313
29.860       307
29.870       313
29.880       300
29.890       267
29.900       333
29.910       260
29.920       307
29.930       247
29.940       240
29.950       220
29.960       287
29.970       227
29.980       200
29.990       300
30.000       233
30.010       267
30.020       280
30.030       267
30.040       227
30.050       260
30.060       267
30.070       300
30.080       267
30.090       260
30.100       227
30.110       247
30.120       273
30.130       200
30.140       340
30.150       320
30.160       233
30.170       280
30.180       220
30.190       240
30.200       307
30.210       253
30.220       280
30.230       287
30.240       220
30.250       307
30.260       327
30.270       307
30.280       327
30.290       293
30.300       347
30.310       307
30.320       280
30.330       373
30.340       486
30.350       387
30.360       506
30.370       540
30.380       526
30.390       486
30.400       666
30.410       613
30.420       720
30.430       873
30.440       786
30.450       800
30.460       840
30.470       846
30.480       953
30.490       866
30.500       880
30.510       773
30.520       726
30.530       793
30.540       686
30.550       546
30.560       780
30.570       513
30.580       460
30.590       466
30.600       533
30.610       320
30.620       233
30.630       300
30.640       240
30.650       260
30.660       240
30.670       293
30.680       260
30.690       227
30.700       260
30.710       207
30.720       233
30.730       193
30.740       273
30.750       160
30.760       187
30.770       200
30.780       187
30.790       147
30.800       247
30.810       187
30.820       160
30.830       213
30.840       220
30.850       227
30.860       260
30.870       240
30.880       253
30.890       233
30.900       207
30.910       193
30.920       207
30.930       173
30.940       227
30.950       173
30.960       280
30.970       173
30.980       207
30.990       140
31.000       200
31.010       227
31.020       153
31.030       193
31.040       167
31.050       173
31.060       173
31.070       227
31.080       220
31.090       113
31.100       240
31.110       120
31.120       173
31.130       213
31.140       140
31.150       207
31.160       200
31.170       173
31.180       247
31.190       160
31.200       200
31.210       207
31.220       153
31.230       160
31.240       213
31.250       147
31.260       160
31.270       200
31.280       173
31.290       167
31.300       187
31.310       153
31.320       167
31.330       167
31.340       167
31.350       187
31.360       193
31.370       147
31.380       160
31.390       200
31.400       147
31.410       127
31.420       127
31.430       167
31.440       200
31.450       160
31.460       173
31.470       153
31.480       167
31.490       167
31.500       153
31.510       173
31.520       160
31.530       180
31.540       167
31.550       187
31.560       227
31.570       147
31.580       187
31.590       187
31.600       153
31.610       140
31.620       120
31.630       100
31.640       167
31.650       133
31.660       180
31.670       193
31.680       200
31.690       187
31.700       200
31.710       200
31.720       120
31.730       160
31.740       160
31.750       207
31.760       200
31.770       227
31.780       140
31.790       140
31.800       147
31.810       147
31.820       253
31.830       127
31.840       173
31.850       240
31.860       207
31.870       220
31.880       187
31.890       207
31.900       267
31.910       227
31.920       227
31.930       260
31.940       313
31.950       267
31.960       220
31.970       307
31.980       347
31.990       353
32.000       327
32.010       353
32.020       433
32.030       407
32.040       506
32.050       560
32.060       533
32.070       606
32.080       720
32.090       733
32.100       780
32.110       940
32.120       813
32.130       893
32.140      1040
32.150       980
32.160      1006
32.170       880
32.180      1013
32.190       986
32.200       820
32.210       840
32.220       980
32.230       720
32.240       660
32.250       653
32.260       606
32.270       580
32.280       480
32.290       420
32.300       380
32.310       367
32.320       293
32.330       267
32.340       220
32.350       180
32.360       253
32.370       260
32.380       213
32.390       273
32.400       220
32.410       233
32.420       160
32.430       147
32.440       220
32.450       153
32.460       140
32.470       140
32.480       180
32.490       187
32.500       133
32.510       100
32.520       153
32.530       133
32.540       127
32.550       193
32.560       220
32.570       187
32.580       140
32.590       160
32.600       180
32.610       167
32.620       180
32.630       187
32.640       153
32.650       207
32.660       153
32.670       100
32.680       107
32.690       133
32.700        87
32.710       113
32.720       133
32.730       153
32.740       127
32.750       120
32.760       200
32.770       180
32.780       140
32.790       127
32.800       160
32.810       120
32.820       107
32.830       127
32.840       120
32.850       100
32.860       120
32.870       173
32.880       193
32.890        80
32.900       147
32.910       127
32.920       140
32.930       140
32.940       173
32.950       147
32.960       160
32.970       113
32.980       127
32.990       107
33.000       133
33.010       133
33.020       153
33.030       113
33.040       133
33.050       180
33.060       140
33.070       147
33.080        80
33.090       153
33.100       140
33.110       133
33.120       147
33.130       180
33.140       120
33.150        93
33.160       113
33.170        93
33.180       100
33.190       100
33.200       140
33.210       113
33.220       100
33.230       140
33.240       167
33.250        93
33.260       113
33.270        93
33.280       160
33.290       127
33.300       133
33.310       107
33.320       153
33.330       140
33.340       133
33.350       160
33.360       153
33.370       100
33.380       113
33.390       113
33.400       187
33.410       113
33.420       140
33.430       173
33.440        67
33.450        87
33.460       133
33.470        87
33.480       140
33.490       127
33.500       113
33.510       147
33.520       187
33.530       120
33.540       140
33.550       113
33.560       153
33.570       153
33.580       160
33.590       107
33.600       113
33.610        87
33.620       147
33.630       147
33.640        93
33.650       100
33.660        93
33.670       107
33.680       153
33.690       147
33.700       153
33.710        87
33.720       140
33.730        73
33.740       140
33.750       107
33.760       160
33.770       133
33.780       213
33.790        87
33.800        87
33.810       120
33.820       147
33.830       147
33.840       140
33.850       107
33.860       153
33.870       113
33.880       147
33.890       107
33.900       120
33.910       147
33.920       160
33.930       140
33.940       100
33.950       133
33.960       140
33.970       140
33.980       133
33.990       120
34.000       107
34.010       120
34.020       107
34.030       107
34.040       120
34.050        73
34.060       127
34.070       127
34.080       113
34.090       113
34.100       153
34.110       100
34.120       153
34.130       147
34.140       113
34.150        87
34.160        80
34.170       100
34.180       147
34.190       140
34.200       120
34.210       113
34.220        93
34.230       100
34.240       120
34.250       113
34.260       100
34.270       120
34.280       147
34.290       107
34.300       187
34.310       100
34.320        80
34.330       100
34.340        67
34.350        47
34.360       153
34.370       113
34.380       120
34.390       140
34.400       153
34.410       120
34.420       160
34.430       120
34.440       140
34.450       167
34.460        67
34.470       113
34.480        93
34.490       153
34.500        67
34.510       160
34.520       160
34.530        80
34.540        87
34.550       133
34.560       153
34.570       120
34.580       120
34.590        80
34.600       113
34.610       127
34.620       140
34.630       120
34.640       140
34.650        73
34.660       113
34.670        93
34.680        60
34.690        67
34.700       127
34.710        80
34.720       133
34.730        60
34.740       113
34.750       107
34.760       113
34.770       120
34.780       160
34.790       147
34.800       100
34.810        93
34.820        73
34.830        93
34.840       120
34.850       147
34.860       140
34.870       153
34.880       133
34.890       120
34.900        80
34.910       127
34.920        87
34.930        93
34.940        60
34.950        73
34.960       107
34.970        93
34.980       107
34.990       100
35.000        67
35.010        93
35.020       107
35.030        93
35.040       113
35.050        93
35.060       120
35.070        73
35.080        93
35.090        73
35.100        67
35.110       100
35.120       147
35.130       100
35.140        73
35.150       100
35.160       100
35.170       100
35.180       113
35.190       107
35.200       127
35.210        93
35.220       107
35.230       113
35.240       127
35.250       120
35.260       133
35.270        73
35.280        87
35.290        87
35.300       153
35.310       107
35.320       140
35.330        80
35.340       107
35.350       120
35.360        80
35.370        53
35.380        67
35.390       107
35.400       107
35.410       107
35.420       107
35.430        87
35.440        53
35.450        93
35.460       120
35.470        87
35.480        87
35.490       107
35.500        80
35.510        87
35.520       100
35.530        93
35.540        73
35.550        93
35.560       120
35.570        60
35.580       120
35.590        67
35.600       127
35.610       100
35.620       147
35.630        67
35.640        93
35.650        80
35.660        73
35.670        93
35.680       127
35.690        87
35.700        80
35.710        87
35.720        80
35.730        87
35.740       120
35.750       120
35.760       107
35.770        67
35.780        80
35.790        87
35.800        93
35.810       100
35.820       140
35.830       113
35.840       147
35.850       127
35.860        73
35.870       113
35.880        80
35.890        80
35.900       107
35.910       100
35.920       120
35.930       140
35.940        93
35.950        93
35.960        80
35.970       107
35.980       100
35.990        60
36.000       113
36.010       120
36.020        80
36.030        60
36.040       120
36.050       113
36.060        80
36.070       107
36.080        80
36.090       100
36.100        60
36.110       153
36.120       127
36.130        93
36.140       100
36.150        73
36.160        73
36.170        60
36.180        80
36.190        67
36.200        53
36.210        93
36.220        73
36.230        93
36.240        80
36.250       113
36.260       127
36.270       107
36.280       100
36.290        47
36.300        73
36.310        93
36.320        87
36.330        60
36.340        67
36.350        53
36.360        67
36.370        80
36.380        67
36.390        67
36.400        87
36.410        93
36.420        87
36.430       107
36.440        87
36.450        87
36.460       100
36.470       113
36.480        80
36.490        80
36.500        87
36.510       100
36.520       133
36.530        80
36.540        60
36.550        60
36.560        67
36.570        67
36.580        73
36.590       100
36.600        87
36.610        53
36.620       133
36.630        40
36.640        67
36.650        53
36.660        87
36.670        47
36.680       107
36.690       120
36.700        80
36.710        73
36.720        73
36.730        80
36.740       153
36.750       107
36.760        93
36.770        93
36.780        67
36.790       100
36.800        80
36.810       107
36.820        53
36.830       107
36.840        80
36.850        87
36.860        87
36.870        87
36.880        73
36.890       120
36.900        87
36.910       107
36.920        67
36.930        93
36.940        47
36.950       100
36.960        80
36.970        80
36.980        73
36.990        53
37.000        80
37.010        67
37.020       100
37.030        73
37.040       133
37.050        67
37.060        27
37.070        80
37.080        87
37.090        53
37.100        73
37.110        60
37.120        73
37.130        53
37.140        87
37.150        93
37.160        47
37.170        93
37.180        67
37.190        80
37.200       133
37.210        40
37.220        53
37.230        93
37.240        60
37.250        53
37.260        80
37.270        93
37.280       100
37.290        93
37.300       127
37.310        67
37.320        93
37.330        67
37.340        80
37.350        27
37.360       113
37.370        47
37.380        80
37.390        67
37.400       100
37.410        87
37.420        60
37.430       107
37.440        80
37.450        67
37.460        73
37.470        47
37.480        67
37.490        60
37.500       113
37.510        60
37.520        60
37.530        93
37.540        87
37.550        93
37.560        73
37.570        27
37.580        87
37.590        20
37.600        67
37.610        40
37.620        80
37.630        53
37.640        87
37.650        60
37.660        60
37.670        67
37.680        40
37.690        73
37.700        47
37.710        93
37.720        47
37.730        73
37.740        73
37.750        80
37.760        47
37.770        80
37.780        87
37.790        60
37.800        67
37.810        47
37.820        80
37.830        40
37.840        60
37.850        67
37.860        80
37.870        53
37.880       107
37.890       107
37.900       120
37.910       100
37.920        73
37.930        93
37.940        60
37.950        73
37.960        47
37.970        73
37.980        67
37.990        47
38.000        60
38.010        80
38.020        80
38.030        47
38.040        60
38.050        87
38.060        80
38.070        33
38.080        47
38.090        73
38.100        87
38.110        93
38.120        67
38.130        80
38.140        73
38.150        73
38.160        53
38.170        93
38.180        73
38.190        53
38.200        60
38.210        60
38.220        80
38.230        47
38.240        80
38.250        73
38.260        20
38.270        47
38.280        80
38.290        73
38.300        73
38.310       100
38.320        73
38.330        60
38.340        33
38.350        80
38.360       100
38.370        60
38.380       107
38.390        60
38.400        47
38.410        53
38.420        93
38.430        47
38.440        60
38.450        47
38.460        93
38.470        60
38.480        60
38.490       107
38.500        73
38.510        53
38.520        27
38.530       127
38.540        33
38.550        80
38.560        53
38.570        53
38.580        60
38.590        60
38.600        73
38.610        80
38.620        93
38.630        53
38.640        73
38.650        60
38.660        80
38.670        60
38.680        60
38.690        60
38.700        93
38.710        73
38.720        73
38.730        87
38.740        73
38.750       107
38.760        47
38.770       107
38.780       107
38.790        73
38.800        67
38.810        87
38.820       127
38.830       100
38.840        80
38.850       160
38.860       127
38.870       133
38.880       167
38.890       153
38.900       153
38.910       180
38.920       153
38.930       167
38.940       213
38.950       147
38.960       207
38.970       180
38.980       100
38.990       133
39.000       127
39.010       173
39.020       100
39.030       100
39.040       133
39.050       107
39.060       100
39.070       113
39.080       147
39.090       107
39.100       133
39.110       120
39.120        60
39.130        87
39.140        80
39.150        60
39.160        73
39.170       127
39.180        87
39.190        60
39.200        87
39.210       100
39.220        60
39.230        47
39.240        80
39.250        73
39.260        67
39.270        33
39.280        67
39.290        40
39.300        33
39.310        53
39.320        67
39.330        60
39.340        47
39.350        53
39.360        40
39.370        33
39.380        60
39.390        60
39.400        67
39.410       120
39.420        47
39.430        47
39.440        60
39.450        47
39.460        53
39.470        40
39.480        60
39.490        47
39.500        73
39.510        33
39.520        20
39.530        87
39.540        40
39.550       113
39.560        47
39.570        40
39.580        60
39.590        53
39.600        73
39.610        47
39.620        27
39.630        40
39.640        33
39.650        60
39.660        53
39.670        40
39.680        67
39.690        33
39.700        33
39.710        73
39.720        47
39.730        47
39.740        33
39.750        60
39.760        33
39.770        93
39.780        53
39.790        60
39.800        87
39.810        53
39.820        73
39.830        53
39.840        67
39.850        40
39.860        20
39.870        53
39.880        40
39.890        53
39.900        40
39.910        40
39.920        60
39.930        80
39.940        53
39.950       100
39.960        60
39.970        27
39.980        40
39.990        40
40.000        60
40.010        33
40.020        53
40.030        40
40.040        80
40.050        53
40.060        67
40.070        40
40.080        80
40.090        60
40.100        47
40.110        53
40.120        73
40.130       100
40.140        73
40.150        80
40.160        73
40.170        87
40.180        53
40.190        67
40.200        67
40.210        33
40.220        87
40.230        93
40.240        33
40.250        40
40.260        33
40.270        47
40.280        27
40.290        47
40.300        47
40.310        67
40.320        73
40.330        20
40.340        53
40.350        53
40.360        87
40.370        40
40.380        73
40.390        40
40.400        47
40.410        60
40.420        80
40.430       107
40.440        73
40.450        67
40.460        53
40.470        60
40.480        60
40.490        40
40.500        73
40.510        53
40.520        60
40.530        27
40.540        33
40.550        33
40.560        73
40.570        47
40.580        33
40.590        60
40.600        27
40.610        53
40.620        67
40.630       113
40.640        67
40.650        67
40.660        60
40.670        73
40.680        73
40.690        53
40.700        33
40.710        33
40.720        67
40.730       100
40.740        60
40.750        60
40.760        67
40.770        40
40.780        67
40.790        33
40.800        40
40.810        40
40.820        60
40.830        40
40.840        60
40.850        67
40.860        53
40.870        20
40.880        53
40.890        80
40.900       100
40.910        93
40.920        80
40.930        73
40.940        93
40.950        67
40.960        87
40.970        53
40.980      3385
40.990       100
41.000        80
41.010        67
41.020        73
41.030       100
41.040        87
41.050        53
41.060        47
41.070        67
41.080        47
41.090        87
41.100        33
41.110        73
41.120        40
41.130        67
41.140        20
41.150       107
41.160       107
41.170        73
41.180        47
41.190        47
41.200        20
41.210        73
41.220       100
41.230        33
41.240        80
41.250        33
41.260        20
41.270        60
41.280        67
41.290        73
41.300        67
41.310        67
41.320        67
41.330        40
41.340        40
41.350        47
41.360        53
41.370        60
41.380        87
41.390        47
41.400       173
41.410        27
41.420        67
41.430        40
41.440        40
41.450        40
41.460        67
41.470        27
41.480        53
41.490        47
41.500        87
41.510        40
41.520        53
41.530        27
41.540        33
41.550        47
41.560        33
41.570       160
41.580        33
41.590        67
41.600        80
41.610        53
41.620        33
41.630        40
41.640        47
41.650        67
41.660        47
41.670        27
41.680        53
41.690        27
41.700        33
41.710        33
41.720        33
41.730        60
41.740        20
41.750        60
41.760        33
41.770        33
41.780        53
41.790        53
41.800        47
41.810        47
41.820        87
41.830        40
41.840        67
41.850        33
41.860        87
41.870        47
41.880        60
41.890        40
41.900        60
41.910        47
41.920        53
41.930        53
41.940        33
41.950        53
41.960        67
41.970        80
41.980        53
41.990        47
42.000        60
42.010        53
42.020        47
42.030        73
42.040        67
42.050        80
42.060        73
42.070        53
42.080        67
42.090       107
42.100       107
42.110       127
42.120        87
42.130       127
42.140       147
42.150       160
42.160       160
42.170       147
42.180       167
42.190       140
42.200       213
42.210       167
42.220       213
42.230       307
42.240       367
42.250       280
42.260       273
42.270       333
42.280       300
42.290       300
42.300       407
42.310       380
42.320       367
42.330       367
42.340       433
42.350       407
42.360       373
42.370       267
42.380       307
42.390       340
42.400       353
42.410       280
42.420       333
42.430       320
42.440       300
42.450       227
42.460       247
42.470       187
42.480       207
42.490       153
42.500       120
42.510       160
42.520       120
42.530       120
42.540        93
42.550        93
42.560       127
42.570        80
42.580        87
42.590        47
42.600        40
42.610        80
42.620        60
42.630        73
42.640        80
42.650        40
42.660        47
42.670        60
42.680        53
42.690        53
42.700        60
42.710        47
42.720        53
42.730        80
42.740        33
42.750        47
42.760        47
42.770        47
42.780        47
42.790        33
42.800        40
42.810        47
42.820        53
42.830        60
42.840        53
42.850        60
42.860        33
42.870        40
42.880        53
42.890        53
42.900        33
42.910        33
42.920        53
42.930      2539
42.940        40
42.950        80
42.960        27
42.970        40
42.980        53
42.990        40
43.000        40
43.010        40
43.020        40
43.030        53
43.040        33
43.050        47
43.060        33
43.070        20
43.080        13
43.090        67
43.100        33
43.110        27
43.120        13
43.130        20
43.140        53
43.150        33
43.160        47
43.170        27
43.180        80
43.190        40
43.200        20
43.210        40
43.220        47
43.230        27
43.240        47
43.250        33
43.260        67
43.270        67
43.280        27
43.290        73
43.300        60
43.310        33
43.320        40
43.330        53
43.340        27
43.350        53
43.360        67
43.370        47
43.380        33
43.390        47
43.400        80
43.410        60
43.420        60
43.430        47
43.440        60
43.450        47
43.460        60
43.470        67
43.480        33
43.490        27
43.500        80
43.510        40
43.520        60
43.530        73
43.540        60
43.550       113
43.560       113
43.570        73
43.580        80
43.590        67
43.600        73
43.610        60
43.620        87
43.630       100
43.640       120
43.650        47
43.660       160
43.670       133
43.680        87
43.690        60
43.700       100
43.710        87
43.720        87
43.730       120
43.740       140
43.750        33
43.760        47
43.770        40
43.780        67
43.790        40
43.800        53
43.810        40
43.820        47
43.830        53
43.840        47
43.850        53
43.860        60
43.870        33
43.880        27
43.890        27
43.900        33
43.910        53
43.920        73
43.930        80
43.940        33
43.950        40
43.960        40
43.970        20
43.980        67
43.990        53
44.000        67
44.010        60
44.020        20
44.030        13
44.040        67
44.050        87
44.060        27
44.070        47
44.080        40
44.090        53
44.100        53
44.110        53
44.120        47
44.130        40
44.140        60
44.150        47
44.160        47
44.170        60
44.180        27
44.190        47
44.200        53
44.210        67
44.220        53
44.230        47
44.240        27
44.250        53
44.260        40
44.270        80
44.280        60
44.290        53
44.300        67
44.310        60
44.320        93
44.330        67
44.340        47
44.350        40
44.360        33
44.370        47
44.380        67
44.390        80
44.400        47
44.410        53
44.420        60
44.430        53
44.440        67
44.450        33
44.460        33
44.470        33
44.480        40
44.490        33
44.500        67
44.510        33
44.520        53
44.530        27
44.540        47
44.550        73
44.560        53
44.570        73
44.580        33
44.590        60
44.600        40
44.610        60
44.620        53
44.630        47
44.640        40
44.650        47
44.660        33
44.670        53
44.680        60
44.690        60
44.700        20
44.710        40
44.720        40
44.730        33
44.740        33
44.750        20
44.760        47
44.770        53
44.780        27
44.790        47
44.800        40
44.810        47
44.820        40
44.830        93
44.840        47
44.850        73
44.860        33
44.870        47
44.880        73
44.890        53
44.900        27
44.910        40
44.920        40
44.930        60
44.940        67
44.950        33
44.960        40
44.970        33
44.980        27
44.990        27
45.000        27
45.010        47
45.020        40
45.030        33
45.040        20
45.050        40
45.060        67
45.070        60
45.080        53
45.090        33
45.100        53
45.110        73
45.120        13
45.130        27
45.140        67
45.150        53
45.160        20
45.170        40
45.180        53
45.190        60
45.200        33
45.210        33
45.220        33
45.230        67
45.240        20
45.250        60
45.260        60
45.270        60
45.280        27
45.290        73
45.300         7
45.310        33
45.320        60
45.330        47
45.340        53
45.350        53
45.360        40
45.370        13
45.380        40
45.390        53
45.400        33
45.410        13
45.420        47
45.430        53
45.440        60
45.450        67
45.460        53
45.470        40
45.480        33
45.490        47
45.500        60
45.510        27
45.520        27
45.530        33
45.540        53
45.550        40
45.560        47
45.570        40
45.580         7
45.590        27
45.600        40
45.610        67
45.620        27
45.630        53
45.640        53
45.650        33
45.660        60
45.670        53
45.680        20
45.690        87
45.700        47
45.710        27
45.720        47
45.730        33
45.740        40
45.750        33
45.760        67
45.770        53
45.780        53
45.790        47
45.800        53
45.810        60
45.820        87
45.830        53
45.840       147
45.850       107
45.860        93
45.870       147
45.880       127
45.890       233
45.900       140
45.910       240
45.920       207
45.930       207
45.940       227
45.950       353
45.960       400
45.970       280
45.980       273
45.990       293
46.000       433
46.010       446
46.020       473
46.030       500
46.040       533
46.050       453
46.060       553
46.070       586
46.080       746
46.090       560
46.100       680
46.110       646
46.120       700
46.130       586
46.140       586
46.150       580
46.160       700
46.170       560
46.180       460
46.190       633
46.200       480
46.210       540
46.220       446
46.230       466
46.240       413
46.250       327
46.260       400
46.270       380
46.280       313
46.290       373
46.300       220
46.310       220
46.320       260
46.330       160
46.340       180
46.350       180
46.360       127
46.370       140
46.380       193
46.390       153
46.400       140
46.410        93
46.420        67
46.430        87
46.440       100
46.450        73
46.460        73
46.470        73
46.480        47
46.490        67
46.500        53
46.510        93
46.520        33
46.530        93
46.540        80
46.550        93
46.560       107
46.570        80
46.580        60
46.590       100
46.600        80
46.610       153
46.620        80
46.630        93
46.640        93
46.650        80
46.660       107
46.670       100
46.680        87
46.690        93
46.700       120
46.710       133
46.720       100
46.730       147
46.740       127
46.750        93
46.760       153
46.770       120
46.780       140
46.790       107
46.800        80
46.810       100
46.820        93
46.830       127
46.840       153
46.850        67
46.860       100
46.870        93
46.880        40
46.890        67
46.900        87
46.910       127
46.920        60
46.930        33
46.940        80
46.950        87
46.960        87
46.970        93
46.980        60
46.990       107
47.000        93
47.010       100
47.020        67
47.030       100
47.040        87
47.050       113
47.060       133
47.070       173
47.080       100
47.090        93
47.100       127
47.110       180
47.120       113
47.130       187
47.140       207
47.150       347
47.160       500
47.170       720
47.180       833
47.190      1073
47.200      1240
47.210      1120
47.220      1220
47.230       966
47.240       873
47.250       793
47.260       526
47.270       393
47.280       307
47.290       247
47.300       167
47.310       167
47.320       113
47.330       100
47.340       127
47.350       100
47.360       120
47.370        87
47.380       100
47.390        80
47.400        87
47.410        87
47.420        60
47.430        67
47.440        60
47.450        60
47.460        60
47.470       107
47.480        67
47.490        93
47.500        60
47.510        73
47.520        60
47.530        53
47.540        40
47.550       107
47.560        67
47.570        73
47.580        47
47.590        60
47.600        87
47.610        80
47.620        53
47.630        80
47.640        93
47.650        80
47.660        60
47.670        47
47.680        80
47.690        53
47.700        40
47.710        33
47.720        67
47.730        40
47.740        87
47.750        93
47.760        67
47.770        27
47.780        87
47.790        73
47.800        27
47.810        60
47.820        47
47.830        67
47.840        73
47.850        60
47.860        73
47.870        53
47.880        53
47.890        60
47.900        60
47.910        67
47.920        93
47.930        67
47.940         7
47.950        60
47.960        53
47.970        67
47.980        73
47.990        67
48.000        20
48.010        47
48.020        80
48.030        20
48.040        60
48.050        47
48.060        53
48.070        40
48.080        93
48.090        93
48.100        53
48.110        47
48.120        33
48.130        20
48.140        47
48.150        67
48.160        33
48.170        67
48.180        40
48.190        40
48.200        40
48.210        53
48.220        40
48.230        73
48.240        40
48.250        40
48.260        60
48.270        40
48.280        40
48.290        53
48.300        80
48.310        40
48.320        47
48.330        47
48.340        60
48.350        33
48.360        20
48.370       100
48.380        53
48.390        33
48.400        53
48.410        73
48.420        27
48.430        73
48.440        53
48.450        53
48.460        27
48.470       120
48.480        47
48.490        47
48.500        60
48.510        60
48.520        53
48.530        80
48.540        87
48.550        40
48.560        33
48.570        60
48.580        20
48.590        40
48.600        40
48.610        47
48.620        60
48.630        73
48.640        40
48.650        73
48.660        40
48.670        67
48.680        53
48.690        53
48.700        60
48.710        67
48.720        67
48.730        73
48.740        53
48.750        67
48.760        80
48.770        80
48.780       107
48.790        67
48.800        80
48.810       100
48.820        93
48.830        67
48.840       147
48.850        93
48.860       107
48.870       100
48.880       153
48.890       147
48.900       180
48.910       220
48.920       187
48.930       193
48.940       207
48.950       327
48.960       280
48.970       213
48.980       273
48.990       360
49.000       333
49.010       287
49.020       367
49.030       347
49.040       500
49.050       293
49.060       506
49.070       393
49.080       446
49.090       353
49.100       413
49.110       367
49.120       333
49.130       400
49.140       367
49.150       327
49.160       320
49.170       347
49.180       327
49.190       320
49.200       340
49.210       260
49.220       227
49.230       240
49.240       267
49.250       233
49.260       240
49.270       153
49.280       187
49.290       147
49.300       113
49.310       120
49.320       147
49.330       100
49.340       127
49.350       127
49.360       107
49.370       120
49.380        67
49.390        93
49.400        93
49.410        60
49.420        87
49.430        33
49.440        67
49.450        93
49.460        60
49.470        13
49.480       113
49.490        87
49.500        67
49.510        40
49.520        47
49.530        27
49.540        47
49.550        40
49.560        87
49.570        60
49.580        33
49.590        80
49.600        47
49.610        67
49.620        47
49.630        40
49.640        47
49.650        40
49.660        80
49.670        20
49.680        33
49.690        40
49.700        20
49.710        53
49.720        47
49.730        27
49.740        27
49.750        40
49.760        47
49.770        40
49.780        60
49.790        47
49.800        40
49.810        40
49.820        53
49.830        40
49.840        27
49.850        87
49.860        47
49.870        53
49.880        40
49.890        67
49.900        40
49.910        60
49.920        67
49.930        27
49.940        40
49.950        40
49.960        27
49.970        53
49.980        47
49.990        33
50.000        40
50.010        53
50.020        47
50.030        73
50.040        40
50.050        47
50.060        27
50.070        67
50.080        60
50.090        53
50.100        33
50.110        33
50.120        33
50.130        67
50.140        40
50.150        60
50.160        20
50.170        47
50.180        27
50.190        60
50.200        53
50.210        80
50.220        47
50.230        47
50.240        33
50.250        60
50.260        60
50.270        47
50.280        53
50.290        33
50.300        33
50.310        67
50.320        53
50.330        40
50.340        53
50.350        60
50.360        33
50.370        53
50.380        27
50.390        47
50.400        73
50.410        73
50.420        40
50.430        73
50.440        53
50.450        87
50.460        73
50.470        27
50.480        87
50.490        60
50.500        33
50.510        60
50.520        60
50.530        40
50.540        40
50.550        93
50.560        73
50.570        53
50.580        33
50.590        60
50.600        53
50.610        87
50.620        80
50.630        53
50.640        87
50.650       127
50.660       107
50.670       133
50.680       167
50.690       200
50.700       253
50.710       240
50.720       213
50.730       300
50.740       253
50.750       300
50.760       240
50.770       367
50.780       327
50.790       287
50.800       273
50.810       240
50.820       287
50.830       340
50.840       213
50.850       307
50.860       373
50.870       293
50.880       240
50.890       360
50.900       380
50.910       320
50.920       207
50.930       300
50.940       333
50.950       273
50.960       327
50.970       293
50.980       253
50.990       287
51.000       267
51.010       307
51.020       240
51.030       320
51.040       253
51.050       327
51.060       280
51.070       273
51.080       287
51.090       260
51.100       333
51.110       333
51.120       307
51.130       367
51.140       400
51.150       233
51.160       353
51.170       313
51.180       320
51.190       340
51.200       273
51.210       360
51.220       347
51.230       380
51.240       260
51.250       180
51.260       247
51.270       280
51.280       307
51.290       287
51.300       307
51.310       320
51.320       287
51.330       287
51.340       293
51.350       280
51.360       260
51.370       347
51.380       327
51.390       340
51.400       247
51.410       313
51.420       387
51.430       280
51.440       287
51.450       353
51.460       367
51.470       327
51.480       333
51.490       380
51.500       287
51.510       353
51.520       400
51.530       313
51.540       360
51.550       307
51.560       320
51.570       420
51.580       340
51.590       320
51.600       293
51.610       280
51.620       347
51.630       387
51.640       400
51.650       400
51.660       407
51.670       407
51.680       440
51.690       347
51.700       440
51.710       393
51.720       446
51.730       446
51.740       520
51.750       593
51.760       586
51.770       693
51.780       593
51.790       633
51.800       640
51.810       766
51.820       713
51.830       800
51.840       893
51.850       900
51.860       826
51.870       906
51.880       873
51.890       886
51.900      1126
51.910      1033
51.920      1040
51.930      1106
51.940      1206
51.950      1000
51.960       980
51.970       993
51.980      1080
51.990       873
52.000       906
52.010       993
52.020       813
52.030       966
52.040       886
52.050       786
52.060       886
52.070       873
52.080       860
52.090       706
52.100       766
52.110       706
52.120       746
52.130       846
52.140       773
52.150       713
52.160       673
52.170       720
52.180       786
52.190       773
52.200       906
52.210       773
52.220       773
52.230       953
52.240       786
52.250       926
52.260      1080
52.270      1033
52.280      1080
52.290      1373
52.300      1566
52.310      1673
52.320      1879
52.330      2239
52.340      2519
52.350      3079
52.360      3352
52.370      4032
52.380      4585
52.390      4791
52.400      5305
52.410      5504
52.420      5944
52.430      6664
52.440      6864
52.450      6991
52.460      7277
52.470      7797
52.480      8210
52.490      8830
52.500      9876
52.510     11709
52.520     13848
52.530     17893
52.540     25723
52.550     41004
52.560     64261
52.570     89631
52.580    111176
52.590    125910
52.600    133933
52.610    136625
52.620    129282
52.630    112868
52.640     88565
52.650     61642
52.660     40917
52.670     30095
52.680     27236
52.690     30754
52.700     39671
52.710     52692
52.720     63188
52.730     70272
52.740     74657
52.750     74564
52.760     70192
52.770     61315
52.780     47428
52.790     32007
52.800     20885
52.810     13635
52.820      9916
52.830      6837
52.840      5684
52.850      4558
52.860      3965
52.870      3532
52.880      2939
52.890      2452
52.900      2146
52.910      1839
52.920      1773
52.930      1666
52.940      1286
52.950      1439
52.960      1306
52.970      1226
52.980      1033
52.990      1080
53.000       826
53.010       880
53.020       940
53.030       886
53.040       853
53.050       733
53.060       886
53.070       906
53.080       793
53.090       720
53.100       686
53.110       573
53.120       666
53.130       706
53.140       613
53.150       646
53.160       613
53.170       620
53.180       466
53.190       520
53.200       600
53.210       473
53.220       466
53.230       453
53.240       446
53.250       553
53.260       533
53.270       526
53.280       440
53.290       520
53.300       473
53.310       407
53.320       460
53.330       553
53.340       493
53.350       380
53.360       347
53.370       506
53.380       453
53.390       453
53.400       340
53.410       420
53.420       380
53.430       347
53.440       373
53.450       347
53.460       420
53.470       313
53.480       307
53.490       486
53.500       327
53.510       367
53.520       333
53.530       333
53.540       293
53.550       373
53.560       473
53.570       340
53.580       353
53.590       407
53.600       426
53.610       353
53.620       347
53.630       426
53.640       327
53.650       387
53.660       287
53.670       227
53.680       280
53.690       267
53.700       293
53.710       240
53.720       320
53.730       320
53.740       293
53.750       273
53.760       320
53.770       320
53.780       287
53.790       227
53.800       307
53.810       227
53.820       213
53.830       273
53.840       327
53.850       193
53.860       273
53.870       240
53.880       247
53.890       300
53.900       307
53.910       260
53.920       267
53.930       247
53.940       260
53.950       227
53.960       280
53.970       340
53.980       260
53.990       280
54.000       260
54.010       293
54.020       213
54.030       253
54.040       327
54.050       280
54.060       227
54.070       180
54.080       207
54.090       180
54.100       307
54.110       280
54.120       247
54.130       220
54.140       240
54.150       240
54.160       307
54.170       260
54.180       213
54.190       200
54.200       260
54.210       293
54.220       260
54.230       240
54.240       240
54.250       220
54.260       233
54.270       187
54.280       220
54.290       247
54.300       207
54.310       200
54.320       280
54.330       247
54.340       213
54.350       227
54.360       220
54.370       253
54.380       280
54.390       213
54.400       227
54.410       240
54.420       267
54.430       200
54.440       147
54.450       240
54.460       247
54.470       233
54.480       187
54.490       180
54.500       153
54.510       293
54.520       240
54.530       233
54.540       200
54.550       267
54.560       260
54.570       267
54.580       213
54.590       187
54.600       220
54.610       127
54.620       233
54.630       180
54.640       260
54.650       220
54.660       233
54.670       247
54.680       227
54.690       167
54.700       220
54.710       273
54.720       280
54.730       213
54.740       253
54.750       200
54.760       220
54.770       193
54.780       207
54.790       200
54.800       220
54.810       213
54.820       200
54.830       173
54.840       193
54.850       193
54.860       240
54.870       207
54.880       173
54.890       167
54.900       227
54.910       220
54.920       187
54.930       220
54.940       140
54.950       173
54.960       207
54.970       260
54.980       153
54.990       140
55.000       207
55.010       160
55.020       193
55.030       160
55.040       227
55.050       213
55.060       193
55.070       193
55.080       153
55.090       200
55.100       267
55.110       200
55.120       173
55.130       187
55.140       193
55.150       173
55.160       187
55.170       160
55.180       200
55.190       213
55.200       153
55.210       240
55.220       180
55.230       180
55.240       153
55.250       213
55.260       193
55.270       167
55.280       167
55.290       220
55.300       207
55.310       200
55.320       167
55.330       160
55.340       227
55.350       193
55.360       133
55.370       153
55.380       213
55.390       227
55.400       187
55.410       160
55.420       153
55.430       160
55.440       193
55.450       220
55.460       160
55.470       147
55.480       133
55.490       133
55.500       140
55.510       167
55.520       180
55.530       173
55.540       200
55.550       147
55.560       180
55.570       120
55.580       160
55.590       193
55.600       213
55.610       200
55.620       227
55.630       207
55.640       113
55.650       200
55.660       160
55.670       180
55.680       140
55.690       127
55.700       140
55.710       187
55.720       160
55.730       153
55.740       173
55.750       173
55.760       160
55.770       167
55.780       233
55.790       167
55.800       220
55.810       153
55.820       180
55.830       160
55.840       173
55.850       140
55.860       160
55.870       173
55.880       173
55.890       127
55.900       227
55.910       220
55.920       173
55.930       133
55.940       160
55.950       167
55.960       160
55.970       133
55.980       193
55.990       207
56.000       160
56.010       200
56.020       213
56.030       173
56.040       127
56.050       147
56.060       147
56.070       187
56.080        80
56.090       180
56.100       173
56.110       200
56.120       167
56.130       247
56.140       147
56.150       247
56.160       187
56.170       160
56.180       140
56.190       140
56.200       167
56.210       187
56.220       153
56.230       160
56.240       213
56.250       193
56.260       180
56.270       200
56.280       180
56.290       173
56.300       167
56.310       180
56.320       193
56.330       220
56.340       220
56.350       187
56.360       180
56.370       180
56.380       147
56.390       200
56.400       160
56.410       140
56.420       187
56.430       153
56.440       167
56.450       167
56.460       133
56.470       160
56.480       107
56.490       147
56.500       173
56.510       113
56.520       227
56.530       173
56.540       107
56.550       147
56.560       100
56.570       107
56.580       100
56.590       160
56.600       133
56.610       173
56.620       140
56.630       187
56.640       140
56.650       180
56.660       187
56.670       147
56.680       153
56.690       160
56.700       107
56.710       167
56.720       127
56.730       153
56.740       227
56.750       173
56.760        93
56.770       107
56.780       127
56.790       193
56.800       187
56.810       140
56.820       160
56.830       127
56.840       167
56.850       173
56.860       127
56.870       153
56.880       167
56.890       120
56.900       213
56.910       180
56.920       140
56.930       153
56.940        87
56.950       127
56.960       187
56.970       107
56.980       127
56.990       120
57.000       107
57.010       147
57.020       160
57.030       133
57.040       113
57.050       153
57.060        80
57.070        93
57.080       113
57.090       193
57.100       153
57.110       140
57.120       133
57.130       113
57.140       173
57.150       167
57.160       147
57.170       147
57.180        93
57.190       173
57.200       167
57.210        93
57.220       140
57.230        73
57.240       213
57.250       173
57.260       153
57.270       153
57.280       133
57.290       107
57.300       153
57.310       160
57.320       187
57.330        80
57.340       133
57.350       187
57.360       140
57.370        93
57.380       133
57.390       153
57.400        67
57.410       120
57.420       160
57.430       173
57.440        93
57.450       107
57.460       153
57.470       153
57.480       160
57.490       173
57.500       147
57.510       107
57.520       127
57.530       127
57.540       147
57.550       113
57.560       120
57.570        60
57.580       160
57.590       153
57.600       133
57.610       153
57.620       153
57.630       180
57.640       147
57.650       147
57.660       100
57.670       120
57.680       133
57.690       160
57.700       213
57.710        73
57.720       127
57.730       100
57.740       113
57.750       147
57.760       133
57.770       120
57.780       147
57.790       113
57.800        93
57.810       133
57.820       200
57.830       140
57.840       220
57.850       133
57.860       180
57.870       200
57.880       133
57.890       113
57.900       133
57.910       147
57.920       127
57.930       193
57.940       167
57.950       113
57.960       100
57.970        93
57.980       120
57.990       167
58.000       113
58.010       153
58.020       160
58.030       147
58.040        93
58.050       113
58.060       120
58.070        80
58.080       107
58.090       120
58.100       113
58.110       100
58.120       160
58.130       107
58.140        67
58.150       133
58.160       127
58.170       120
58.180       147
58.190       100
58.200       120
58.210       147
58.220       113
58.230       127
58.240       127
58.250       107
58.260       147
58.270       107
58.280        93
58.290       153
58.300       127
58.310       107
58.320       127
58.330        73
58.340       127
58.350       153
58.360       107
58.370       100
58.380       147
58.390       133
58.400        93
58.410        93
58.420       120
58.430        60
58.440       120
58.450       100
58.460       100
58.470       113
58.480       113
58.490       120
58.500       180
58.510       140
58.520        87
58.530       107
58.540       113
58.550       127
58.560       107
58.570        80
58.580       133
58.590        73
58.600        80
58.610       113
58.620       140
58.630        93
58.640       120
58.650        47
58.660        93
58.670       120
58.680       140
58.690       140
58.700       100
58.710       107
58.720       107
58.730       120
58.740        73
58.750       100
58.760       107
58.770       107
58.780       113
58.790       107
58.800       133
58.810       133
58.820       100
58.830        93
58.840        87
58.850        80
58.860       153
58.870       107
58.880        80
58.890       127
58.900       113
58.910       113
58.920       107
58.930        87
58.940        67
58.950       127
58.960       120
58.970       100
58.980       113
58.990        73
59.000       113
59.010        93
59.020        80
59.030       107
59.040        87
59.050       140
59.060       107
59.070        80
59.080       120
59.090       100
59.100        87
59.110       133
59.120       100
59.130        87
59.140       100
59.150       147
59.160       120
59.170       127
59.180        67
59.190       140
59.200        93
59.210       147
59.220        73
59.230       113
59.240       107
59.250        53
59.260       160
59.270       127
59.280       113
59.290       180
59.300       120
59.310        73
59.320       160
59.330       173
59.340       140
59.350       153
59.360       147
59.370       120
59.380       153
59.390       167
59.400       100
59.410       147
59.420       147
59.430       113
59.440       160
59.450       140
59.460       127
59.470       107
59.480        80
59.490       120
59.500       147
59.510       113
59.520       133
59.530       107
59.540        87
59.550        60
59.560       107
59.570       100
59.580       133
59.590        80
59.600        87
59.610       127
59.620       107
59.630       100
59.640        93
59.650       147
59.660       107
59.670       120
59.680       167
59.690       133
59.700       100
59.710        73
59.720       153
59.730       100
59.740       167
59.750       113
59.760       160
59.770       167
59.780       120
59.790       167
59.800       153
59.810       120
59.820       140
59.830       147
59.840       153
59.850       173
59.860       127
59.870       160
59.880       193
59.890        73
59.900       160
59.910       153
59.920       133
59.930       100
59.940       247
59.950       160
59.960       127
59.970       193
59.980       120
59.990        53
60.000        53
