20.000        27
20.010        40
20.020        60
20.030        53
20.040        47
20.050        47
20.060        27
20.070        53
20.080        40
20.090        33
20.100        33
20.110        27
20.120        67
20.130        60
20.140        40
20.150        53
20.160        27
20.170        47
20.180        27
20.190        27
20.200        47
20.210        53
20.220        60
20.230        40
20.240        47
20.250        47
20.260        40
20.270        40
20.280        67
20.290        27
20.300        67
20.310        73
20.320        53
20.330        47
20.340        47
20.350        40
20.360        47
20.370        60
20.380        13
20.390        53
20.400        60
20.410        27
20.420        73
20.430        73
20.440        47
20.450        27
20.460        53
20.470        80
20.480        40
20.490        53
20.500        40
20.510        20
20.520        40
20.530        60
20.540        87
20.550        40
20.560        27
20.570        47
20.580        33
20.590        47
20.600        40
20.610        47
20.620        33
20.630        53
20.640        87
20.650        20
20.660        60
20.670        40
20.680        40
20.690        40
20.700        53
20.710        73
20.720        40
20.730        47
20.740        67
20.750        67
20.760        47
20.770        60
20.780        53
20.790        27
20.800        60
20.810        40
20.820        60
20.830        53
20.840        40
20.850        40
20.860        33
20.870        40
20.880        20
20.890        47
20.900        27
20.910        20
20.920        27
20.930        33
20.940        67
20.950        20
20.960        33
20.970        73
20.980        33
20.990        40
21.000        33
21.010        60
21.020        33
21.030        33
21.040        67
21.050        47
21.060        67
21.070        33
21.080        33
21.090        53
21.100        47
21.110        47
21.120        47
21.130        40
21.140        47
21.150        80
21.160        73
21.170        40
21.180        20
21.190        47
21.200        27
21.210        67
21.220        40
21.230        47
21.240        33
21.250        20
21.260        33
21.270        40
21.280        47
21.290        13
21.300        73
21.310        53
21.320        47
21.330        60
21.340        33
21.350        27
21.360        53
21.370        20
21.380        53
21.390        33
21.400        60
21.410        47
21.420        33
21.430        40
21.440        47
21.450        60
21.460        73
21.470        33
21.480        67
21.490        27
21.500        33
21.510        20
21.520        40
21.530        33
21.540        27
21.550        47
21.560        20
21.570        13
21.580        47
21.590        47
21.600        47
21.610        47
21.620        53
21.630        27
21.640        13
21.650        53
21.660        27
21.670        40
21.680        47
21.690        33
21.700        40
21.710        53
21.720        13
21.730        27
21.740        20
21.750        13
21.760        33
21.770        60
21.780        33
21.790        53
21.800        47
21.810        53
21.820         0
21.830        87
21.840        27
21.850        27
21.860        60
21.870        67
21.880        40
21.890        33
21.900        40
21.910        20
21.920        20
21.930        13
21.940        20
21.950        33
21.960        73
21.970        27
21.980        47
21.990        47
22.000        47
22.010        40
22.020        33
22.030        67
22.040        60
22.050        47
22.060        60
22.070        47
22.080        67
22.090        33
22.100        53
22.110        27
22.120        67
22.130        67
22.140        60
22.150        93
22.160        80
22.170        73
22.180       100
22.190        87
22.200        47
22.210       133
22.220        93
22.230       147
22.240       180
22.250       113
22.260        67
22.270       133
22.280       120
22.290       173
22.300       187
22.310       153
22.320       133
22.330       207
22.340       200
22.350       233
22.360       327
22.370       333
22.380       340
22.390       300
22.400       400
22.410       407
22.420       546
22.430       373
22.440       526
22.450       606
22.460       533
22.470       513
22.480       540
22.490       393
22.500       440
22.510       506
22.520       273
22.530       300
22.540       300
22.550       160
22.560       240
22.570       220
22.580       180
22.590       200
22.600       127
22.610       113
22.620       127
22.630        93
22.640       120
22.650       187
22.660       120
22.670       107
22.680       147
22.690        60
22.700       100
22.710       100
22.720       167
22.730       213
22.740       147
22.750       140
22.760       187
22.770       173
22.780       193
22.790       180
22.800       233
22.810       320
22.820       267
22.830       340
22.840       373
22.850       307
22.860       293
22.870       320
22.880       313
22.890       387
22.900       367
22.910       387
22.920       287
22.930       213
22.940       240
22.950       280
22.960       267
22.970       193
22.980       240
22.990       227
23.000       153
23.010       133
23.020        87
23.030        87
23.040       113
23.050        67
23.060        53
23.070        73
23.080        67
23.090        80
23.100        60
23.110        67
23.120        53
23.130        60
23.140        73
23.150        73
23.160        20
23.170        40
23.180        53
23.190        60
23.200        33
23.210        33
23.220        47
23.230        33
23.240        60
23.250        27
23.260        47
23.270        47
23.280        47
23.290        47
23.300        53
23.310        67
23.320        47
23.330        60
23.340        80
23.350        47
23.360        27
23.370        47
23.380        47
23.390        73
23.400        47
23.410        47
23.420        33
23.430        53
23.440        53
23.450        53
23.460        27
23.470        40
23.480        47
23.490        47
23.500        60
23.510        27
23.520        33
23.530        67
23.540        27
23.550        73
23.560        60
23.570        27
23.580        33
23.590        40
23.600        53
23.610        20
23.620        53
23.630        60
23.640        40
23.650        60
23.660        20
23.670        13
23.680        40
23.690        40
23.700        33
23.710        47
23.720        33
23.730        47
23.740        33
23.750        47
23.760        20
23.770        27
23.780        40
23.790        53
23.800        47
23.810        40
23.820        33
23.830        27
23.840        13
23.850        47
23.860        87
23.870        47
23.880        27
23.890        20
23.900        33
23.910        13
23.920        53
23.930        53
23.940        53
23.950        47
23.960        40
23.970        40
23.980        33
23.990        67
24.000        27
24.010        27
24.020        33
24.030        20
24.040        40
24.050        53
24.060        33
24.070        40
24.080        53
24.090        27
24.100        60
24.110        13
24.120        60
24.130        33
24.140        40
24.150        47
24.160        20
24.170        53
24.180        27
24.190        27
24.200        33
24.210        13
24.220        40
24.230        73
24.240         7
24.250        13
24.260        40
24.270        33
24.280        33
24.290        33
24.300        47
24.310        47
24.320        33
24.330        53
24.340        40
24.350        33
24.360        13
24.370        33
24.380        20
24.390        80
24.400        27
24.410        20
24.420        60
24.430        60
24.440        20
24.450        20
24.460        47
24.470        53
24.480        47
24.490        47
24.500        40
24.510        53
24.520        27
24.530        20
24.540        27
24.550        20
24.560        33
24.570        47
24.580        40
24.590        40
24.600        27
24.610        27
24.620        20
24.630        33
24.640        27
24.650        60
24.660         7
24.670        60
24.680        47
24.690        40
24.700        53
24.710        67
24.720        27
24.730        47
24.740        27
24.750        27
24.760        53
24.770        67
24.780        40
24.790        47
24.800        27
24.810        27
24.820        33
24.830        40
24.840        53
24.850        27
24.860        80
24.870        27
24.880        40
24.890        20
24.900        47
24.910        93
24.920        53
24.930        47
24.940        47
24.950        40
24.960        60
24.970        47
24.980        20
24.990        53
25.000        47
25.010        40
25.020        27
25.030        53
25.040        40
25.050        47
25.060        27
25.070        27
25.080        27
25.090        53
25.100        53
25.110        33
25.120        67
25.130        40
25.140        47
25.150        27
25.160        67
25.170        20
25.180        53
25.190         7
25.200        53
25.210        40
25.220        40
25.230        33
25.240        93
25.250        53
25.260        13
25.270        53
25.280        33
25.290        13
25.300        33
25.310        33
25.320        53
25.330        40
25.340        20
25.350        80
25.360        53
25.370        40
25.380        27
25.390        33
25.400        40
25.410        13
25.420        20
25.430        40
25.440        47
25.450        53
25.460        27
25.470        40
25.480        47
25.490        53
25.500        73
25.510        60
25.520        40
25.530        53
25.540        47
25.550        47
25.560        60
25.570        60
25.580        60
25.590       100
25.600        80
25.610       113
25.620       113
25.630       100
25.640       120
25.650       107
25.660        60
25.670       120
25.680        73
25.690       107
25.700        60
25.710        80
25.720        80
25.730       153
25.740       127
25.750       113
25.760        73
25.770        80
25.780        33
25.790        67
25.800        53
25.810        87
25.820        60
25.830        87
25.840        73
25.850        67
25.860        40
25.870        67
25.880        33
25.890        47
25.900        47
25.910        27
25.920        60
25.930        53
25.940        33
25.950        40
25.960        53
25.970        60
25.980        40
25.990        40
26.000        60
26.010        40
26.020        53
26.030        60
26.040        27
26.050        40
26.060        20
26.070        33
26.080        53
26.090        40
26.100        27
26.110        27
26.120        80
26.130        27
26.140        27
26.150        40
26.160        53
26.170        40
26.180        80
26.190        27
26.200        47
26.210        13
26.220        40
26.230        33
26.240         7
26.250        27
26.260        13
26.270        27
26.280        33
26.290        47
26.300        40
26.310        20
26.320        47
26.330        27
26.340        47
26.350        13
26.360        40
26.370         7
26.380        60
26.390        47
26.400        40
26.410         7
26.420        27
26.430        13
26.440        53
26.450        47
26.460         7
26.470        40
26.480        40
26.490        20
26.500        13
26.510        27
26.520        33
26.530        27
26.540        60
26.550        60
26.560        47
26.570        33
26.580        40
26.590        40
26.600        33
26.610        40
26.620        33
26.630        47
26.640        20
26.650        60
26.660        47
26.670        40
26.680        40
26.690        47
26.700        27
26.710         7
26.720        40
26.730        27
26.740        27
26.750        40
26.760        40
26.770        67
26.780        33
26.790        33
26.800         7
26.810        53
26.820        27
26.830         7
26.840        27
26.850        33
26.860        33
26.870        20
26.880        47
26.890        13
26.900        13
26.910        47
26.920        40
26.930        40
26.940        40
26.950        40
26.960        27
26.970        33
26.980        13
26.990        20
27.000        20
27.010        27
27.020        33
27.030        13
27.040        20
27.050         7
27.060        60
27.070        73
27.080        47
27.090        40
27.100         7
27.110        13
27.120        33
27.130        27
27.140        27
27.150         7
27.160        53
27.170        53
27.180        33
27.190        13
27.200        47
27.210        60
27.220        47
27.230        27
27.240        73
27.250        27
27.260        47
27.270        73
27.280         0
27.290        20
27.300        47
27.310        47
27.320        60
27.330        40
27.340        47
27.350         7
27.360        47
27.370        27
27.380        33
27.390        27
27.400        53
27.410        40
27.420        27
27.430        33
27.440        47
27.450        33
27.460        33
27.470        33
27.480        13
27.490        60
27.500        20
27.510        20
27.520        53
27.530        27
27.540        27
27.550         7
27.560        40
27.570        13
27.580        33
27.590        33
27.600        27
27.610        33
27.620        27
27.630        47
27.640        53
27.650        27
27.660        40
27.670        20
27.680        13
27.690        27
27.700        67
27.710        20
27.720        27
27.730        80
27.740        40
27.750        53
27.760        40
27.770        33
27.780        20
27.790        47
27.800        40
27.810        33
27.820        27
27.830        53
27.840        67
27.850        33
27.860        13
27.870        20
27.880        40
27.890        27
27.900        60
27.910        40
27.920        20
27.930        53
27.940        40
27.950       113
27.960        33
27.970        13
27.980        40
27.990        47
28.000        87
28.010        47
28.020        73
28.030       100
28.040        73
28.050        40
28.060        93
28.070       100
28.080        47
28.090        73
28.100        80
28.110       100
28.120        80
28.130       120
28.140        93
28.150        33
28.160        73
28.170        67
28.180        73
28.190        53
28.200        87
28.210       167
28.220       160
28.230       127
28.240       140
28.250        80
28.260       107
28.270       167
28.280       140
28.290       113
28.300        93
28.310       113
28.320        80
28.330       127
28.340        87
28.350       120
28.360        73
28.370       120
28.380       100
28.390       107
28.400        67
28.410        27
28.420        67
28.430        40
28.440        47
28.450        73
28.460        60
28.470        27
28.480        73
28.490        27
28.500        33
28.510        27
28.520        60
28.530        53
28.540        33
28.550        47
28.560        67
28.570        27
28.580        47
28.590        40
28.600        40
28.610        60
28.620        33
28.630        20
28.640        53
28.650        33
28.660        67
28.670        47
28.680        80
28.690        67
28.700        80
28.710        33
28.720        40
28.730        47
28.740        67
28.750        47
28.760        53
28.770        67
28.780        73
28.790        60
28.800        60
28.810       113
28.820       180
28.830       100
28.840       113
28.850        87
28.860       127
28.870       133
28.880       153
28.890       180
28.900       160
28.910       213
28.920       247
28.930       187
28.940       213
28.950       200
28.960       207
28.970       273
28.980       240
28.990       233
29.000       187
29.010       260
29.020       187
29.030       113
29.040       147
29.050       153
29.060       133
29.070       180
29.080       180
29.090       247
29.100       153
29.110       107
29.120       160
29.130       193
29.140        67
29.150       140
29.160        87
29.170       140
29.180        80
29.190        87
29.200        80
29.210       100
29.220        93
29.230        67
29.240        67
29.250        60
29.260       100
29.270        33
29.280        47
29.290        87
29.300        53
29.310        93
29.320        53
29.330        87
29.340        47
29.350        73
29.360        80
29.370        87
29.380        73
29.390        67
29.400        60
29.410        47
29.420        87
29.430        60
29.440        80
29.450       120
29.460        33
29.470        87
29.480        93
29.490        87
29.500        80
29.510       113
29.520        60
29.530       127
29.540       100
29.550        33
29.560        87
29.570        87
29.580        67
29.590       160
29.600        67
29.610       127
29.620        73
29.630        47
29.640        87
29.650        73
29.660        13
29.670        40
29.680        67
29.690        53
29.700        27
29.710        47
29.720        27
29.730        20
29.740        33
29.750        20
29.760        13
29.770        40
29.780        40
29.790        40
29.800        33
29.810        80
29.820        40
29.830        47
29.840        20
29.850        53
29.860        20
29.870        20
29.880        13
29.890        40
29.900        40
29.910        53
29.920        13
29.930        13
29.940        13
29.950        27
29.960        33
29.970        53
29.980        33
29.990         0
30.000        47
30.010        13
30.020        20
30.030        40
30.040        33
30.050        40
30.060        40
30.070        60
30.080        47
30.090        33
30.100        20
30.110        47
30.120        73
30.130        60
30.140        40
30.150        20
30.160        33
30.170        33
30.180        47
30.190        47
30.200        27
30.210        27
30.220        13
30.230        53
30.240        27
30.250        47
30.260        80
30.270        53
30.280        53
30.290        27
30.300        80
30.310        60
30.320       100
30.330       100
30.340        93
30.350       120
30.360        67
30.370        53
30.380        87
30.390        47
30.400       107
30.410       107
30.420        93
30.430        80
30.440        47
30.450        47
30.460        53
30.470        27
30.480        40
30.490        60
30.500        47
30.510        27
30.520        40
30.530        67
30.540        40
30.550         7
30.560        33
30.570        47
30.580        27
30.590        13
30.600        27
30.610        33
30.620        47
30.630        27
30.640        27
30.650        47
30.660        33
30.670        87
30.680         7
30.690        13
30.700         7
30.710        27
30.720        27
30.730        33
30.740        20
30.750        27
30.760        20
30.770        20
30.780        33
30.790        40
30.800         7
30.810         7
30.820        27
30.830        27
30.840        27
30.850        13
30.860         7
30.870        47
30.880        27
30.890        13
30.900        53
30.910         7
30.920        20
30.930        27
30.940        27
30.950        20
30.960        20
30.970        20
30.980        20
30.990        47
31.000        60
31.010        27
31.020        20
31.030        20
31.040        33
31.050        33
31.060        33
31.070        27
31.080        13
31.090        13
31.100        40
31.110        40
31.120        53
31.130        20
31.140        47
31.150        20
31.160        47
31.170        20
31.180        20
31.190        40
31.200        60
31.210        27
31.220        13
31.230         7
31.240        33
31.250        27
31.260        33
31.270        27
31.280        27
31.290        40
31.300         7
31.310        13
31.320        40
31.330        40
31.340        13
31.350        13
31.360        47
31.370        33
31.380        33
31.390        27
31.400         7
31.410        27
31.420        20
31.430        13
31.440        33
31.450        27
31.460        60
31.470        20
31.480        13
31.490        20
31.500         7
31.510        33
31.520        33
31.530        27
31.540        60
31.550        27
31.560         7
31.570        13
31.580        33
31.590        27
31.600        27
31.610        13
31.620        40
31.630        47
31.640        13
31.650        27
31.660         7
31.670        53
31.680        20
31.690        27
31.700        47
31.710        40
31.720        33
31.730        40
31.740        67
31.750        47
31.760        47
31.770        60
31.780        13
31.790        13
31.800        40
31.810        27
31.820         7
31.830        53
31.840        33
31.850        33
31.860        20
31.870        53
31.880        73
31.890        60
31.900        60
31.910        40
31.920        13
31.930        47
31.940        53
31.950        67
31.960        60
31.970        73
31.980        40
31.990        47
32.000        67
32.010        53
32.020        67
32.030        60
32.040        87
32.050        53
32.060        73
32.070        87
32.080        40
32.090        53
32.100        53
32.110        93
32.120        73
32.130        73
32.140        80
32.150         7
32.160        40
32.170        73
32.180        33
32.190        53
32.200        33
32.210        40
32.220        27
32.230        33
32.240        53
32.250        13
32.260        87
32.270        47
32.280        33
32.290        40
32.300        33
32.310        20
32.320        27
32.330        13
32.340        20
32.350        40
32.360        27
32.370        27
32.380        20
32.390        47
32.400        20
32.410        27
32.420        13
32.430        27
32.440        40
32.450         7
32.460        20
32.470        47
32.480        27
32.490        27
32.500        27
32.510        53
32.520         7
32.530        33
32.540        33
32.550        27
32.560        40
32.570        20
32.580        40
32.590        20
32.600        60
32.610        27
32.620        40
32.630        27
32.640        20
32.650         7
32.660        40
32.670        40
32.680        40
32.690        27
32.700        33
32.710        33
32.720        20
32.730        20
32.740        27
32.750        60
32.760        47
32.770        53
32.780        33
32.790        33
32.800        20
32.810        13
32.820        33
32.830        27
32.840        47
32.850        27
32.860        33
32.870        40
32.880        47
32.890        13
32.900        13
32.910        27
32.920        40
32.930        47
32.940        13
32.950        20
32.960        40
32.970        47
32.980        40
32.990        27
33.000        33
33.010        20
33.020        13
33.030        27
33.040        13
33.050        13
33.060        20
33.070        47
33.080        13
33.090        47
33.100        27
33.110        53
33.120        20
33.130        53
33.140         7
33.150         0
33.160        33
33.170        40
33.180        47
33.190        20
33.200        20
33.210        27
33.220        40
33.230        33
33.240        33
33.250        33
33.260        47
33.270        40
33.280        20
33.290        47
33.300        33
33.310        67
33.320        20
33.330        40
33.340        33
33.350        40
33.360        40
33.370        33
33.380         7
33.390        33
33.400        33
33.410        20
33.420        33
33.430        27
33.440        40
33.450        13
33.460        33
33.470        33
33.480        33
33.490        27
33.500        40
33.510        27
33.520        40
33.530        13
33.540         7
33.550        27
33.560        33
33.570        73
33.580        27
33.590        53
33.600        40
33.610        27
33.620        13
33.630         7
33.640        27
33.650        13
33.660        13
33.670        47
33.680        40
33.690        27
33.700        13
33.710        27
33.720        13
33.730        20
33.740        20
33.750        20
33.760        13
33.770        27
33.780        33
33.790        20
33.800        27
33.810         7
33.820        20
33.830        20
33.840        33
33.850        27
33.860        33
33.870        20
33.880         7
33.890        33
33.900        40
33.910        20
33.920        40
33.930        27
33.940        27
33.950        40
33.960        40
33.970        40
33.980        20
33.990        27
34.000        47
34.010        13
34.020        40
34.030        20
34.040        20
34.050        40
34.060        13
34.070        13
34.080        27
34.090        27
34.100        33
34.110        33
34.120        33
34.130        33
34.140        20
34.150        27
34.160        33
34.170         7
34.180         7
34.190        60
34.200        33
34.210        13
34.220        20
34.230        13
34.240        33
34.250        13
34.260        40
34.270        13
34.280        20
34.290         7
34.300        20
34.310        27
34.320        13
34.330        27
34.340         0
34.350        33
34.360        20
34.370        47
34.380        40
34.390        27
34.400        13
34.410        27
34.420        27
34.430        13
34.440        13
34.450        20
34.460        33
34.470        13
34.480        13
34.490        20
34.500        20
34.510        27
34.520        40
34.530         7
34.540        33
34.550        47
34.560        20
34.570        27
34.580        20
34.590        13
34.600        27
34.610        33
34.620        20
34.630        13
34.640        40
34.650        13
34.660        27
34.670        27
34.680        13
34.690        33
34.700        20
34.710        60
34.720        47
34.730        33
34.740        20
34.750        20
34.760        27
34.770        33
34.780        13
34.790        40
34.800        13
34.810        13
34.820        20
34.830        33
34.840        27
34.850        33
34.860        27
34.870         7
34.880        33
34.890        40
34.900        20
34.910        40
34.920        20
34.930        47
34.940        33
34.950        27
34.960        40
34.970        40
34.980        33
34.990        60
35.000        53
35.010        47
35.020        93
35.030        60
35.040        60
35.050       133
35.060       107
35.070        87
35.080       127
35.090       133
35.100       133
35.110       153
35.120        60
35.130       187
35.140       267
35.150       220
35.160       267
35.170       240
35.180       193
35.190       153
35.200       140
35.210       107
35.220       127
35.230       153
35.240       107
35.250       100
35.260        87
35.270        67
35.280        40
35.290        80
35.300        47
35.310        33
35.320        27
35.330         7
35.340        33
35.350        13
35.360        20
35.370        27
35.380        13
35.390        40
35.400        20
35.410        33
35.420        33
35.430        20
35.440        33
35.450        47
35.460        40
35.470        33
35.480        20
35.490        20
35.500        20
35.510        53
35.520        20
35.530        33
35.540        13
35.550         0
35.560        20
35.570        27
35.580         7
35.590        27
35.600        20
35.610        47
35.620        20
35.630        20
35.640        20
35.650        27
35.660        27
35.670        13
35.680        27
35.690        33
35.700        33
35.710        27
35.720        27
35.730        27
35.740        20
35.750        47
35.760        47
35.770        13
35.780        20
35.790        40
35.800        47
35.810        20
35.820        27
35.830        13
35.840        33
35.850        13
35.860        33
35.870        27
35.880        40
35.890        27
35.900        27
35.910        27
35.920        40
35.930        13
35.940        67
35.950        27
35.960        20
35.970        27
35.980        27
35.990        20
36.000        13
36.010        27
36.020        13
36.030        20
36.040        33
36.050        20
36.060         7
36.070         7
36.080         7
36.090         7
36.100        13
36.110         0
36.120        60
36.130        20
36.140        40
36.150         7
36.160        33
36.170        27
36.180        33
36.190        20
36.200        20
36.210        33
36.220        20
36.230        20
36.240         7
36.250         0
36.260        27
36.270        13
36.280        27
36.290         7
36.300        20
36.310        20
36.320        13
36.330        20
36.340         0
36.350        27
36.360        27
36.370        33
36.380        33
36.390        20
36.400        47
36.410        13
36.420        47
36.430        20
36.440         0
36.450        27
36.460        13
36.470        13
36.480        27
36.490         7
36.500         0
36.510        33
36.520        27
36.530        47
36.540         7
36.550         7
36.560        20
36.570        33
36.580        40
36.590        13
36.600         0
36.610         0
36.620        27
36.630        13
36.640        53
36.650        13
36.660        20
36.670        27
36.680        13
36.690        40
36.700        20
36.710        27
36.720        47
36.730        20
36.740        20
36.750        20
36.760        33
36.770        27
36.780        33
36.790        13
36.800        20
36.810        27
36.820        33
36.830        40
36.840        27
36.850        20
36.860        33
36.870        40
36.880        47
36.890         7
36.900        27
36.910        20
36.920        20
36.930         0
36.940        33
36.950        13
36.960        33
36.970         7
36.980        27
36.990        33
37.000        20
37.010        13
37.020        13
37.030         7
37.040         7
37.050        33
37.060        20
37.070        67
37.080        13
37.090         7
37.100        33
37.110        13
37.120        27
37.130         7
37.140        13
37.150         7
37.160         7
37.170        20
37.180        40
37.190        33
37.200        27
37.210        27
37.220        13
37.230        20
37.240        20
37.250        20
37.260        27
37.270         0
37.280        27
37.290        27
37.300        13
37.310        27
37.320        20
37.330        13
37.340        60
37.350        33
37.360        20
37.370        33
37.380        40
37.390        33
37.400        13
37.410        13
37.420        27
37.430        27
37.440        40
37.450        33
37.460        27
37.470        20
37.480        13
37.490        20
37.500        47
37.510        33
37.520        40
37.530         7
37.540        13
37.550        40
37.560         7
37.570        47
37.580        33
37.590         7
37.600         7
37.610        13
37.620        27
37.630        27
37.640        40
37.650        27
37.660        33
37.670        27
37.680        27
37.690         7
37.700        13
37.710        20
37.720        27
37.730        60
37.740        20
37.750        13
37.760        20
37.770        27
37.780        60
37.790        60
37.800        27
37.810        53
37.820        40
37.830        27
37.840        53
37.850        13
37.860        20
37.870        27
37.880        47
37.890        13
37.900        27
37.910        20
37.920        47
37.930        53
37.940        47
37.950        40
37.960        27
37.970        33
37.980         7
37.990         7
38.000        33
38.010        40
38.020        27
38.030        40
38.040        27
38.050        33
38.060        33
38.070        40
38.080        40
38.090        20
38.100        80
38.110        27
38.120        27
38.130        60
38.140        20
38.150         0
38.160        33
38.170        53
38.180        33
38.190        13
38.200        67
38.210        53
38.220        27
38.230        20
38.240        53
38.250        20
38.260        13
38.270        80
38.280        40
38.290        67
38.300        33
38.310        73
38.320        53
38.330        27
38.340        53
38.350        73
38.360        53
38.370        40
38.380        47
38.390        20
38.400        80
38.410        53
38.420        47
38.430        47
38.440        53
38.450        27
38.460        67
38.470        53
38.480        27
38.490        53
38.500        33
38.510        53
38.520        60
38.530        27
38.540         7
38.550        20
38.560        47
38.570        40
38.580        27
38.590        27
38.600        33
38.610         0
38.620        27
38.630        40
38.640         0
38.650        13
38.660        33
38.670        47
38.680        27
38.690        53
38.700        20
38.710        20
38.720        20
38.730        20
38.740        13
38.750        20
38.760        13
38.770        13
38.780        20
38.790        27
38.800        13
38.810        53
38.820        20
38.830        27
38.840        20
38.850         7
38.860        40
38.870        40
38.880        20
38.890        13
38.900        20
38.910        40
38.920        40
38.930         7
38.940        40
38.950        33
38.960        40
38.970         7
38.980        20
38.990        40
39.000        40
39.010         7
39.020        33
39.030        33
39.040        13
39.050        27
39.060        20
39.070        27
39.080        33
39.090        27
39.100        13
39.110        47
39.120        27
39.130        40
39.140         7
39.150        13
39.160        27
39.170        27
39.180        27
39.190        33
39.200         7
39.210        47
39.220        20
39.230        33
39.240        27
39.250        27
39.260         7
39.270        20
39.280        13
39.290        40
39.300        20
39.310        27
39.320        47
39.330        47
39.340        47
39.350        27
39.360        27
39.370        20
39.380        53
39.390        20
39.400         7
39.410        20
39.420         7
39.430        20
39.440         7
39.450         0
39.460        33
39.470         7
39.480        20
39.490        20
39.500         7
39.510        13
39.520        20
39.530        27
39.540        13
39.550        13
39.560        27
39.570         7
39.580        13
39.590        33
39.600        13
39.610        13
39.620        20
39.630        13
39.640        13
39.650        33
39.660        27
39.670        27
39.680        13
39.690        40
39.700        27
39.710        20
39.720         7
39.730        33
39.740        20
39.750        20
39.760        53
39.770        20
39.780        27
39.790        53
39.800        13
39.810        27
39.820        27
39.830        27
39.840        27
39.850        33
39.860        33
39.870        20
39.880         0
39.890        40
39.900        13
39.910        33
39.920        27
39.930        40
39.940        27
39.950        13
39.960        27
39.970        40
39.980        20
39.990        13
40.000        20
40.010        20
40.020        33
40.030         7
40.040        20
40.050        40
40.060        40
40.070        20
40.080        20
40.090        20
40.100        80
40.110        27
40.120        53
40.130        33
40.140        60
40.150        53
40.160        27
40.170        33
40.180        27
40.190        40
40.200        40
40.210        20
40.220        40
40.230        33
40.240        40
40.250        40
40.260        47
40.270        20
40.280        47
40.290        33
40.300        40
40.310        40
40.320        27
40.330        27
40.340        33
40.350        40
40.360        53
40.370        33
40.380        20
40.390        13
40.400        67
40.410        27
40.420        33
40.430        40
40.440        27
40.450         7
40.460        53
40.470        40
40.480        33
40.490        27
40.500        40
40.510        47
40.520        53
40.530        13
40.540         7
40.550        20
40.560        33
40.570        20
40.580        20
40.590        13
40.600        20
40.610        20
40.620         7
40.630        20
40.640        27
40.650        27
40.660        33
40.670        13
40.680        40
40.690        27
40.700        27
40.710         0
40.720        33
40.730        27
40.740        33
40.750         7
40.760         7
40.770        27
40.780        27
40.790         0
40.800        27
40.810         0
40.820        13
40.830        20
40.840        13
40.850        20
40.860        27
40.870        33
40.880        13
40.890        20
40.900        20
40.910        13
40.920        60
40.930        13
40.940        20
40.950        13
40.960        13
40.970        20
40.980        13
40.990        20
41.000         0
41.010        33
41.020        33
41.030        27
41.040        20
41.050        20
41.060        20
41.070        13
41.080        13
41.090        20
41.100         7
41.110        47
41.120        13
41.130        53
41.140        27
41.150        20
41.160        40
41.170        27
41.180        27
41.190        20
41.200        20
41.210         7
41.220        13
41.230        27
41.240        20
41.250        33
41.260        40
41.270        20
41.280        33
41.290        27
41.300        13
41.310        13
41.320        20
41.330        27
41.340        13
41.350        33
41.360         7
41.370        13
41.380        33
41.390        60
41.400        40
41.410        27
41.420         7
41.430        20
41.440        27
41.450        20
41.460        47
41.470        13
41.480        40
41.490        13
41.500        47
41.510        33
41.520        33
41.530        33
41.540        60
41.550        40
41.560        40
41.570        13
41.580        27
41.590        67
41.600        27
41.610        60
41.620        73
41.630       107
41.640        67
41.650       147
41.660       120
41.670       160
41.680       107
41.690       107
41.700       120
41.710       147
41.720        80
41.730        80
41.740        67
41.750        87
41.760        47
41.770        60
41.780       140
41.790       100
41.800        87
41.810        87
41.820        60
41.830        27
41.840        47
41.850        53
41.860        13
41.870        20
41.880        27
41.890        13
41.900        40
41.910        33
41.920        27
41.930        60
41.940        47
41.950        33
41.960        20
41.970        33
41.980        13
41.990        27
42.000        67
42.010        13
42.020        20
42.030        47
42.040        40
42.050        27
42.060        20
42.070        40
42.080        33
42.090        33
42.100        67
42.110        33
42.120        27
42.130        47
42.140        53
42.150        20
42.160        13
42.170        53
42.180        40
42.190        20
42.200        53
42.210        33
42.220        27
42.230        13
42.240        27
42.250        20
42.260        47
42.270        53
42.280        13
42.290        40
42.300        20
42.310        40
42.320        13
42.330        40
42.340        33
42.350        13
42.360        33
42.370        27
42.380        80
42.390        40
42.400        27
42.410        40
42.420        60
42.430        40
42.440        20
42.450        27
42.460        13
42.470        13
42.480         7
42.490         0
42.500        27
42.510        40
42.520        40
42.530        73
42.540        33
42.550        33
42.560        13
42.570        13
42.580        20
42.590        40
42.600        27
42.610        47
42.620        20
42.630        13
42.640        27
42.650        40
42.660        47
42.670        20
42.680        40
42.690        13
42.700        20
42.710        20
42.720        20
42.730        27
42.740        47
42.750         7
42.760        27
42.770        20
42.780        53
42.790        20
42.800        20
42.810        33
42.820        13
42.830        27
42.840        40
42.850        33
42.860        27
42.870        33
42.880        20
42.890         7
42.900        33
42.910        27
42.920        27
42.930        40
42.940         7
42.950        13
42.960        40
42.970        27
42.980        13
42.990        33
43.000        47
43.010        27
43.020        27
43.030        47
43.040        20
43.050        20
43.060        47
43.070        47
43.080        33
43.090        33
43.100        20
43.110        20
43.120        20
43.130        27
43.140        27
43.150        33
43.160        27
43.170        20
43.180        27
43.190        40
43.200        33
43.210        47
43.220        20
43.230         7
43.240        60
43.250        27
43.260        40
43.270        60
43.280        80
43.290        93
43.300       120
43.310        80
43.320       133
43.330       100
43.340        67
43.350       100
43.360        93
43.370       107
43.380        80
43.390        87
43.400       107
43.410        67
43.420        80
43.430        53
43.440        53
43.450        47
43.460        87
43.470        60
43.480        47
43.490        80
43.500        33
43.510        60
43.520        47
43.530        27
43.540        33
43.550         7
43.560        47
43.570        33
43.580        33
43.590        47
43.600        27
43.610        47
43.620        47
43.630        47
43.640        13
43.650        20
43.660         0
43.670        27
43.680        33
43.690        13
43.700        13
43.710        20
43.720        20
43.730        20
43.740        27
43.750        20
43.760        13
43.770        33
43.780        20
43.790        33
43.800        13
43.810        20
43.820        20
43.830        20
43.840         7
43.850        13
43.860        33
43.870        20
43.880        27
43.890        20
43.900        13
43.910        13
43.920        33
43.930        47
43.940        13
43.950        13
43.960        27
43.970        53
43.980        13
43.990        47
44.000        20
44.010        27
44.020        20
44.030        13
44.040        20
44.050        27
44.060        27
44.070        20
44.080        20
44.090        33
44.100        27
44.110        20
44.120        33
44.130         7
44.140        20
44.150         7
44.160         7
44.170        53
44.180        20
44.190         0
44.200        27
44.210        20
44.220        20
44.230        13
44.240        20
44.250        33
44.260        13
44.270        33
44.280        13
44.290         7
44.300        27
44.310        40
44.320        33
44.330        27
44.340        13
44.350        13
44.360        13
44.370        40
44.380         7
44.390        13
44.400        20
44.410         7
44.420         7
44.430        27
44.440        20
44.450        53
44.460        13
44.470        33
44.480        20
44.490        20
44.500        33
44.510         0
44.520        27
44.530        27
44.540        53
44.550        13
44.560        27
44.570        13
44.580        13
44.590        20
44.600        20
44.610        20
44.620        20
44.630         7
44.640        20
44.650        33
44.660        20
44.670        33
44.680        60
44.690        20
44.700        33
44.710        20
44.720        27
44.730        27
44.740        33
44.750        40
44.760        20
44.770        40
44.780        13
44.790        20
44.800        33
44.810        13
44.820        20
44.830        33
44.840        27
44.850        33
44.860         0
44.870         7
44.880        13
44.890        13
44.900        20
44.910        13
44.920         7
44.930        27
44.940        40
44.950        20
44.960        13
44.970        13
44.980        33
44.990         7
45.000        13
45.010         0
45.020         7
45.030        33
45.040        13
45.050        20
45.060        40
45.070        13
45.080         7
45.090         7
45.100        20
45.110        33
45.120        53
45.130        13
45.140        27
45.150        20
45.160        33
45.170        40
45.180        33
45.190        13
45.200        40
45.210        20
45.220        27
45.230        20
45.240        20
45.250         0
45.260        40
45.270        20
45.280        20
45.290        27
45.300         7
45.310        47
45.320        27
45.330        20
45.340        40
45.350        20
45.360        20
45.370        47
45.380        27
45.390        13
45.400         7
45.410        13
45.420        40
45.430        33
45.440        53
45.450        33
45.460        13
45.470        13
45.480        47
45.490        33
45.500        13
45.510        53
45.520        33
45.530        20
45.540        27
45.550        53
45.560        53
45.570        33
45.580        60
45.590        60
45.600        40
45.610        67
45.620        53
45.630        47
45.640        87
45.650        80
45.660       127
45.670        93
45.680        87
45.690       113
45.700       160
45.710       127
45.720       173
45.730       167
45.740       187
45.750       200
45.760       233
45.770       187
45.780       180
45.790       193
45.800       240
45.810       300
45.820       240
45.830       193
45.840       187
45.850       253
45.860       167
45.870       160
45.880       147
45.890       280
45.900       233
45.910       173
45.920       273
45.930       160
45.940       100
45.950       193
45.960       133
45.970       120
45.980       140
45.990       127
46.000       100
46.010       113
46.020       140
46.030        80
46.040       100
46.050       120
46.060        87
46.070       127
46.080        47
46.090       100
46.100        40
46.110        40
46.120        73
46.130        67
46.140        67
46.150        80
46.160        60
46.170        27
46.180        60
46.190        53
46.200       147
46.210        53
46.220        47
46.230        40
46.240        47
46.250        33
46.260        53
46.270        47
46.280        47
46.290        40
46.300        33
46.310        47
46.320        47
46.330        33
46.340        20
46.350        33
46.360        40
46.370        60
46.380        60
46.390        40
46.400        47
46.410        47
46.420        53
46.430        47
46.440        80
46.450        20
46.460        53
46.470        20
46.480       107
46.490        53
46.500        87
46.510       113
46.520        60
46.530        67
46.540        73
46.550        87
46.560       187
46.570       120
46.580       120
46.590       187
46.600       167
46.610       173
46.620       160
46.630       240
46.640       293
46.650       227
46.660       273
46.670       240
46.680       320
46.690       280
46.700       247
46.710       293
46.720       227
46.730       213
46.740       220
46.750       233
46.760       260
46.770       213
46.780       287
46.790       187
46.800       200
46.810       233
46.820       167
46.830       293
46.840       207
46.850       253
46.860       227
46.870       193
46.880       240
46.890       193
46.900       220
46.910       140
46.920       193
46.930       113
46.940       120
46.950       140
46.960       127
46.970       127
46.980       127
46.990       100
47.000        60
47.010        73
47.020        80
47.030        60
47.040        80
47.050        80
47.060        80
47.070        80
47.080        47
47.090        40
47.100        80
47.110        53
47.120        53
47.130        60
47.140        47
47.150        33
47.160        13
47.170        60
47.180        20
47.190        53
47.200         7
47.210        53
47.220        60
47.230        33
47.240        20
47.250        27
47.260        27
47.270        47
47.280        20
47.290        40
47.300        13
47.310        20
47.320        27
47.330        13
47.340        20
47.350        33
47.360        47
47.370        13
47.380        27
47.390        20
47.400        27
47.410        20
47.420        20
47.430        20
47.440        20
47.450         7
47.460        27
47.470        47
47.480        20
47.490        27
47.500        27
47.510         0
47.520        20
47.530        20
47.540        20
47.550        27
47.560        33
47.570        20
47.580        40
47.590        27
47.600        27
47.610        27
47.620        20
47.630         7
47.640        47
47.650        13
47.660        13
47.670         0
47.680        27
47.690        40
47.700        47
47.710        27
47.720        13
47.730        27
47.740        20
47.750        13
47.760        33
47.770        20
47.780        13
47.790        20
47.800        27
47.810        27
47.820        13
47.830        20
47.840        13
47.850        40
47.860        20
47.870        13
47.880        13
47.890        33
47.900         7
47.910        27
47.920        47
47.930         7
47.940        33
47.950        27
47.960         7
47.970         0
47.980        53
47.990        27
48.000        27
48.010        27
48.020        13
48.030        13
48.040        33
48.050        40
48.060        53
48.070        47
48.080        27
48.090        40
48.100        20
48.110        27
48.120        27
48.130         7
48.140         7
48.150        33
48.160        33
48.170        27
48.180        20
48.190        40
48.200         7
48.210        33
48.220        33
48.230        40
48.240        27
48.250        33
48.260        27
48.270        27
48.280        33
48.290        27
48.300        27
48.310        40
48.320        33
48.330        40
48.340        20
48.350        40
48.360        33
48.370        27
48.380        33
48.390        60
48.400        27
48.410        13
48.420        53
48.430        27
48.440        33
48.450        40
48.460        33
48.470        33
48.480        27
48.490        33
48.500        20
48.510        13
48.520        20
48.530        27
48.540        13
48.550        27
48.560        20
48.570        33
48.580        33
48.590        27
48.600        20
48.610        20
48.620        20
48.630        13
48.640        27
48.650        33
48.660        33
48.670        20
48.680        20
48.690        47
48.700        47
48.710        20
48.720        20
48.730        20
48.740        47
48.750        47
48.760        33
48.770        27
48.780        53
48.790        27
48.800        40
48.810        27
48.820        33
48.830        33
48.840        20
48.850        40
48.860        80
48.870        33
48.880        33
48.890        53
48.900        33
48.910        27
48.920        20
48.930        13
48.940        47
48.950        13
48.960        40
48.970        20
48.980        20
48.990        20
49.000        60
49.010        20
49.020        47
49.030        27
49.040        40
49.050        47
49.060        60
49.070        27
49.080        40
49.090        40
49.100        33
49.110        40
49.120         7
49.130         7
49.140        13
49.150        33
49.160        33
49.170        13
49.180         7
49.190        13
49.200         7
49.210        60
49.220        20
49.230        20
49.240        33
49.250        13
49.260        47
49.270        13
49.280        33
49.290        40
49.300        20
49.310        27
49.320        13
49.330        13
49.340        13
49.350         0
49.360        27
49.370        53
49.380        20
49.390        40
49.400        60
49.410        27
49.420        53
49.430        20
49.440        40
49.450        53
49.460        33
49.470        40
49.480        33
49.490        33
49.500        73
49.510        20
49.520        47
49.530        60
49.540        47
49.550        60
49.560        67
49.570        87
49.580       100
49.590        67
49.600       127
49.610        80
49.620        80
49.630       120
49.640        67
49.650        67
49.660       107
49.670       113
49.680        67
49.690        87
49.700        53
49.710       173
49.720        87
49.730       127
49.740       100
49.750       133
49.760        73
49.770        73
49.780        87
49.790        73
49.800        80
49.810        87
49.820        93
49.830        67
49.840        80
49.850        60
49.860        27
49.870        60
49.880        40
49.890        60
49.900        73
49.910        67
49.920        60
49.930        53
49.940        87
49.950        33
49.960        33
49.970        53
49.980        13
49.990        40
50.000        53
50.010        40
50.020        40
50.030        47
50.040        20
50.050        40
50.060        13
50.070        20
50.080        27
50.090        20
50.100        27
50.110        47
50.120        33
50.130        33
50.140        13
50.150        20
50.160        13
50.170        53
50.180        53
50.190        47
50.200        33
50.210        20
50.220        53
50.230        33
50.240        47
50.250        73
50.260        27
50.270        40
50.280        27
50.290        67
50.300        27
50.310        47
50.320        13
50.330        27
50.340        33
50.350        27
50.360        13
50.370        13
50.380        47
50.390        13
50.400        27
50.410        20
50.420        27
50.430        53
50.440        33
50.450        53
50.460         7
50.470        27
50.480        20
50.490        47
50.500        27
50.510        20
50.520        33
50.530        13
50.540        13
50.550        20
50.560        27
50.570        53
50.580        13
50.590        33
50.600        20
50.610        20
50.620        13
50.630        13
50.640        33
50.650        33
50.660        20
50.670        20
50.680         7
50.690        20
50.700        27
50.710        27
50.720        27
50.730        20
50.740        47
50.750        20
50.760        20
50.770        33
50.780        40
50.790        27
50.800        33
50.810        33
50.820        27
50.830        53
50.840         7
50.850        20
50.860        13
50.870        13
50.880        13
50.890        27
50.900        27
50.910        13
50.920        13
50.930        20
50.940        20
50.950         0
50.960        20
50.970        27
50.980         7
50.990        27
51.000        20
51.010        13
51.020         7
51.030        13
51.040        27
51.050        13
51.060         7
51.070        20
51.080        33
51.090        13
51.100        33
51.110         7
51.120        13
51.130         7
51.140        27
51.150        40
51.160        20
51.170        27
51.180        27
51.190        13
51.200         7
51.210        27
51.220         7
51.230        13
51.240        20
51.250        27
51.260        20
51.270        13
51.280        13
51.290        27
51.300         7
51.310        27
51.320        40
51.330         7
51.340        27
51.350         0
51.360        33
51.370        20
51.380        27
51.390        20
51.400         7
51.410         7
51.420        27
51.430         7
51.440        20
51.450        20
51.460        33
51.470        13
51.480        27
51.490        40
51.500        27
51.510        53
51.520        20
51.530        40
51.540        60
51.550        13
51.560        20
51.570         7
51.580        27
51.590        40
51.600        40
51.610        27
51.620        33
51.630        47
51.640        13
51.650        40
51.660        13
51.670        20
51.680        27
51.690        47
51.700        67
51.710        47
51.720        47
51.730        20
51.740        20
51.750        67
51.760        60
51.770        33
51.780        53
51.790        60
51.800        47
51.810        27
51.820        27
51.830        60
51.840        60
51.850        33
51.860        47
51.870        53
51.880        40
51.890        53
51.900        67
51.910        20
51.920        20
51.930        40
51.940        40
51.950        47
51.960        27
51.970        33
51.980        33
51.990        33
52.000        33
52.010        33
52.020        33
52.030        40
52.040        40
52.050        13
52.060        33
52.070         7
52.080        53
52.090        53
52.100        20
52.110        53
52.120        20
52.130        20
52.140         7
52.150        33
52.160         0
52.170         7
52.180        13
52.190        20
52.200        13
52.210        40
52.220        47
52.230        27
52.240        13
52.250        13
52.260        13
52.270         7
52.280        20
52.290        33
52.300         0
52.310         7
52.320         7
52.330        13
52.340        33
52.350        20
52.360        33
52.370        27
52.380        33
52.390        33
52.400        20
52.410         7
52.420        33
52.430         0
52.440        13
52.450        33
52.460        27
52.470        40
52.480        27
52.490        33
52.500        13
52.510        53
52.520        20
52.530        20
52.540         7
52.550         7
52.560        20
52.570        33
52.580        33
52.590        20
52.600        47
52.610        33
52.620        20
52.630        20
52.640        27
52.650        33
52.660         7
52.670        40
52.680        27
52.690        13
52.700        20
52.710         0
52.720        20
52.730        20
52.740        27
52.750        40
52.760        13
52.770        13
52.780        33
52.790        33
52.800        27
52.810        27
52.820         7
52.830        13
52.840         7
52.850        20
52.860        33
52.870        27
52.880        20
52.890         0
52.900        20
52.910        13
52.920         0
52.930        13
52.940        20
52.950        13
52.960        13
52.970        27
52.980        13
52.990        13
53.000         7
53.010         7
53.020         0
53.030         7
53.040        33
53.050         7
53.060        40
53.070        13
53.080        33
53.090        13
53.100         7
53.110        20
53.120         7
53.130        13
53.140        40
53.150         7
53.160        53
53.170        20
53.180        27
53.190        13
53.200        20
53.210        40
53.220        20
53.230        33
53.240        27
53.250        27
53.260        27
53.270        13
53.280        20
53.290         7
53.300        13
53.310        13
53.320        13
53.330        20
53.340        20
53.350         7
53.360        20
53.370        40
53.380         7
53.390        13
53.400        47
53.410         7
53.420        13
53.430        20
53.440        20
53.450        20
53.460        20
53.470         7
53.480        40
53.490        27
53.500        27
53.510        13
53.520        20
53.530        27
53.540        20
53.550        20
53.560         7
53.570        20
53.580        13
53.590        40
53.600        20
53.610        40
53.620        20
53.630        13
53.640        20
53.650        20
53.660         7
53.670         7
53.680        27
53.690        27
53.700         7
53.710         7
53.720        20
53.730        13
53.740        13
53.750        20
53.760        27
53.770        20
53.780         0
53.790        20
53.800        27
53.810        27
53.820        20
53.830        13
53.840         7
53.850        13
53.860        27
53.870         7
53.880         7
53.890        13
53.900        20
53.910        40
53.920        27
53.930        27
53.940        33
53.950        13
53.960         7
53.970         7
53.980         7
53.990        13
54.000         7
54.010        47
54.020        20
54.030         0
54.040         7
54.050        13
54.060         7
54.070        27
54.080         0
54.090        20
54.100        13
54.110        13
54.120        13
54.130        20
54.140        13
54.150         0
54.160         7
54.170         7
54.180         0
54.190        20
54.200         7
54.210         7
54.220        33
54.230        13
54.240        20
54.250        27
54.260        33
54.270         7
54.280        20
54.290        13
54.300        20
54.310        13
54.320        40
54.330         7
54.340         0
54.350        33
54.360        33
54.370         7
54.380        13
54.390         7
54.400        13
54.410        20
54.420        20
54.430        13
54.440        13
54.450         7
54.460        33
54.470        20
54.480         0
54.490        20
54.500        13
54.510        20
54.520         7
54.530        13
54.540        40
54.550         0
54.560        27
54.570         7
54.580        20
54.590        13
54.600        27
54.610        33
54.620        13
54.630        27
54.640        20
54.650        13
54.660        20
54.670        13
54.680         7
54.690         7
54.700        33
54.710        13
54.720        27
54.730        13
54.740        20
54.750        27
54.760        13
54.770         7
54.780        33
54.790        13
54.800        27
54.810        33
54.820        33
54.830        13
54.840        20
54.850        27
54.860        13
54.870        27
54.880        40
54.890        20
54.900        20
54.910        33
54.920         7
54.930        33
54.940        27
54.950        47
54.960         7
54.970        20
54.980        20
54.990        33
55.000        33
55.010         7
55.020         0
55.030        20
55.040        13
55.050        13
55.060         0
55.070        20
55.080        13
55.090        40
55.100        13
55.110        20
55.120        20
55.130        20
55.140        13
55.150        33
55.160         7
55.170        20
55.180        27
55.190        20
55.200        47
55.210        40
55.220        20
55.230        13
55.240        13
55.250        20
55.260        20
55.270        27
55.280        20
55.290        27
55.300        33
55.310        13
55.320        33
55.330        13
55.340        20
55.350        13
55.360        33
55.370        33
55.380        13
55.390        13
55.400        27
55.410        40
55.420        27
55.430        47
55.440        33
55.450        13
55.460        13
55.470        13
55.480        13
55.490         7
55.500         0
55.510        20
55.520         0
55.530        33
55.540        20
55.550        47
55.560        27
55.570        33
55.580        33
55.590         7
55.600        20
55.610        13
55.620        20
55.630        20
55.640         7
55.650         7
55.660        27
55.670        27
55.680        33
55.690        40
55.700        20
55.710        33
55.720        13
55.730        47
55.740        47
55.750        40
55.760        60
55.770        53
55.780        27
55.790        33
55.800        60
55.810        20
55.820        47
55.830        40
55.840        40
55.850        40
55.860        40
55.870        40
55.880        93
55.890        87
55.900        40
55.910        47
55.920        27
55.930        33
55.940        60
55.950        53
55.960        20
55.970        53
55.980        60
55.990        47
56.000        33
56.010        40
56.020        33
56.030        27
56.040        47
56.050        53
56.060        40
56.070        93
56.080        60
56.090        60
56.100        27
56.110        33
56.120        40
56.130        47
56.140        53
56.150        73
56.160        60
56.170        53
56.180        47
56.190        27
56.200        27
56.210        60
56.220        67
56.230        33
56.240        47
56.250        20
56.260        53
56.270        40
56.280        53
56.290        20
56.300        47
56.310        60
56.320        60
56.330        40
56.340        20
56.350        33
56.360        60
56.370        20
56.380        27
56.390        33
56.400        67
56.410        33
56.420        27
56.430        13
56.440        33
56.450        33
56.460        33
56.470        20
56.480        27
56.490        27
56.500         7
56.510        20
56.520        33
56.530        40
56.540        20
56.550        13
56.560        20
56.570        13
56.580         0
56.590        27
56.600         7
56.610        13
56.620        27
56.630        20
56.640         0
56.650        27
56.660        27
56.670        20
56.680        33
56.690        20
56.700         7
56.710         7
56.720        20
56.730        13
56.740        33
56.750         7
56.760        20
56.770        40
56.780         7
56.790        13
56.800        27
56.810        13
56.820        47
56.830        47
56.840         7
56.850        13
56.860        47
56.870         7
56.880        20
56.890        33
56.900        20
56.910        27
56.920         7
56.930        13
56.940        27
56.950        27
56.960        27
56.970        27
56.980        33
56.990        33
57.000        47
57.010        20
57.020         7
57.030         7
57.040        27
57.050        27
57.060         7
57.070        60
57.080        27
57.090        27
57.100         0
57.110        13
57.120        27
57.130        33
57.140        20
57.150        13
57.160        13
57.170        13
57.180        20
57.190        27
57.200        27
57.210        27
57.220        33
57.230        20
57.240        40
57.250        33
57.260        47
57.270        13
57.280        47
57.290        27
57.300         7
57.310        33
57.320        33
57.330        40
57.340        40
57.350        53
57.360        40
57.370        40
57.380        47
57.390        73
57.400        20
57.410        27
57.420        20
57.430        53
57.440        60
57.450        73
57.460        87
57.470       153
57.480       127
57.490       133
57.500       153
57.510       127
57.520       113
57.530        87
57.540        93
57.550        60
57.560        33
57.570        80
57.580        40
57.590        27
57.600        67
57.610        80
57.620        47
57.630        40
57.640       120
57.650        67
57.660        87
57.670        53
57.680        67
57.690        33
57.700        33
57.710        47
57.720        33
57.730        27
57.740        27
57.750        47
57.760        27
57.770        27
57.780        27
57.790        27
57.800         7
57.810        13
57.820        20
57.830        13
57.840        47
57.850        27
57.860        13
57.870         7
57.880        13
57.890        20
57.900        40
57.910        13
57.920         7
57.930        20
57.940        53
57.950         7
57.960        27
57.970         7
57.980        20
57.990         7
58.000        40
58.010        47
58.020        40
58.030        20
58.040        27
58.050        13
58.060        27
58.070        13
58.080        40
58.090        40
58.100        13
58.110        13
58.120        33
58.130         7
58.140         7
58.150         0
58.160        13
58.170        20
58.180        40
58.190         7
58.200        47
58.210        33
58.220        27
58.230        27
58.240        20
58.250        13
58.260        20
58.270        20
58.280         7
58.290        13
58.300        27
58.310        13
58.320        13
58.330        33
58.340        20
58.350         7
58.360        20
58.370        33
58.380        20
58.390        27
58.400        40
58.410        20
58.420        33
58.430        20
58.440        27
58.450        20
58.460        13
58.470        27
58.480        20
58.490         7
58.500         7
58.510        20
58.520        20
58.530         7
58.540        20
58.550        47
58.560        20
58.570         7
58.580        13
58.590        33
58.600         7
58.610        20
58.620        20
58.630        27
58.640         7
58.650        13
58.660        13
58.670         0
58.680        33
58.690         7
58.700        33
58.710         0
58.720        13
58.730        20
58.740         7
58.750        27
58.760         7
58.770        13
58.780        27
58.790         7
58.800        47
58.810         7
58.820        27
58.830        27
58.840         7
58.850        40
58.860        13
58.870        20
58.880        20
58.890        13
58.900        20
58.910        13
58.920        20
58.930        13
58.940        27
58.950        20
58.960         0
58.970         0
58.980         7
58.990        20
59.000        20
59.010        20
59.020        20
59.030        40
59.040        13
59.050        13
59.060        20
59.070        13
59.080         7
59.090        13
59.100        33
59.110        13
59.120         7
59.130        13
59.140        13
59.150         7
59.160        20
59.170        13
59.180         0
59.190         7
59.200        13
59.210        13
59.220        20
59.230         7
59.240         7
59.250         7
59.260        27
59.270         7
59.280         7
59.290        33
59.300        13
59.310        20
59.320        13
59.330         7
59.340        20
59.350         7
59.360        20
59.370        20
59.380         7
59.390        27
59.400         0
59.410        27
59.420        13
59.430        13
59.440        20
59.450        33
59.460         7
59.470        27
59.480        27
59.490        40
59.500         0
59.510        13
59.520         7
59.530        20
59.540        13
59.550        13
59.560         7
59.570         7
59.580        13
59.590        33
59.600        40
59.610        40
59.620        13
59.630         0
59.640        20
59.650        33
59.660        40
59.670        13
59.680        33
59.690        13
59.700        27
59.710        27
59.720        13
59.730        13
59.740        13
59.750        20
59.760        27
59.770         7
59.780        27
59.790        13
59.800        20
59.810         0
59.820        13
59.830        27
59.840        20
59.850        20
59.860        33
59.870         7
59.880        27
59.890         0
59.900        13
59.910        20
59.920        27
59.930        40
59.940        20
59.950        20
59.960         0
59.970         0
59.980        13
59.990        13
60.000        13
