20.000       120
20.010        73
20.020        87
20.030        73
20.040       107
20.050        80
20.060       127
20.070        80
20.080       100
20.090       100
20.100       113
20.110        93
20.120       140
20.130       160
20.140        53
20.150       107
20.160       107
20.170       120
20.180        60
20.190        87
20.200        53
20.210        33
20.220        60
20.230        53
20.240        40
20.250        47
20.260        67
20.270       120
20.280        13
20.290        27
20.300        20
20.310        47
20.320        53
20.330        20
20.340        47
20.350        73
20.360        53
20.370        47
20.380        53
20.390        27
20.400        47
20.410        60
20.420        47
20.430        27
20.440        67
20.450         7
20.460        20
20.470        47
20.480        67
20.490        60
20.500        47
20.510        47
20.520        53
20.530        73
20.540        20
20.550        53
20.560        47
20.570        40
20.580        53
20.590        33
20.600        60
20.610        47
20.620        40
20.630        47
20.640        80
20.650        27
20.660        33
20.670        60
20.680        20
20.690        40
20.700        53
20.710        53
20.720        53
20.730        40
20.740        27
20.750        40
20.760        47
20.770        40
20.780        47
20.790        40
20.800        40
20.810        53
20.820        53
20.830        47
20.840        47
20.850        40
20.860        27
20.870        60
20.880        67
20.890        87
20.900        53
20.910        20
20.920        60
20.930        47
20.940        47
20.950        27
20.960        20
20.970        40
20.980        67
20.990        27
21.000        33
21.010        13
21.020        73
21.030        67
21.040        13
21.050        33
21.060        13
21.070        87
21.080        60
21.090        53
21.100        60
21.110        47
21.120        20
21.130        27
21.140        20
21.150        27
21.160        47
21.170        53
21.180        47
21.190        40
21.200        60
21.210        60
21.220        40
21.230        60
21.240        33
21.250        40
21.260        40
21.270        27
21.280        53
21.290        27
21.300        53
21.310        33
21.320        13
21.330        47
21.340        73
21.350        33
21.360        40
21.370        33
21.380        33
21.390        33
21.400        40
21.410        40
21.420        40
21.430        80
21.440        60
21.450        47
21.460        33
21.470        40
21.480        53
21.490        33
21.500        40
21.510        60
21.520        33
21.530        47
21.540        20
21.550        27
21.560        20
21.570        40
21.580        53
21.590        13
21.600        20
21.610        27
21.620        40
21.630        33
21.640        33
21.650        80
21.660        60
21.670        47
21.680        47
21.690        53
21.700        53
21.710        87
21.720        20
21.730        20
21.740        73
21.750        27
21.760        53
21.770        60
21.780        53
21.790        47
21.800        47
21.810        60
21.820        33
21.830        20
21.840        33
21.850        40
21.860        47
21.870        40
21.880        40
21.890        53
21.900       100
21.910        53
21.920        33
21.930        40
21.940        33
21.950        67
21.960        33
21.970        53
21.980        47
21.990        67
22.000        40
22.010        53
22.020        27
22.030        67
22.040        27
22.050        53
22.060        80
22.070        40
22.080        87
22.090        53
22.100       107
22.110        60
22.120        47
22.130        67
22.140        73
22.150        73
22.160        80
22.170        93
22.180        87
22.190       120
22.200       140
22.210        93
22.220       100
22.230       120
22.240       160
22.250       127
22.260       133
22.270       113
22.280       147
22.290       233
22.300       247
22.310       233
22.320       260
22.330       267
22.340       253
22.350       426
22.360       320
22.370       373
22.380       420
22.390       553
22.400       753
22.410       626
22.420       773
22.430       866
22.440       786
22.450       853
22.460       833
22.470       833
22.480       780
22.490       886
22.500       640
22.510       546
22.520       606
22.530       560
22.540       407
22.550       393
22.560       400
22.570       307
22.580       273
22.590       293
22.600       227
22.610       147
22.620        93
22.630       160
22.640       113
22.650       127
22.660       140
22.670       107
22.680       133
22.690        93
22.700        73
22.710        53
22.720        67
22.730        60
22.740        67
22.750        53
22.760        60
22.770        33
22.780        20
22.790        47
22.800        60
22.810        40
22.820        73
22.830        80
22.840        53
22.850        60
22.860       107
22.870        80
22.880       127
22.890        73
22.900        73
22.910       100
22.920        60
22.930        67
22.940       100
22.950        67
22.960        93
22.970       107
22.980        73
22.990       113
23.000        67
23.010        53
23.020        27
23.030        93
23.040        60
23.050        67
23.060        73
23.070        47
23.080        80
23.090        47
23.100        47
23.110        47
23.120        53
23.130        47
23.140        60
23.150        73
23.160        93
23.170        47
23.180        20
23.190        20
23.200        40
23.210        40
23.220        13
23.230        67
23.240        40
23.250        53
23.260        67
23.270        67
23.280        53
23.290        33
23.300        20
23.310        67
23.320        33
23.330        47
23.340        33
23.350        47
23.360        47
23.370        47
23.380        60
23.390        53
23.400        40
23.410        40
23.420        73
23.430        27
23.440        20
23.450        33
23.460        27
23.470        27
23.480        27
23.490        27
23.500        60
23.510        53
23.520        53
23.530        53
23.540        60
23.550        13
23.560        60
23.570        47
23.580        53
23.590        27
23.600        60
23.610        60
23.620        40
23.630        33
23.640        27
23.650        33
23.660        60
23.670        47
23.680         7
23.690        60
23.700        87
23.710        67
23.720        40
23.730        73
23.740        40
23.750        33
23.760         7
23.770        40
23.780        40
23.790        33
23.800        27
23.810        27
23.820        47
23.830        47
23.840        53
23.850        40
23.860        33
23.870        40
23.880        47
23.890        20
23.900        27
23.910        40
23.920        60
23.930        53
23.940        27
23.950        73
23.960        33
23.970        40
23.980         7
23.990        53
24.000        47
24.010        47
24.020        40
24.030        33
24.040        40
24.050        33
24.060        47
24.070        27
24.080        33
24.090        67
24.100        33
24.110        33
24.120        53
24.130        33
24.140        27
24.150        47
24.160        13
24.170        53
24.180        20
24.190        47
24.200        53
24.210        40
24.220        33
24.230        20
24.240        53
24.250        40
24.260        40
24.270        40
24.280        47
24.290        13
24.300        20
24.310        53
24.320        13
24.330        27
24.340        33
24.350        40
24.360        40
24.370        40
24.380        33
24.390        60
24.400        33
24.410        20
24.420        40
24.430        20
24.440        20
24.450        40
24.460        27
24.470        47
24.480        47
24.490        47
24.500        27
24.510        47
24.520        47
24.530        33
24.540        20
24.550        27
24.560        20
24.570        47
24.580        53
24.590        47
24.600        27
24.610        73
24.620        53
24.630        47
24.640        13
24.650        20
24.660        47
24.670        53
24.680        53
24.690        47
24.700        67
24.710        47
24.720        40
24.730        40
24.740        87
24.750        33
24.760        27
24.770        27
24.780        67
24.790        33
24.800        33
24.810        27
24.820        20
24.830        60
24.840        27
24.850        87
24.860        27
24.870        47
24.880        47
24.890        53
24.900        60
24.910        53
24.920        87
24.930        53
24.940        13
24.950        73
24.960        80
24.970        27
24.980        27
24.990        60
25.000        53
25.010        60
25.020        47
25.030        80
25.040        73
25.050        33
25.060        53
25.070        80
25.080        47
25.090        27
25.100        67
25.110        73
25.120        60
25.130        67
25.140       100
25.150        80
25.160       127
25.170        87
25.180        60
25.190       120
25.200        80
25.210        60
25.220       100
25.230        73
25.240        60
25.250        93
25.260        87
25.270        93
25.280        80
25.290        67
25.300        47
25.310       113
25.320        67
25.330        73
25.340        67
25.350       107
25.360        47
25.370        47
25.380        53
25.390        53
25.400        67
25.410        80
25.420       107
25.430        87
25.440        80
25.450        87
25.460       100
25.470        93
25.480       127
25.490       133
25.500       153
25.510       120
25.520       100
25.530       167
25.540       140
25.550       193
25.560       247
25.570       307
25.580       227
25.590       253
25.600       213
25.610       340
25.620       380
25.630       313
25.640       373
25.650       480
25.660       600
25.670       533
25.680       606
25.690       646
25.700       626
25.710       640
25.720       626
25.730       700
25.740       560
25.750       453
25.760       400
25.770       433
25.780       373
25.790       273
25.800       253
25.810       200
25.820       173
25.830       140
25.840       140
25.850       147
25.860       100
25.870       153
25.880        53
25.890        87
25.900        80
25.910       100
25.920        87
25.930        67
25.940        27
25.950        60
25.960        60
25.970        60
25.980        33
25.990        53
26.000        53
26.010        80
26.020        80
26.030        53
26.040        53
26.050        53
26.060        20
26.070        40
26.080        27
26.090        27
26.100        73
26.110        47
26.120        27
26.130        47
26.140        53
26.150        67
26.160        40
26.170        33
26.180        53
26.190        53
26.200        53
26.210        47
26.220        60
26.230        40
26.240        27
26.250        33
26.260        20
26.270        40
26.280        33
26.290        20
26.300        33
26.310        20
26.320        20
26.330        27
26.340        20
26.350        20
26.360        20
26.370        33
26.380        53
26.390        27
26.400        33
26.410        40
26.420        13
26.430        47
26.440        53
26.450        20
26.460        27
26.470        47
26.480        40
26.490         0
26.500        20
26.510        67
26.520        27
26.530        33
26.540        33
26.550        27
26.560        27
26.570        67
26.580        27
26.590        27
26.600         7
26.610        20
26.620        13
26.630        13
26.640        40
26.650        20
26.660        40
26.670        20
26.680        47
26.690        53
26.700        27
26.710        33
26.720        33
26.730        20
26.740        27
26.750        27
26.760        40
26.770        20
26.780        73
26.790        20
26.800        53
26.810        27
26.820        33
26.830        20
26.840        33
26.850        20
26.860        33
26.870        20
26.880        40
26.890        20
26.900        27
26.910        27
26.920        40
26.930        20
26.940        13
26.950        27
26.960        40
26.970        33
26.980        20
26.990        13
27.000        27
27.010        33
27.020        27
27.030        27
27.040        47
27.050         7
27.060        53
27.070        13
27.080        33
27.090        73
27.100        27
27.110         7
27.120        13
27.130        33
27.140        60
27.150        20
27.160        40
27.170        53
27.180        47
27.190        13
27.200        40
27.210        27
27.220        33
27.230        20
27.240        27
27.250        33
27.260        53
27.270        47
27.280        40
27.290        53
27.300         7
27.310        33
27.320        13
27.330        60
27.340        40
27.350        40
27.360        47
27.370        20
27.380        27
27.390        20
27.400        27
27.410        27
27.420        47
27.430        27
27.440        27
27.450        13
27.460        53
27.470        27
27.480        40
27.490        67
27.500        53
27.510        27
27.520        33
27.530        47
27.540        47
27.550        33
27.560        47
27.570        53
27.580        20
27.590        93
27.600        67
27.610        53
27.620        60
27.630        40
27.640        40
27.650        73
27.660        40
27.670        60
27.680        93
27.690        53
27.700        40
27.710        13
27.720        47
27.730        13
27.740        53
27.750        67
27.760        27
27.770        40
27.780        20
27.790        20
27.800        47
27.810        20
27.820        33
27.830        33
27.840        20
27.850        60
27.860        20
27.870        20
27.880        67
27.890         0
27.900        47
27.910        53
27.920        27
27.930        40
27.940        53
27.950        20
27.960        33
27.970         0
27.980        53
27.990        47
28.000        27
28.010        13
28.020        20
28.030        47
28.040        27
28.050        53
28.060        67
28.070        20
28.080        33
28.090        20
28.100        80
28.110        53
28.120        53
28.130        40
28.140        53
28.150        40
28.160        60
28.170        60
28.180        53
28.190        33
28.200        60
28.210        40
28.220        47
28.230        47
28.240        80
28.250        73
28.260        47
28.270        60
28.280        33
28.290        40
28.300        60
28.310        60
28.320        47
28.330        60
28.340        53
28.350        60
28.360        60
28.370        53
28.380        33
28.390        53
28.400        93
28.410        60
28.420        73
28.430        40
28.440        67
28.450        13
28.460        20
28.470        33
28.480        27
28.490        53
28.500        53
28.510        20
28.520        20
28.530        53
28.540        33
28.550        27
28.560        33
28.570        40
28.580        40
28.590         7
28.600        40
28.610        53
28.620        27
28.630        33
28.640        33
28.650        47
28.660        80
28.670       100
28.680        60
28.690        40
28.700        53
28.710        80
28.720        67
28.730        53
28.740        67
28.750        20
28.760        67
28.770        33
28.780        87
28.790        73
28.800        80
28.810        60
28.820        73
28.830       120
28.840       140
28.850        93
28.860       113
28.870       107
28.880        93
28.890       160
28.900       107
28.910       160
28.920       187
28.930       233
28.940       187
28.950       233
28.960       293
28.970       333
28.980       347
28.990       353
29.000       486
29.010       460
29.020       473
29.030       693
29.040       560
29.050       786
29.060       820
29.070       940
29.080      1026
29.090       893
29.100       873
29.110       940
29.120       686
29.130       720
29.140       560
29.150       620
29.160       553
29.170       520
29.180       407
29.190       413
29.200       267
29.210       300
29.220       167
29.230       187
29.240       167
29.250       160
29.260        93
29.270       153
29.280       140
29.290       120
29.300       100
29.310       160
29.320        87
29.330       100
29.340        60
29.350       147
29.360       100
29.370       113
29.380       113
29.390       127
29.400        93
29.410       107
29.420       127
29.430       233
29.440       127
29.450       200
29.460       193
29.470       173
29.480       180
29.490       167
29.500       233
29.510       233
29.520       267
29.530       260
29.540       293
29.550       213
29.560       280
29.570       227
29.580       193
29.590       193
29.600       240
29.610       247
29.620       200
29.630       200
29.640       187
29.650       127
29.660       107
29.670        93
29.680       100
29.690        53
29.700       107
29.710       107
29.720        40
29.730        33
29.740        33
29.750        60
29.760        67
29.770        87
29.780        20
29.790         7
29.800        33
29.810        40
29.820        33
29.830        33
29.840        47
29.850        13
29.860        27
29.870        40
29.880        47
29.890        40
29.900        73
29.910        53
29.920        53
29.930        33
29.940        47
29.950        13
29.960        27
29.970        33
29.980        33
29.990        27
30.000        33
30.010        40
30.020        40
30.030        60
30.040        40
30.050        53
30.060        47
30.070        80
30.080        33
30.090        67
30.100        93
30.110        73
30.120        73
30.130        87
30.140        67
30.150        73
30.160       127
30.170        93
30.180       160
30.190       180
30.200       167
30.210       240
30.220       213
30.230       187
30.240       267
30.250       313
30.260       333
30.270       393
30.280       440
30.290       466
30.300       500
30.310       580
30.320       473
30.330       560
30.340       606
30.350       686
30.360       720
30.370       520
30.380       600
30.390       566
30.400       560
30.410       526
30.420       453
30.430       347
30.440       353
30.450       373
30.460       300
30.470       233
30.480       207
30.490       207
30.500       133
30.510       140
30.520        80
30.530        73
30.540        67
30.550       107
30.560        93
30.570        53
30.580        93
30.590        67
30.600        47
30.610        53
30.620        80
30.630        53
30.640        60
30.650        40
30.660        40
30.670        40
30.680        40
30.690        33
30.700        20
30.710        27
30.720        40
30.730        27
30.740        40
30.750        87
30.760        53
30.770        47
30.780        40
30.790        40
30.800        27
30.810        73
30.820        47
30.830        47
30.840        27
30.850        47
30.860        33
30.870        33
30.880        53
30.890        33
30.900        73
30.910        40
30.920        80
30.930        33
30.940        33
30.950        27
30.960        33
30.970        47
30.980        27
30.990        13
31.000        40
31.010        47
31.020        33
31.030        47
31.040        33
31.050        27
31.060        33
31.070        27
31.080        13
31.090        33
31.100        67
31.110        20
31.120        47
31.130        60
31.140        27
31.150        67
31.160        33
31.170        60
31.180        53
31.190        27
31.200        67
31.210        40
31.220        47
31.230        27
31.240        47
31.250        40
31.260        67
31.270        47
31.280        47
31.290        47
31.300        47
31.310        40
31.320        40
31.330        87
31.340        27
31.350        33
31.360        93
31.370        27
31.380        73
31.390        40
31.400        47
31.410       127
31.420        67
31.430        80
31.440       100
31.450        87
31.460        73
31.470        80
31.480        73
31.490       140
31.500       107
31.510        73
31.520       133
31.530       193
31.540       147
31.550       147
31.560       227
31.570       187
31.580       153
31.590       153
31.600       227
31.610       167
31.620       187
31.630       247
31.640       227
31.650       247
31.660       220
31.670       127
31.680       200
31.690       200
31.700       280
31.710       227
31.720       213
31.730       193
31.740       193
31.750       207
31.760       200
31.770       113
31.780       153
31.790       120
31.800       107
31.810        87
31.820       100
31.830       120
31.840        87
31.850       140
31.860        53
31.870        73
31.880        73
31.890       100
31.900       107
31.910        67
31.920       113
31.930       120
31.940        93
31.950       133
31.960       100
31.970       200
31.980       133
31.990       133
32.000       180
32.010       260
32.020       147
32.030       180
32.040       220
32.050       220
32.060       213
32.070       153
32.080       233
32.090       287
32.100       280
32.110       247
32.120       173
32.130       200
32.140       180
32.150       147
32.160       133
32.170       100
32.180       120
32.190        87
32.200       107
32.210       107
32.220        80
32.230       100
32.240        67
32.250        40
32.260        67
32.270        60
32.280        47
32.290        33
32.300        53
32.310        40
32.320        40
32.330        33
32.340        20
32.350        60
32.360        47
32.370        53
32.380        47
32.390        53
32.400        33
32.410        40
32.420        40
32.430        27
32.440        33
32.450        33
32.460        33
32.470        47
32.480        20
32.490        20
32.500        33
32.510        27
32.520        53
32.530        67
32.540        47
32.550        80
32.560        60
32.570        27
32.580        73
32.590        53
32.600        80
32.610        33
32.620        80
32.630        73
32.640        53
32.650        67
32.660        87
32.670        47
32.680        67
32.690        73
32.700        67
32.710        47
32.720        80
32.730        67
32.740        80
32.750        20
32.760        60
32.770        53
32.780        60
32.790        53
32.800        47
32.810        40
32.820        40
32.830        20
32.840        20
32.850        40
32.860        33
32.870        27
32.880        53
32.890        47
32.900        47
32.910        27
32.920        67
32.930        13
32.940        27
32.950        27
32.960        20
32.970        33
32.980        20
32.990        27
33.000        20
33.010        53
33.020        40
33.030        20
33.040        40
33.050        20
33.060        27
33.070        33
33.080        20
33.090        20
33.100         0
33.110        47
33.120        27
33.130        53
33.140        27
33.150        60
33.160        13
33.170        33
33.180        27
33.190        53
33.200        27
33.210        33
33.220        13
33.230        20
33.240        20
33.250        33
33.260        20
33.270        13
33.280        33
33.290        27
33.300        33
33.310        27
33.320        40
33.330         7
33.340         7
33.350        47
33.360        53
33.370        20
33.380        47
33.390        20
33.400        47
33.410        27
33.420        27
33.430        27
33.440        47
33.450         7
33.460        13
33.470        27
33.480        33
33.490        20
33.500        27
33.510        27
33.520        20
33.530        20
33.540        47
33.550        53
33.560         7
33.570        20
33.580        27
33.590        13
33.600        20
33.610        27
33.620        20
33.630        27
33.640        13
33.650        13
33.660        20
33.670        27
33.680        13
33.690        27
33.700        40
33.710        20
33.720        33
33.730        20
33.740        33
33.750        20
33.760        13
33.770        20
33.780         0
33.790        20
33.800        20
33.810        27
33.820        27
33.830         7
33.840        47
33.850        13
33.860        13
33.870        13
33.880        13
33.890        13
33.900        13
33.910        27
33.920        13
33.930        27
33.940         7
33.950         7
33.960        27
33.970        27
33.980        20
33.990        60
34.000        20
34.010        20
34.020        27
34.030        13
34.040        13
34.050        27
34.060        47
34.070        27
34.080        27
34.090         7
34.100        13
34.110        47
34.120        40
34.130        20
34.140        13
34.150        33
34.160        33
34.170        13
34.180        33
34.190        20
34.200        27
34.210        33
34.220        20
34.230        13
34.240        13
34.250        27
34.260         7
34.270         0
34.280        33
34.290        13
34.300        40
34.310        13
34.320        13
34.330        33
34.340        47
34.350        27
34.360        20
34.370        67
34.380        27
34.390        47
34.400        13
34.410        20
34.420        53
34.430        33
34.440        27
34.450        40
34.460        20
34.470        27
34.480         7
34.490        20
34.500        33
34.510        33
34.520         7
34.530        33
34.540         7
34.550        13
34.560        40
34.570        47
34.580        47
34.590        13
34.600        20
34.610        20
34.620         7
34.630        33
34.640        20
34.650        27
34.660        60
34.670        27
34.680         7
34.690        13
34.700        20
34.710        27
34.720        33
34.730        47
34.740         7
34.750        40
34.760        40
34.770        27
34.780        27
34.790        13
34.800        13
34.810        20
34.820        27
34.830        33
34.840        20
34.850        33
34.860        20
34.870        33
34.880        33
34.890        13
34.900        13
34.910        13
34.920        27
34.930        20
34.940        27
34.950        20
34.960        27
34.970        27
34.980        20
34.990        20
35.000        33
35.010        20
35.020        33
35.030        20
35.040        27
35.050        13
35.060        27
35.070         7
35.080        33
35.090        20
35.100         7
35.110        27
35.120        27
35.130        33
35.140        13
35.150        27
35.160        20
35.170        33
35.180        27
35.190        20
35.200        27
35.210        40
35.220        27
35.230        20
35.240        33
35.250        40
35.260        13
35.270        13
35.280        27
35.290        20
35.300        20
35.310        20
35.320        27
35.330        13
35.340         7
35.350        20
35.360        27
35.370        40
35.380        13
35.390        20
35.400        13
35.410        20
35.420        20
35.430        20
35.440        53
35.450         7
35.460        27
35.470        40
35.480        20
35.490        27
35.500        13
35.510        27
35.520        13
35.530        20
35.540        33
35.550        33
35.560        13
35.570        20
35.580        27
35.590        20
35.600        20
35.610        13
35.620        13
35.630        47
35.640        27
35.650        20
35.660        27
35.670        20
35.680        33
35.690        27
35.700        20
35.710        27
35.720        13
35.730        20
35.740        40
35.750        13
35.760        20
35.770         7
35.780        13
35.790        33
35.800        20
35.810        20
35.820        13
35.830        20
35.840        20
35.850        20
35.860        33
35.870        13
35.880        20
35.890        33
35.900        33
35.910        13
35.920         7
35.930         7
35.940        40
35.950         7
35.960         7
35.970        13
35.980        33
35.990        20
36.000        20
36.010        27
36.020         0
36.030        33
36.040        47
36.050        27
36.060        33
36.070        27
36.080        40
36.090        27
36.100         7
36.110        47
36.120        53
36.130        33
36.140         7
36.150         0
36.160        20
36.170        33
36.180        13
36.190        47
36.200        33
36.210        27
36.220        40
36.230        20
36.240        40
36.250        27
36.260        47
36.270        20
36.280        20
36.290        27
36.300        40
36.310        60
36.320        67
36.330        13
36.340        33
36.350        40
36.360        60
36.370        73
36.380        80
36.390        80
36.400        67
36.410        60
36.420        93
36.430        53
36.440        53
36.450        73
36.460        73
36.470        33
36.480        80
36.490         7
36.500        53
36.510       100
36.520        40
36.530        47
36.540        53
36.550        20
36.560        33
36.570        40
36.580        33
36.590        40
36.600        27
36.610        33
36.620        20
36.630        33
36.640        33
36.650        20
36.660         7
36.670        20
36.680         7
36.690        27
36.700        13
36.710        27
36.720         7
36.730        20
36.740        40
36.750        20
36.760        20
36.770        47
36.780         7
36.790        53
36.800         7
36.810        33
36.820        20
36.830        13
36.840        53
36.850         7
36.860        13
36.870        20
36.880        27
36.890        13
36.900         7
36.910        27
36.920        33
36.930         7
36.940        47
36.950         0
36.960        13
36.970        13
36.980        40
36.990        27
37.000        13
37.010        20
37.020        40
37.030        13
37.040        13
37.050        27
37.060        47
37.070         0
37.080        20
37.090         0
37.100        20
37.110        20
37.120         7
37.130         7
37.140        27
37.150        13
37.160         7
37.170        60
37.180        20
37.190        27
37.200        13
37.210         0
37.220        13
37.230        47
37.240        33
37.250        47
37.260        20
37.270        20
37.280         7
37.290         7
37.300        33
37.310        40
37.320        20
37.330         7
37.340        20
37.350        13
37.360        33
37.370        20
37.380        20
37.390        27
37.400        27
37.410        33
37.420        13
37.430         7
37.440        13
37.450        13
37.460         7
37.470        13
37.480         7
37.490         7
37.500        13
37.510        60
37.520         7
37.530        33
37.540        13
37.550        20
37.560        40
37.570        13
37.580        33
37.590        40
37.600        47
37.610        27
37.620        20
37.630        33
37.640        33
37.650        47
37.660        40
37.670        33
37.680        20
37.690        40
37.700        27
37.710        27
37.720        27
37.730        33
37.740        53
37.750        47
37.760        20
37.770        40
37.780        27
37.790        33
37.800         0
37.810        20
37.820        47
37.830        40
37.840        27
37.850         7
37.860        13
37.870        33
37.880        13
37.890         7
37.900        47
37.910        13
37.920        20
37.930        13
37.940        13
37.950        13
37.960        20
37.970         7
37.980         7
37.990        47
38.000        20
38.010        33
38.020        20
38.030        20
38.040        13
38.050        47
38.060        13
38.070        13
38.080        33
38.090        13
38.100        13
38.110        20
38.120        27
38.130        27
38.140         0
38.150        20
38.160        40
38.170        20
38.180        27
38.190         7
38.200         0
38.210        13
38.220         7
38.230        20
38.240        60
38.250        13
38.260        27
38.270        40
38.280        33
38.290         7
38.300        20
38.310        13
38.320        40
38.330        20
38.340        60
38.350        33
38.360        27
38.370        40
38.380        13
38.390        40
38.400        53
38.410        40
38.420        40
38.430        13
38.440        27
38.450        33
38.460        33
38.470        20
38.480         7
38.490        20
38.500        13
38.510        40
38.520        33
38.530        13
38.540        20
38.550        13
38.560        40
38.570        20
38.580        27
38.590        33
38.600        20
38.610         7
38.620        40
38.630        33
38.640        27
38.650        33
38.660        13
38.670        33
38.680        47
38.690        20
38.700        33
38.710        27
38.720        40
38.730        33
38.740        33
38.750        27
38.760        20
38.770        40
38.780        47
38.790        13
38.800        13
38.810        27
38.820        33
38.830        80
38.840        53
38.850        13
38.860        33
38.870        60
38.880        20
38.890        60
38.900        53
38.910        27
38.920        47
38.930        73
38.940        33
38.950        60
38.960        47
38.970        53
38.980        33
38.990        20
39.000        13
39.010         0
39.020        20
39.030        33
39.040        20
39.050        33
39.060        13
39.070        20
39.080         0
39.090        20
39.100        40
39.110         7
39.120        40
39.130        13
39.140        13
39.150        40
39.160        20
39.170         7
39.180        33
39.190        33
39.200        13
39.210        20
39.220        53
39.230        40
39.240        27
39.250        27
39.260        27
39.270        13
39.280        13
39.290        60
39.300        13
39.310        33
39.320        33
39.330        33
39.340         7
39.350        13
39.360        27
39.370        27
39.380        33
39.390        13
39.400         0
39.410        13
39.420        27
39.430        27
39.440        27
39.450        20
39.460         7
39.470        33
39.480        27
39.490         0
39.500        33
39.510        20
39.520        27
39.530        40
39.540         7
39.550         7
39.560        13
39.570         7
39.580        27
39.590        13
39.600        13
39.610        27
39.620        40
39.630        20
39.640        47
39.650        27
39.660        27
39.670        27
39.680         7
39.690        20
39.700         7
39.710        33
39.720        20
39.730         7
39.740        20
39.750        20
39.760         7
39.770        13
39.780        20
39.790         7
39.800        20
39.810        33
39.820        40
39.830        13
39.840        33
39.850        33
39.860        33
39.870        27
39.880         7
39.890        40
39.900        40
39.910        20
39.920         7
39.930        47
39.940        13
39.950         7
39.960         0
39.970        33
39.980        20
39.990        27
40.000         0
40.010         7
40.020        20
40.030        27
40.040        20
40.050        53
40.060        60
40.070        27
40.080        27
40.090        20
40.100        13
40.110        13
40.120        20
40.130        33
40.140        33
40.150        27
40.160        33
40.170        33
40.180        40
40.190        33
40.200        13
40.210        20
40.220        20
40.230        33
40.240        33
40.250        47
40.260        33
40.270        13
40.280        40
40.290        40
40.300        53
40.310        27
40.320        60
40.330        27
40.340        33
40.350        40
40.360        67
40.370        27
40.380        80
40.390        53
40.400        40
40.410        67
40.420        27
40.430        33
40.440        33
40.450        33
40.460        60
40.470        33
40.480        67
40.490         7
40.500        40
40.510        27
40.520        47
40.530        20
40.540        33
40.550        33
40.560        53
40.570        40
40.580        33
40.590        60
40.600        33
40.610        13
40.620        20
40.630        27
40.640        20
40.650         7
40.660         7
40.670        13
40.680        13
40.690        20
40.700        27
40.710         7
40.720         7
40.730         7
40.740        20
40.750        20
40.760        33
40.770        33
40.780        20
40.790        13
40.800         0
40.810        20
40.820        27
40.830        33
40.840        13
40.850        27
40.860        40
40.870        20
40.880        33
40.890        27
40.900        60
40.910        27
40.920        13
40.930        33
40.940        13
40.950        13
40.960        27
40.970         7
40.980        47
40.990         7
41.000         7
41.010         7
41.020         7
41.030        27
41.040        47
41.050        33
41.060        20
41.070        27
41.080        33
41.090        13
41.100        20
41.110        40
41.120        13
41.130        27
41.140        13
41.150        20
41.160         7
41.170        33
41.180        20
41.190         0
41.200        20
41.210         7
41.220         7
41.230        13
41.240        13
41.250        60
41.260        20
41.270         7
41.280        13
41.290        13
41.300        33
41.310        13
41.320         7
41.330        27
41.340         7
41.350         0
41.360         7
41.370        13
41.380        27
41.390        33
41.400        13
41.410        20
41.420         7
41.430        13
41.440        40
41.450        33
41.460        13
41.470        13
41.480        40
41.490         7
41.500        20
41.510        27
41.520        20
41.530        20
41.540        13
41.550        33
41.560        27
41.570        20
41.580        13
41.590        27
41.600         7
41.610        27
41.620        27
41.630        20
41.640        13
41.650         7
41.660        27
41.670        27
41.680        13
41.690        40
41.700        13
41.710        13
41.720        40
41.730         0
41.740        20
41.750        20
41.760        13
41.770        27
41.780        33
41.790        27
41.800        13
41.810        27
41.820        33
41.830        27
41.840         7
41.850        13
41.860        13
41.870        20
41.880        27
41.890        20
41.900        20
41.910        20
41.920        27
41.930        33
41.940        27
41.950        27
41.960        20
41.970        33
41.980        47
41.990        27
42.000        33
42.010        53
42.020        33
42.030        67
42.040        87
42.050        47
42.060        67
42.070        87
42.080       113
42.090        73
42.100        80
42.110        60
42.120       133
42.130        47
42.140       113
42.150        87
42.160       107
42.170        87
42.180       147
42.190       153
42.200       120
42.210       100
42.220       160
42.230       133
42.240       187
42.250       140
42.260       167
42.270       127
42.280        60
42.290       133
42.300       107
42.310       100
42.320       167
42.330        87
42.340       107
42.350       100
42.360        80
42.370        67
42.380        47
42.390        67
42.400        73
42.410        53
42.420        47
42.430        80
42.440        33
42.450        47
42.460        33
42.470        40
42.480        27
42.490        47
42.500         0
42.510        20
42.520         7
42.530        33
42.540        27
42.550        40
42.560        13
42.570        47
42.580        33
42.590        13
42.600        47
42.610        13
42.620        20
42.630        20
42.640        13
42.650         7
42.660        27
42.670        33
42.680        13
42.690        13
42.700        33
42.710        27
42.720         0
42.730        20
42.740        20
42.750        20
42.760        20
42.770         0
42.780        20
42.790        27
42.800        20
42.810        27
42.820        27
42.830        33
42.840        20
42.850        20
42.860        20
42.870         0
42.880        20
42.890        20
42.900        33
42.910        27
42.920        27
42.930        13
42.940        20
42.950        33
42.960         0
42.970        20
42.980        27
42.990        53
43.000        13
43.010        13
43.020        53
43.030        40
43.040        20
43.050        27
43.060         7
43.070        33
43.080         7
43.090        33
43.100        13
43.110        33
43.120        20
43.130        13
43.140        13
43.150        13
43.160        33
43.170        33
43.180         0
43.190         7
43.200        20
43.210        40
43.220        27
43.230        13
43.240         0
43.250        13
43.260        13
43.270        13
43.280         7
43.290         7
43.300        40
43.310        13
43.320        13
43.330        33
43.340        33
43.350        20
43.360        20
43.370        20
43.380        13
43.390         7
43.400        20
43.410         7
43.420        33
43.430        13
43.440        47
43.450        13
43.460         0
43.470        27
43.480         7
43.490        27
43.500        33
43.510        20
43.520         7
43.530        27
43.540        13
43.550         7
43.560        27
43.570        20
43.580         7
43.590        13
43.600        40
43.610        27
43.620        13
43.630        13
43.640        20
43.650        27
43.660        13
43.670        40
43.680        13
43.690        27
43.700         7
43.710        20
43.720        20
43.730        13
43.740        47
43.750        27
43.760        27
43.770        20
43.780        40
43.790         7
43.800        13
43.810        20
43.820        27
43.830         7
43.840        47
43.850        13
43.860        13
43.870        13
43.880        13
43.890        13
43.900        33
43.910        20
43.920        13
43.930        40
43.940         7
43.950        27
43.960         7
43.970        40
43.980         7
43.990        20
44.000        60
44.010        20
44.020        40
44.030        13
44.040         0
44.050         7
44.060        27
44.070        47
44.080         7
44.090        13
44.100        20
44.110        20
44.120         0
44.130        27
44.140        13
44.150        20
44.160        27
44.170        27
44.180        33
44.190        27
44.200        47
44.210        27
44.220        47
44.230        40
44.240        27
44.250        60
44.260        47
44.270        40
44.280        53
44.290        20
44.300        47
44.310        47
44.320        53
44.330        80
44.340        53
44.350        47
44.360        73
44.370        53
44.380        60
44.390        47
44.400        53
44.410        67
44.420        40
44.430        40
44.440        47
44.450        27
44.460        53
44.470        47
44.480        27
44.490        13
44.500        20
44.510        33
44.520        40
44.530        47
44.540        20
44.550        33
44.560        27
44.570        13
44.580         7
44.590        13
44.600        13
44.610        27
44.620        20
44.630        27
44.640        27
44.650        20
44.660        27
44.670        40
44.680        13
44.690        33
44.700        27
44.710        13
44.720         7
44.730         0
44.740        20
44.750        20
44.760        20
44.770        33
44.780        53
44.790        20
44.800        27
44.810        13
44.820        47
44.830         7
44.840        20
44.850        20
44.860        47
44.870         7
44.880        20
44.890        13
44.900         7
44.910        13
44.920        20
44.930        20
44.940        27
44.950        33
44.960        47
44.970        27
44.980        20
44.990        40
45.000        20
45.010         7
45.020        20
45.030        33
45.040         0
45.050        40
45.060        27
45.070        13
45.080        27
45.090         7
45.100        20
45.110        13
45.120        20
45.130        13
45.140        13
45.150        27
45.160         0
45.170        20
45.180        33
45.190         7
45.200        20
45.210        20
45.220        20
45.230        20
45.240        13
45.250        20
45.260        20
45.270         7
45.280        13
45.290        40
45.300         7
45.310         7
45.320        33
45.330         7
45.340        33
45.350        13
45.360        33
45.370         7
45.380         0
45.390        20
45.400        27
45.410         7
45.420         7
45.430        33
45.440        13
45.450        20
45.460        33
45.470         0
45.480        20
45.490        20
45.500        40
45.510        27
45.520        20
45.530        13
45.540        13
45.550         7
45.560        40
45.570        53
45.580        33
45.590        20
45.600        27
45.610        27
45.620        20
45.630         0
45.640        20
45.650        47
45.660        73
45.670        27
45.680        33
45.690        60
45.700        33
45.710        73
45.720        67
45.730        87
45.740       100
45.750       113
45.760       113
45.770       153
45.780        87
45.790       133
45.800       120
45.810       160
45.820       153
45.830       127
45.840       307
45.850       200
45.860       227
45.870       267
45.880       267
45.890       300
45.900       267
45.910       347
45.920       260
45.930       240
45.940       267
45.950       347
45.960       247
45.970       267
45.980       293
45.990       220
46.000       233
46.010       193
46.020       213
46.030       167
46.040       220
46.050       193
46.060       193
46.070       227
46.080       207
46.090       240
46.100       160
46.110       233
46.120       180
46.130       167
46.140       127
46.150       200
46.160       167
46.170       153
46.180       147
46.190       100
46.200        80
46.210       120
46.220       127
46.230       127
46.240        60
46.250       120
46.260        93
46.270        80
46.280        80
46.290        93
46.300        80
46.310        67
46.320        67
46.330        67
46.340        40
46.350        93
46.360        87
46.370        67
46.380        47
46.390        33
46.400        27
46.410        47
46.420        40
46.430        47
46.440        60
46.450        33
46.460        27
46.470        73
46.480        47
46.490        20
46.500        47
46.510        33
46.520        87
46.530        20
46.540        53
46.550        27
46.560        33
46.570        40
46.580        40
46.590        67
46.600        20
46.610        53
46.620        40
46.630        27
46.640        40
46.650        27
46.660        47
46.670        47
46.680        47
46.690        27
46.700        40
46.710        20
46.720        47
46.730        27
46.740        40
46.750         7
46.760        20
46.770        33
46.780        33
46.790        40
46.800        27
46.810        20
46.820        60
46.830        33
46.840        20
46.850        27
46.860        40
46.870        53
46.880        47
46.890        27
46.900        27
46.910        33
46.920        47
46.930        27
46.940        33
46.950        20
46.960        60
46.970        13
46.980        27
46.990        47
47.000        53
47.010        20
47.020        33
47.030        33
47.040        33
47.050        33
47.060        33
47.070        40
47.080        33
47.090        13
47.100        20
47.110        27
47.120        40
47.130        27
47.140        20
47.150        27
47.160        53
47.170        53
47.180        13
47.190        27
47.200        33
47.210        40
47.220        13
47.230        20
47.240        27
47.250         0
47.260         7
47.270        13
47.280         7
47.290        13
47.300        20
47.310        13
47.320        60
47.330        27
47.340         7
47.350        40
47.360        27
47.370         7
47.380        13
47.390         7
47.400         7
47.410        53
47.420        13
47.430        53
47.440        13
47.450         7
47.460         7
47.470        13
47.480        20
47.490        27
47.500        40
47.510         7
47.520        33
47.530        40
47.540        40
47.550        20
47.560        20
47.570        60
47.580        47
47.590        20
47.600        13
47.610        27
47.620        27
47.630         7
47.640        13
47.650        27
47.660        20
47.670        20
47.680        40
47.690        20
47.700        27
47.710        20
47.720        20
47.730        20
47.740        20
47.750        40
47.760        20
47.770        13
47.780        13
47.790        13
47.800         0
47.810        27
47.820        13
47.830        27
47.840        20
47.850        27
47.860        40
47.870        20
47.880         7
47.890        13
47.900        20
47.910        27
47.920        27
47.930        20
47.940        13
47.950        27
47.960        13
47.970        33
47.980        27
47.990        13
48.000        27
48.010        33
48.020        40
48.030        27
48.040         7
48.050        33
48.060        13
48.070        13
48.080         0
48.090        13
48.100        13
48.110        27
48.120        33
48.130        20
48.140        40
48.150        20
48.160        20
48.170         7
48.180        20
48.190        20
48.200         0
48.210        13
48.220         7
48.230        13
48.240        47
48.250         7
48.260        33
48.270        73
48.280        40
48.290        20
48.300        20
48.310        47
48.320        13
48.330         7
48.340        20
48.350        47
48.360         7
48.370        27
48.380        20
48.390         7
48.400        20
48.410        27
48.420         0
48.430        47
48.440        47
48.450        40
48.460        20
48.470        20
48.480        33
48.490         7
48.500        13
48.510        13
48.520        13
48.530        20
48.540        47
48.550        27
48.560        13
48.570        33
48.580        27
48.590        27
48.600        20
48.610        40
48.620        33
48.630        13
48.640        33
48.650        20
48.660        33
48.670        20
48.680        33
48.690        20
48.700        13
48.710        33
48.720        20
48.730        27
48.740        60
48.750        60
48.760        40
48.770        60
48.780        40
48.790        47
48.800        67
48.810        73
48.820        80
48.830        47
48.840        73
48.850        60
48.860        67
48.870        80
48.880        93
48.890        73
48.900        47
48.910       133
48.920       107
48.930        93
48.940       120
48.950       113
48.960       147
48.970       153
48.980       107
48.990       113
49.000        93
49.010       200
49.020       167
49.030       147
49.040        87
49.050       147
49.060       173
49.070       113
49.080        60
49.090       100
49.100        60
49.110       120
49.120        60
49.130        60
49.140        93
49.150        93
49.160        73
49.170        47
49.180        73
49.190        27
49.200        20
49.210        67
49.220        60
49.230        73
49.240        27
49.250        27
49.260        60
49.270        53
49.280        27
49.290        40
49.300        53
49.310        53
49.320        20
49.330        33
49.340        20
49.350        33
49.360         0
49.370        33
49.380        20
49.390        20
49.400         7
49.410        40
49.420        33
49.430        27
49.440        47
49.450        27
49.460         7
49.470         7
49.480        27
49.490        27
49.500        20
49.510        13
49.520        13
49.530        33
49.540        13
49.550        27
49.560        20
49.570        47
49.580         7
49.590        27
49.600        20
49.610        20
49.620        13
49.630        33
49.640         7
49.650        33
49.660        27
49.670        53
49.680        20
49.690         7
49.700        20
49.710        33
49.720        47
49.730        40
49.740        20
49.750         7
49.760        33
49.770        33
49.780        40
49.790        40
49.800        20
49.810        80
49.820        20
49.830        67
49.840        33
49.850        60
49.860        40
49.870        40
49.880        53
49.890        73
49.900        73
49.910        40
49.920        53
49.930        80
49.940        60
49.950        67
49.960        33
49.970        93
49.980        40
49.990        67
50.000        33
50.010        40
50.020        67
50.030        47
50.040        73
50.050        73
50.060        53
50.070        67
50.080        60
50.090        27
50.100        53
50.110        60
50.120        67
50.130        40
50.140        47
50.150        27
50.160        53
50.170        20
50.180        27
50.190        40
50.200         7
50.210         7
50.220         7
50.230        40
50.240        13
50.250        33
50.260        33
50.270        40
50.280        13
50.290        13
50.300        33
50.310        13
50.320        33
50.330         7
50.340        33
50.350        13
50.360         0
50.370        20
50.380         7
50.390        40
50.400        27
50.410        40
50.420        33
50.430        53
50.440        33
50.450        33
50.460        33
50.470        20
50.480        33
50.490        20
50.500        33
50.510        40
50.520        53
50.530        47
50.540        33
50.550        33
50.560        27
50.570        20
50.580        40
50.590        27
50.600        40
50.610        27
50.620        33
50.630        53
50.640        53
50.650         7
50.660         0
50.670        40
50.680        20
50.690        20
50.700        73
50.710        13
50.720        20
50.730        47
50.740        27
50.750        40
50.760        20
50.770        60
50.780        33
50.790        33
50.800        13
50.810        27
50.820        40
50.830        13
50.840        47
50.850         7
50.860        20
50.870        67
50.880        20
50.890        27
50.900        20
50.910         7
50.920        33
50.930        47
50.940        13
50.950        20
50.960        20
50.970         7
50.980        20
50.990        20
51.000        20
51.010        27
51.020        40
51.030        33
51.040        40
51.050        13
51.060        20
51.070        20
51.080        40
51.090        27
51.100        27
51.110         7
51.120        33
51.130        40
51.140        13
51.150        20
51.160        40
51.170        13
51.180        20
51.190        53
51.200        40
51.210        13
51.220        33
51.230        40
51.240        60
51.250        33
51.260        60
51.270        27
51.280        27
51.290        27
51.300        20
51.310        27
51.320        27
51.330        13
51.340        53
51.350        60
51.360        33
51.370        40
51.380        40
51.390        60
51.400        60
51.410        33
51.420        33
51.430        27
51.440        67
51.450        47
51.460        40
51.470        40
51.480        13
51.490        53
51.500        67
51.510        47
51.520        60
51.530        47
51.540        27
51.550        47
51.560        53
51.570       113
51.580        93
51.590        87
51.600        80
51.610        73
51.620       107
51.630       113
51.640        87
51.650       107
51.660       133
51.670        87
51.680       127
51.690       147
51.700       153
51.710       133
51.720       180
51.730       173
51.740       213
51.750       320
51.760       260
51.770       200
51.780       247
51.790       187
51.800       240
51.810       247
51.820       260
51.830       233
51.840       213
51.850       220
51.860       220
51.870       173
51.880       147
51.890       180
51.900       173
51.910       167
51.920       213
51.930       133
51.940       140
51.950       133
51.960       153
51.970       147
51.980       153
51.990       147
52.000       120
52.010       107
52.020        93
52.030       100
52.040        40
52.050        67
52.060        73
52.070        67
52.080        87
52.090        53
52.100        73
52.110        67
52.120        93
52.130        40
52.140        87
52.150        60
52.160        73
52.170       100
52.180        53
52.190        40
52.200        40
52.210        13
52.220        53
52.230        40
52.240        40
52.250        53
52.260        40
52.270        73
52.280        60
52.290        27
52.300        33
52.310        13
52.320        67
52.330        13
52.340        33
52.350        13
52.360        53
52.370        13
52.380        27
52.390        27
52.400        20
52.410        53
52.420        33
52.430        73
52.440        40
52.450        47
52.460        60
52.470        47
52.480        20
52.490        40
52.500        47
52.510        20
52.520        60
52.530        67
52.540        33
52.550         7
52.560        40
52.570         7
52.580        13
52.590        47
52.600        33
52.610        13
52.620        33
52.630        47
52.640        27
52.650        20
52.660        47
52.670        47
52.680        40
52.690        20
52.700        67
52.710        53
52.720        20
52.730        27
52.740        60
52.750        53
52.760        20
52.770        60
52.780        33
52.790        20
52.800        73
52.810        20
52.820        33
52.830        47
52.840        67
52.850        73
52.860        40
52.870        47
52.880        40
52.890        27
52.900        60
52.910        33
52.920        67
52.930        33
52.940        53
52.950        33
52.960        27
52.970         0
52.980        47
52.990        27
53.000        80
53.010        27
53.020        40
53.030        20
53.040        27
53.050         0
53.060        47
53.070        33
53.080        47
53.090        27
53.100        33
53.110        33
53.120        40
53.130        33
53.140        20
53.150        20
53.160        47
53.170        33
53.180        27
53.190        13
53.200        27
53.210        27
53.220        20
53.230        13
53.240        67
53.250        13
53.260        47
53.270        27
53.280        20
53.290        27
53.300        27
53.310        33
53.320        40
53.330        40
53.340        20
53.350        40
53.360        27
53.370        33
53.380        33
53.390        53
53.400        20
53.410        33
53.420        27
53.430         7
53.440        40
53.450        27
53.460        13
53.470         7
53.480        13
53.490        40
53.500        60
53.510        40
53.520        67
53.530        20
53.540        47
53.550        40
53.560        20
53.570        27
53.580        20
53.590        13
53.600        20
53.610        27
53.620         7
53.630         0
53.640        33
53.650         0
53.660        27
53.670        13
53.680        13
53.690        20
53.700        13
53.710        40
53.720        53
53.730        27
53.740        60
53.750        20
53.760        27
53.770        13
53.780        33
53.790         7
53.800        27
53.810         7
53.820        13
53.830        27
53.840        27
53.850        13
53.860        27
53.870        40
53.880        80
53.890        27
53.900        13
53.910        13
53.920        40
53.930        13
53.940        20
53.950        40
53.960        13
53.970         7
53.980        13
53.990        13
54.000        27
54.010         7
54.020        40
54.030        40
54.040        20
54.050        27
54.060        47
54.070        33
54.080        13
54.090        20
54.100        33
54.110        40
54.120        27
54.130        40
54.140        33
54.150        20
54.160        13
54.170        20
54.180        27
54.190        13
54.200        27
54.210         7
54.220        20
54.230        27
54.240        40
54.250        20
54.260        53
54.270         7
54.280         7
54.290        20
54.300        27
54.310        13
54.320        13
54.330        20
54.340        20
54.350        13
54.360        47
54.370        13
54.380        13
54.390        20
54.400        27
54.410        47
54.420        33
54.430        13
54.440        27
54.450         7
54.460        20
54.470        13
54.480        33
54.490        20
54.500        20
54.510        20
54.520        20
54.530        27
54.540        20
54.550        13
54.560        27
54.570        33
54.580        33
54.590        27
54.600        40
54.610        47
54.620        33
54.630        27
54.640        27
54.650        13
54.660        53
54.670        40
54.680        27
54.690        40
54.700        33
54.710        60
54.720        80
54.730        53
54.740        40
54.750       100
54.760        67
54.770       100
54.780        80
54.790        73
54.800        47
54.810        67
54.820       120
54.830       120
54.840        73
54.850        87
54.860        73
54.870        93
54.880       120
54.890        60
54.900        93
54.910       100
54.920        53
54.930        80
54.940        47
54.950        67
54.960        67
54.970        53
54.980        53
54.990        33
55.000        87
55.010       133
55.020        67
55.030        67
55.040        53
55.050        60
55.060        80
55.070        27
55.080        33
55.090        33
55.100        47
55.110        80
55.120        20
55.130        33
55.140        47
55.150        27
55.160        33
55.170        40
55.180        13
55.190        33
55.200        47
55.210        33
55.220        33
55.230        33
55.240        27
55.250        40
55.260         0
55.270         0
55.280        13
55.290        27
55.300        33
55.310        40
55.320        27
55.330         7
55.340        20
55.350        33
55.360        27
55.370        13
55.380        33
55.390        27
55.400         0
55.410        27
55.420        33
55.430        40
55.440        20
55.450        13
55.460         7
55.470        33
55.480        47
55.490        27
55.500        60
55.510        20
55.520        47
55.530        40
55.540        20
55.550        13
55.560        33
55.570        13
55.580         7
55.590        20
55.600        40
55.610        20
55.620        33
55.630         7
55.640        13
55.650        20
55.660        20
55.670        20
55.680        13
55.690        53
55.700        20
55.710        13
55.720        27
55.730        27
55.740        33
55.750         7
55.760        27
55.770        20
55.780         7
55.790        13
55.800        27
55.810        13
55.820        27
55.830        20
55.840         0
55.850        27
55.860         0
55.870        13
55.880        33
55.890        27
55.900        13
55.910        27
55.920        20
55.930        13
55.940        27
55.950        13
55.960        27
55.970        33
55.980        13
55.990        40
56.000        13
56.010         0
56.020         0
56.030        33
56.040         0
56.050        20
56.060         7
56.070        40
56.080        40
56.090        27
56.100        13
56.110        27
56.120        20
56.130        13
56.140        33
56.150        40
56.160        47
56.170        40
56.180        20
56.190        27
56.200         7
56.210        27
56.220        40
56.230        20
56.240        27
56.250        27
56.260         7
56.270        40
56.280        13
56.290        13
56.300        33
56.310        27
56.320         7
56.330        27
56.340        27
56.350        20
56.360        33
56.370        13
56.380        13
56.390        33
56.400        20
56.410        33
56.420        27
56.430        13
56.440        20
56.450        13
56.460         7
56.470        53
56.480        20
56.490        20
56.500         7
56.510         7
56.520        13
56.530         7
56.540        20
56.550        33
56.560        20
56.570        27
56.580        20
56.590         0
56.600        13
56.610        27
56.620        13
56.630         7
56.640         7
56.650        20
56.660         7
56.670         7
56.680         0
56.690         7
56.700        33
56.710        13
56.720        13
56.730        40
56.740        13
56.750        20
56.760         7
56.770         7
56.780        13
56.790         7
56.800        20
56.810        27
56.820        40
56.830        13
56.840        13
56.850        20
56.860        13
56.870        13
56.880         7
56.890        13
56.900         7
56.910        27
56.920        13
56.930        27
56.940         7
56.950        13
56.960         7
56.970        13
56.980        27
56.990        13
57.000        13
57.010        27
57.020        20
57.030        33
57.040        27
57.050         0
57.060        27
57.070        20
57.080         7
57.090        20
57.100        40
57.110        13
57.120         7
57.130        27
57.140        20
57.150        20
57.160         0
57.170        13
57.180        40
57.190        33
57.200        40
57.210        33
57.220        33
57.230         0
57.240        40
57.250         7
57.260        20
57.270         0
57.280        20
57.290        40
57.300        33
57.310        13
57.320         0
57.330        53
57.340         7
57.350        33
57.360        33
57.370        20
57.380        47
57.390        13
57.400        33
57.410        20
57.420        27
57.430        27
57.440        27
57.450        13
57.460         7
57.470         7
57.480        27
57.490        20
57.500        40
57.510        13
57.520         7
57.530        20
57.540         7
57.550        20
57.560        33
57.570        27
57.580         7
57.590        13
57.600        33
57.610        53
57.620        13
57.630        13
57.640        33
57.650        20
57.660         7
57.670        53
57.680        47
57.690        27
57.700        27
57.710        20
57.720         7
57.730        40
57.740        13
57.750        20
57.760        33
57.770        53
57.780        20
57.790        67
57.800        20
57.810        40
57.820        20
57.830        13
57.840        20
57.850        13
57.860        13
57.870        40
57.880        20
57.890        27
57.900         0
57.910        33
57.920        27
57.930        20
57.940        33
57.950        13
57.960        33
57.970        13
57.980        20
57.990        20
58.000        13
58.010        27
58.020        13
58.030         0
58.040        33
58.050        13
58.060         7
58.070        33
58.080        13
58.090        13
58.100         0
58.110        27
58.120         7
58.130        13
58.140         7
58.150        20
58.160        27
58.170        27
58.180        20
58.190         0
58.200        20
58.210        33
58.220         7
58.230        20
58.240        27
58.250        20
58.260        27
58.270         7
58.280         0
58.290         7
58.300         7
58.310        13
58.320         7
58.330        53
58.340        13
58.350        13
58.360         7
58.370        33
58.380        47
58.390        47
58.400        20
58.410        33
58.420        13
58.430        13
58.440         7
58.450         7
58.460        20
58.470        53
58.480         7
58.490        27
58.500        33
58.510        13
58.520        13
58.530        20
58.540        27
58.550        20
58.560        13
58.570        20
58.580        13
58.590         0
58.600        27
58.610         7
58.620         0
58.630        27
58.640        13
58.650         7
58.660        20
58.670        27
58.680        13
58.690         7
58.700        13
58.710        13
58.720        20
58.730        20
58.740        13
58.750        27
58.760         0
58.770        20
58.780         7
58.790        27
58.800        13
58.810        20
58.820        20
58.830        20
58.840        20
58.850        40
58.860        27
58.870        20
58.880        20
58.890        13
58.900         7
58.910        27
58.920        20
58.930        20
58.940         7
58.950        20
58.960        27
58.970        33
58.980        27
58.990        20
59.000        20
59.010         0
59.020         0
59.030        20
59.040         7
59.050         7
59.060         0
59.070        13
59.080        27
59.090        20
59.100        13
59.110        20
59.120        33
59.130        13
59.140         7
59.150         7
59.160        13
59.170        27
59.180        20
59.190        13
59.200        20
59.210        13
59.220        20
59.230        27
59.240        20
59.250        13
59.260        13
59.270         7
59.280        20
59.290         7
59.300         7
59.310        33
59.320        33
59.330        20
59.340        33
59.350        13
59.360        13
59.370        20
59.380         0
59.390        13
59.400         0
59.410        13
59.420        13
59.430        40
59.440        33
59.450        13
59.460        13
59.470         7
59.480        20
59.490         7
59.500        13
59.510        27
59.520         0
59.530        20
59.540        13
59.550        40
59.560        27
59.570        13
59.580         7
59.590        53
59.600        40
59.610        27
59.620        40
59.630        27
59.640        53
59.650         7
59.660        33
59.670        20
59.680        67
59.690        20
59.700        33
59.710        33
59.720        40
59.730        33
59.740        40
59.750        33
59.760        20
59.770        40
59.780        40
59.790        47
59.800        27
59.810        13
59.820        60
59.830        33
59.840        20
59.850        87
59.860        33
59.870        13
59.880        13
59.890        27
59.900         7
59.910        20
59.920        27
59.930        13
59.940        20
59.950        20
59.960        13
59.970        20
59.980        40
59.990        20
60.000        20
