20.000        27
20.010        27
20.020        27
20.030        40
20.040        40
20.050        40
20.060        40
20.070        80
20.080         7
20.090        40
20.100        80
20.110        53
20.120        13
20.130        53
20.140        27
20.150        40
20.160        47
20.170        33
20.180        27
20.190         7
20.200        47
20.210        40
20.220        87
20.230        33
20.240        40
20.250        27
20.260        20
20.270        47
20.280        13
20.290        33
20.300        53
20.310        53
20.320        60
20.330        53
20.340        53
20.350        40
20.360        53
20.370        27
20.380        40
20.390        33
20.400        27
20.410        67
20.420        33
20.430        20
20.440        27
20.450        20
20.460        40
20.470        40
20.480        40
20.490        47
20.500        60
20.510        20
20.520        40
20.530        67
20.540        27
20.550        20
20.560        80
20.570        67
20.580        47
20.590        67
20.600        53
20.610        40
20.620        47
20.630        27
20.640        73
20.650        67
20.660        60
20.670        53
20.680        40
20.690        27
20.700        47
20.710        60
20.720        33
20.730        40
20.740        47
20.750        47
20.760        33
20.770        80
20.780        60
20.790        40
20.800        40
20.810        40
20.820        47
20.830        27
20.840        47
20.850        20
20.860        40
20.870        20
20.880        33
20.890        93
20.900        47
20.910        53
20.920        47
20.930        67
20.940        33
20.950        47
20.960        80
20.970        40
20.980        33
20.990        20
21.000        47
21.010        53
21.020        40
21.030        33
21.040        40
21.050        47
21.060        73
21.070        33
21.080        27
21.090        73
21.100        53
21.110        40
21.120        67
21.130        27
21.140        27
21.150        27
21.160        33
21.170        53
21.180        27
21.190        33
21.200        27
21.210        20
21.220        67
21.230        73
21.240        60
21.250        20
21.260        40
21.270        33
21.280        53
21.290         7
21.300        27
21.310        60
21.320        27
21.330        33
21.340        40
21.350        33
21.360        53
21.370        53
21.380        47
21.390        13
21.400        53
21.410        40
21.420         7
21.430        27
21.440        33
21.450        47
21.460        73
21.470        40
21.480        47
21.490        40
21.500        53
21.510        33
21.520        20
21.530        67
21.540        67
21.550        47
21.560        47
21.570        47
21.580        60
21.590        87
21.600        27
21.610        33
21.620        20
21.630        27
21.640        20
21.650        33
21.660        20
21.670        40
21.680        33
21.690        93
21.700        60
21.710        40
21.720        47
21.730        33
21.740        27
21.750        73
21.760        33
21.770        53
21.780        60
21.790        47
21.800        33
21.810        27
21.820        53
21.830        40
21.840        60
21.850        27
21.860        73
21.870        40
21.880        60
21.890        40
21.900        27
21.910        27
21.920        40
21.930        27
21.940        27
21.950        53
21.960        87
21.970       113
21.980        47
21.990        27
22.000        67
22.010        47
22.020        60
22.030        40
22.040        40
22.050        33
22.060        53
22.070        67
22.080        27
22.090        40
22.100        27
22.110        40
22.120        60
22.130       107
22.140        60
22.150        60
22.160        53
22.170        87
22.180        73
22.190        33
22.200        93
22.210        80
22.220        40
22.230        80
22.240       127
22.250        53
22.260       107
22.270       133
22.280        80
22.290       113
22.300        87
22.310       180
22.320       153
22.330       113
22.340       140
22.350       107
22.360       280
22.370       233
22.380       220
22.390       273
22.400       293
22.410       180
22.420       327
22.430       373
22.440       413
22.450       453
22.460       486
22.470       600
22.480       566
22.490       620
22.500       666
22.510       853
22.520       906
22.530       900
22.540       846
22.550       953
22.560       906
22.570       960
22.580       746
22.590       813
22.600       660
22.610       566
22.620       613
22.630       387
22.640       466
22.650       407
22.660       273
22.670       187
22.680       220
22.690       193
22.700       187
22.710       200
22.720       140
22.730       207
22.740       180
22.750       160
22.760       167
22.770       200
22.780       213
22.790       187
22.800       207
22.810       227
22.820       253
22.830       200
22.840       227
22.850       207
22.860       280
22.870       293
22.880       333
22.890       426
22.900       407
22.910       400
22.920       446
22.930       433
22.940       393
22.950       347
22.960       393
22.970       407
22.980       393
22.990       420
23.000       367
23.010       287
23.020       307
23.030       293
23.040       193
23.050       180
23.060       160
23.070       160
23.080       167
23.090       140
23.100        73
23.110        87
23.120       113
23.130        80
23.140       100
23.150        80
23.160        60
23.170        53
23.180        67
23.190        73
23.200        60
23.210        40
23.220        73
23.230        73
23.240        60
23.250        40
23.260        40
23.270        73
23.280       113
23.290        40
23.300        67
23.310        53
23.320        53
23.330        67
23.340        60
23.350        60
23.360        47
23.370        40
23.380        20
23.390        47
23.400        33
23.410        33
23.420        33
23.430        60
23.440        47
23.450        27
23.460        53
23.470        67
23.480        87
23.490        67
23.500        93
23.510        33
23.520        60
23.530        40
23.540        33
23.550        40
23.560        47
23.570        47
23.580        33
23.590        67
23.600        33
23.610        47
23.620        67
23.630        93
23.640        87
23.650        47
23.660        47
23.670        47
23.680        53
23.690        53
23.700        33
23.710        67
23.720        33
23.730        67
23.740        27
23.750        67
23.760        47
23.770        60
23.780        27
23.790        40
23.800        47
23.810        40
23.820        47
23.830        27
23.840        53
23.850        60
23.860        67
23.870        20
23.880        20
23.890        33
23.900        40
23.910        47
23.920        40
23.930        20
23.940        33
23.950        53
23.960        60
23.970        27
23.980        47
23.990        13
24.000        40
24.010        47
24.020        27
24.030        20
24.040        53
24.050        40
24.060        40
24.070        33
24.080        60
24.090        20
24.100        33
24.110        60
24.120        73
24.130        53
24.140        53
24.150        53
24.160        40
24.170        40
24.180        73
24.190        47
24.200        33
24.210        53
24.220         7
24.230        20
24.240        80
24.250        33
24.260        40
24.270        27
24.280        67
24.290        27
24.300        40
24.310        33
24.320        13
24.330        67
24.340        53
24.350        53
24.360        67
24.370        40
24.380        47
24.390        20
24.400        13
24.410        40
24.420        53
24.430        13
24.440        33
24.450        27
24.460        87
24.470        87
24.480        40
24.490        27
24.500        33
24.510        60
24.520        13
24.530        33
24.540        33
24.550        27
24.560        67
24.570        27
24.580        60
24.590        60
24.600        33
24.610        13
24.620        13
24.630        53
24.640        40
24.650        33
24.660        20
24.670        60
24.680        47
24.690        47
24.700        60
24.710        60
24.720        67
24.730        67
24.740        53
24.750        40
24.760        53
24.770        53
24.780        40
24.790        20
24.800        33
24.810        40
24.820        33
24.830        20
24.840        73
24.850        47
24.860        20
24.870        47
24.880        33
24.890        60
24.900        27
24.910        20
24.920        40
24.930        33
24.940        60
24.950        27
24.960        20
24.970        13
24.980        20
24.990        47
25.000         7
25.010        33
25.020        33
25.030        67
25.040        40
25.050        80
25.060        40
25.070        13
25.080        47
25.090        60
25.100        20
25.110        33
25.120        73
25.130        33
25.140        27
25.150        40
25.160         7
25.170         7
25.180        33
25.190        47
25.200        27
25.210        20
25.220        33
25.230        27
25.240        33
25.250        40
25.260        47
25.270        27
25.280        53
25.290        47
25.300        47
25.310        47
25.320        60
25.330        53
25.340        47
25.350        40
25.360        20
25.370        33
25.380        27
25.390        47
25.400        20
25.410        33
25.420        73
25.430        60
25.440       107
25.450        80
25.460        87
25.470        47
25.480        73
25.490        60
25.500        40
25.510        80
25.520        53
25.530        93
25.540        53
25.550        47
25.560        73
25.570       100
25.580        73
25.590        40
25.600        87
25.610        93
25.620       140
25.630       140
25.640        73
25.650        87
25.660       107
25.670        73
25.680        67
25.690        93
25.700        93
25.710       160
25.720       113
25.730        73
25.740        87
25.750       113
25.760        80
25.770       127
25.780       133
25.790        73
25.800       100
25.810       127
25.820        93
25.830       113
25.840        73
25.850        87
25.860       140
25.870        60
25.880        80
25.890       100
25.900        67
25.910        67
25.920       113
25.930        33
25.940        47
25.950        47
25.960        60
25.970        47
25.980        20
25.990        13
26.000        40
26.010        13
26.020        13
26.030        40
26.040        47
26.050        33
26.060        60
26.070        27
26.080        13
26.090        20
26.100        27
26.110        47
26.120        33
26.130        13
26.140        27
26.150        20
26.160        53
26.170        60
26.180        67
26.190        40
26.200        27
26.210        33
26.220        33
26.230        47
26.240        53
26.250        33
26.260        40
26.270        80
26.280        47
26.290        47
26.300        13
26.310        40
26.320        20
26.330        60
26.340        40
26.350        33
26.360        27
26.370        60
26.380        40
26.390        33
26.400        47
26.410        40
26.420        20
26.430        27
26.440        33
26.450        33
26.460        40
26.470        33
26.480        40
26.490        47
26.500        20
26.510        40
26.520         7
26.530        47
26.540        33
26.550        40
26.560        40
26.570        27
26.580        20
26.590        27
26.600        20
26.610        27
26.620        27
26.630        47
26.640        47
26.650        33
26.660        40
26.670        33
26.680        40
26.690        27
26.700        40
26.710        53
26.720        40
26.730        67
26.740        27
26.750        27
26.760        33
26.770        60
26.780        33
26.790        40
26.800        27
26.810        33
26.820        40
26.830        47
26.840        67
26.850        40
26.860        33
26.870        47
26.880        40
26.890        40
26.900        40
26.910        53
26.920        33
26.930        47
26.940        53
26.950        33
26.960        27
26.970        20
26.980        13
26.990        47
27.000        47
27.010         7
27.020        40
27.030        33
27.040        20
27.050        33
27.060        60
27.070        87
27.080        27
27.090        40
27.100        20
27.110        27
27.120        40
27.130        27
27.140        20
27.150        53
27.160         7
27.170        53
27.180        33
27.190        33
27.200        40
27.210        27
27.220         7
27.230        40
27.240        27
27.250        20
27.260        20
27.270        13
27.280        27
27.290        27
27.300        47
27.310        40
27.320        27
27.330        53
27.340        40
27.350        47
27.360        33
27.370        33
27.380        40
27.390        47
27.400        47
27.410        87
27.420        47
27.430        40
27.440        53
27.450        33
27.460        67
27.470        33
27.480        40
27.490        20
27.500        47
27.510        47
27.520        27
27.530        60
27.540        40
27.550        53
27.560        87
27.570        67
27.580        87
27.590        27
27.600        33
27.610        33
27.620        80
27.630        80
27.640        67
27.650        53
27.660        80
27.670        73
27.680        87
27.690        80
27.700        53
27.710        67
27.720       100
27.730        47
27.740        47
27.750        87
27.760        73
27.770        47
27.780        53
27.790        60
27.800        73
27.810        60
27.820        47
27.830        47
27.840        33
27.850        53
27.860        27
27.870        47
27.880        73
27.890        60
27.900        93
27.910        27
27.920        40
27.930        20
27.940        60
27.950        20
27.960        60
27.970        47
27.980        20
27.990        47
28.000        60
28.010        53
28.020       120
28.030        73
28.040       113
28.050        47
28.060        73
28.070        67
28.080        87
28.090       133
28.100        73
28.110       107
28.120       100
28.130       100
28.140        40
28.150        60
28.160       100
28.170        67
28.180        87
28.190       127
28.200        93
28.210        93
28.220        73
28.230       133
28.240        60
28.250       113
28.260       100
28.270       127
28.280        87
28.290       100
28.300        73
28.310        93
28.320        73
28.330        60
28.340       113
28.350        80
28.360       113
28.370        87
28.380        53
28.390        73
28.400        73
28.410        87
28.420        67
28.430        87
28.440        60
28.450        60
28.460        60
28.470        47
28.480        67
28.490        87
28.500        47
28.510       100
28.520        67
28.530        87
28.540        87
28.550        67
28.560        73
28.570        47
28.580        53
28.590        93
28.600        40
28.610        53
28.620        47
28.630        60
28.640        53
28.650        67
28.660        80
28.670        40
28.680        60
28.690        73
28.700        53
28.710        73
28.720        53
28.730        27
28.740        60
28.750        53
28.760        47
28.770        87
28.780        47
28.790        40
28.800        67
28.810        40
28.820        53
28.830        40
28.840        47
28.850        33
28.860        53
28.870        80
28.880        80
28.890        53
28.900        80
28.910       120
28.920        73
28.930        60
28.940        80
28.950        67
28.960        73
28.970        33
28.980        73
28.990        87
29.000        93
29.010        67
29.020        80
29.030        47
29.040        80
29.050        73
29.060        80
29.070        60
29.080        67
29.090        40
29.100        67
29.110        60
29.120        60
29.130        67
29.140        47
29.150        33
29.160        80
29.170        73
29.180        67
29.190        53
29.200        53
29.210        53
29.220        27
29.230        60
29.240        33
29.250        60
29.260        27
29.270        33
29.280        60
29.290        67
29.300        33
29.310        33
29.320        27
29.330        47
29.340        67
29.350        67
29.360        33
29.370        33
29.380        87
29.390        20
29.400        60
29.410        53
29.420         7
29.430        87
29.440        40
29.450        60
29.460        93
29.470        67
29.480       140
29.490        67
29.500        73
29.510        80
29.520       100
29.530       100
29.540        80
29.550       113
29.560       100
29.570       120
29.580       153
29.590       100
29.600       160
29.610       133
29.620       100
29.630       100
29.640       100
29.650       100
29.660        73
29.670       100
29.680       113
29.690        47
29.700        73
29.710        73
29.720        80
29.730        47
29.740        53
29.750        67
29.760        73
29.770        40
29.780        20
29.790        40
29.800        47
29.810        40
29.820        20
29.830        53
29.840        60
29.850        60
29.860        40
29.870        27
29.880        40
29.890        40
29.900        53
29.910        33
29.920        27
29.930        27
29.940        33
29.950        53
29.960        40
29.970        53
29.980        27
29.990        40
30.000        47
30.010        33
30.020        20
30.030        27
30.040        33
30.050        60
30.060        13
30.070        13
30.080        27
30.090        27
30.100        40
30.110        27
30.120        20
30.130        40
30.140        27
30.150        13
30.160        60
30.170        33
30.180        20
30.190        20
30.200         7
30.210        27
30.220        47
30.230        20
30.240        13
30.250        47
30.260        53
30.270        47
30.280        13
30.290        33
30.300        40
30.310        47
30.320        47
30.330        93
30.340        47
30.350        67
30.360       100
30.370        80
30.380        40
30.390        67
30.400        47
30.410        67
30.420        73
30.430        80
30.440       127
30.450        80
30.460        73
30.470       127
30.480        60
30.490        40
30.500        60
30.510        73
30.520        40
30.530        73
30.540        60
30.550        47
30.560        67
30.570        33
30.580        47
30.590        40
30.600        67
30.610        27
30.620         7
30.630        40
30.640        20
30.650        33
30.660        47
30.670        33
30.680        13
30.690        27
30.700         7
30.710        33
30.720        33
30.730        27
30.740        27
30.750        27
30.760        40
30.770        27
30.780        20
30.790        27
30.800        20
30.810        20
30.820        20
30.830        20
30.840        20
30.850        20
30.860        53
30.870        27
30.880        33
30.890         7
30.900         0
30.910        20
30.920        27
30.930        27
30.940        40
30.950        40
30.960        13
30.970        53
30.980        33
30.990        33
31.000        40
31.010        27
31.020        33
31.030        73
31.040        33
31.050        27
31.060        27
31.070        53
31.080        20
31.090        13
31.100        33
31.110        47
31.120        20
31.130        40
31.140        20
31.150        13
31.160        27
31.170        53
31.180        33
31.190        27
31.200        20
31.210         7
31.220        20
31.230        27
31.240        20
31.250        27
31.260         7
31.270        40
31.280        27
31.290        40
31.300        33
31.310        27
31.320        53
31.330         7
31.340        13
31.350        27
31.360        40
31.370        13
31.380        20
31.390        27
31.400        13
31.410        47
31.420        27
31.430        20
31.440        33
31.450        40
31.460        13
31.470        27
31.480        27
31.490        33
31.500        33
31.510        33
31.520        47
31.530        13
31.540        27
31.550        33
31.560        47
31.570        40
31.580        20
31.590        47
31.600        33
31.610        40
31.620        20
31.630        53
31.640        27
31.650        27
31.660        47
31.670        40
31.680        20
31.690        33
31.700        40
31.710         7
31.720        33
31.730        20
31.740        53
31.750        40
31.760        27
31.770        20
31.780        27
31.790        33
31.800        33
31.810        33
31.820        27
31.830        27
31.840         7
31.850        27
31.860        40
31.870        53
31.880        13
31.890        33
31.900        40
31.910        33
31.920        40
31.930        27
31.940        67
31.950        53
31.960        33
31.970        53
31.980        53
31.990        67
32.000        53
32.010        93
32.020        47
32.030       100
32.040        67
32.050        73
32.060        93
32.070       100
32.080       127
32.090       100
32.100       127
32.110       100
32.120       140
32.130        80
32.140        93
32.150        73
32.160       100
32.170       140
32.180        93
32.190        73
32.200       100
32.210        80
32.220       107
32.230        87
32.240        67
32.250        73
32.260        27
32.270        73
32.280        47
32.290        73
32.300        67
32.310        40
32.320        27
32.330        27
32.340        27
32.350        27
32.360        27
32.370        47
32.380        33
32.390        27
32.400        27
32.410        20
32.420        27
32.430        20
32.440        33
32.450        13
32.460        20
32.470        47
32.480        20
32.490        27
32.500        40
32.510        33
32.520        13
32.530        20
32.540        27
32.550        33
32.560        33
32.570        20
32.580        33
32.590        33
32.600        27
32.610        13
32.620        47
32.630        20
32.640        40
32.650        20
32.660         7
32.670        40
32.680        47
32.690        13
32.700        13
32.710         0
32.720        27
32.730        40
32.740        27
32.750        40
32.760        20
32.770        27
32.780        47
32.790        47
32.800        27
32.810        40
32.820        13
32.830        27
32.840        13
32.850        27
32.860        27
32.870        20
32.880        13
32.890        13
32.900        20
32.910        20
32.920        13
32.930        13
32.940        20
32.950        20
32.960         7
32.970        47
32.980        40
32.990        33
33.000        20
33.010        13
33.020         7
33.030        20
33.040        80
33.050        27
33.060        33
33.070        20
33.080        47
33.090        27
33.100        20
33.110        40
33.120        27
33.130        20
33.140        13
33.150        27
33.160         0
33.170         0
33.180        47
33.190        60
33.200        20
33.210        13
33.220         7
33.230        33
33.240        13
33.250        60
33.260        27
33.270        47
33.280        20
33.290        40
33.300         7
33.310         7
33.320        53
33.330         7
33.340        20
33.350        47
33.360        40
33.370        33
33.380         0
33.390        27
33.400        27
33.410        47
33.420        33
33.430        40
33.440        33
33.450         0
33.460        20
33.470        33
33.480         7
33.490        33
33.500        13
33.510         7
33.520        20
33.530        40
33.540        33
33.550        33
33.560        60
33.570        20
33.580        47
33.590        33
33.600        40
33.610        13
33.620        27
33.630        33
33.640        40
33.650        13
33.660        27
33.670        33
33.680        27
33.690        13
33.700        20
33.710        20
33.720        20
33.730        27
33.740        20
33.750        27
33.760        33
33.770        33
33.780        40
33.790        33
33.800        47
33.810        33
33.820        33
33.830        40
33.840         0
33.850        47
33.860         7
33.870        20
33.880        40
33.890        27
33.900         0
33.910        13
33.920        40
33.930         7
33.940        53
33.950        20
33.960        33
33.970        27
33.980        33
33.990        40
34.000        33
34.010        47
34.020        13
34.030        27
34.040        40
34.050        33
34.060         7
34.070        13
34.080        33
34.090        33
34.100         7
34.110        87
34.120        20
34.130        33
34.140        33
34.150        33
34.160        53
34.170        27
34.180        20
34.190        27
34.200        33
34.210        40
34.220        40
34.230        20
34.240         7
34.250        20
34.260        40
34.270        13
34.280        33
34.290        13
34.300        40
34.310        20
34.320        20
34.330        13
34.340        27
34.350        33
34.360         7
34.370        20
34.380        33
34.390        47
34.400        13
34.410        20
34.420        40
34.430        20
34.440        53
34.450        27
34.460        27
34.470        40
34.480        47
34.490        20
34.500        27
34.510        47
34.520        27
34.530        40
34.540        53
34.550        53
34.560         7
34.570        33
34.580        40
34.590        80
34.600        53
34.610        13
34.620        33
34.630        33
34.640        33
34.650        20
34.660        33
34.670        27
34.680        33
34.690        33
34.700        13
34.710        33
34.720        20
34.730        40
34.740        27
34.750        27
34.760        27
34.770        20
34.780        40
34.790        60
34.800        53
34.810        53
34.820         7
34.830        40
34.840        33
34.850        40
34.860        53
34.870        20
34.880        40
34.890        13
34.900        13
34.910        13
34.920         0
34.930        13
34.940        33
34.950        20
34.960        27
34.970        27
34.980        33
34.990        27
35.000        33
35.010        53
35.020        33
35.030        47
35.040        40
35.050        33
35.060        20
35.070        67
35.080        13
35.090        33
35.100        33
35.110        47
35.120       100
35.130        47
35.140        53
35.150       127
35.160       127
35.170       160
35.180       187
35.190       247
35.200       227
35.210       120
35.220       100
35.230        80
35.240        87
35.250        93
35.260        93
35.270       133
35.280       113
35.290        87
35.300        87
35.310        73
35.320        73
35.330        33
35.340        20
35.350        33
35.360        33
35.370         0
35.380        13
35.390        13
35.400        13
35.410        27
35.420         7
35.430        27
35.440        40
35.450        33
35.460        33
35.470        33
35.480        33
35.490        13
35.500        20
35.510        20
35.520        40
35.530        13
35.540        27
35.550        20
35.560        20
35.570        13
35.580        40
35.590        27
35.600        20
35.610        13
35.620        40
35.630         7
35.640        33
35.650         7
35.660        20
35.670        20
35.680         7
35.690        13
35.700        20
35.710        27
35.720        53
35.730        20
35.740        33
35.750        13
35.760        13
35.770        47
35.780        47
35.790        20
35.800        20
35.810        27
35.820        20
35.830        13
35.840        53
35.850        53
35.860        53
35.870        20
35.880        20
35.890        33
35.900        27
35.910        67
35.920        13
35.930        20
35.940        33
35.950        33
35.960        13
35.970        13
35.980        40
35.990        40
36.000         7
36.010        33
36.020        27
36.030        20
36.040        33
36.050        20
36.060        40
36.070        13
36.080        13
36.090         0
36.100        20
36.110        47
36.120        27
36.130        67
36.140        33
36.150        27
36.160        33
36.170        33
36.180        27
36.190         7
36.200        27
36.210        20
36.220        20
36.230         7
36.240        13
36.250        40
36.260        13
36.270         7
36.280        20
36.290        47
36.300        13
36.310        27
36.320         0
36.330        27
36.340        20
36.350        27
36.360        13
36.370        27
36.380        27
36.390         0
36.400        33
36.410        27
36.420        20
36.430        13
36.440        27
36.450        27
36.460         7
36.470        20
36.480        20
36.490        33
36.500        13
36.510        20
36.520        27
36.530        20
36.540         0
36.550        20
36.560        33
36.570        47
36.580        27
36.590         7
36.600        13
36.610        13
36.620        13
36.630        33
36.640        20
36.650        13
36.660        20
36.670        13
36.680        27
36.690        20
36.700        40
36.710        33
36.720        27
36.730         7
36.740        27
36.750        13
36.760        33
36.770         0
36.780        40
36.790        40
36.800        27
36.810        20
36.820        47
36.830        13
36.840        13
36.850        20
36.860        47
36.870         7
36.880        13
36.890        73
36.900        47
36.910        33
36.920        33
36.930        27
36.940        13
36.950        13
36.960        60
36.970        13
36.980        20
36.990        20
37.000        27
37.010        53
37.020        20
37.030        40
37.040        47
37.050        20
37.060        13
37.070        27
37.080         0
37.090        13
37.100        27
37.110        27
37.120         0
37.130        27
37.140        53
37.150        33
37.160        47
37.170        13
37.180        27
37.190        27
37.200        20
37.210         7
37.220        13
37.230        33
37.240        27
37.250        33
37.260        13
37.270        20
37.280        40
37.290        27
37.300        13
37.310        27
37.320        27
37.330        47
37.340        33
37.350        40
37.360         7
37.370        27
37.380        47
37.390        33
37.400        33
37.410        33
37.420        13
37.430        53
37.440        40
37.450        13
37.460        27
37.470        33
37.480        13
37.490        33
37.500        20
37.510        20
37.520        40
37.530        33
37.540        33
37.550        13
37.560        13
37.570        13
37.580        20
37.590         7
37.600        27
37.610        27
37.620        40
37.630        33
37.640        47
37.650        67
37.660        73
37.670        33
37.680        73
37.690        87
37.700        33
37.710        40
37.720        47
37.730        40
37.740        67
37.750        80
37.760        47
37.770        40
37.780        47
37.790        47
37.800        13
37.810        67
37.820        53
37.830        80
37.840        40
37.850        40
37.860        27
37.870        53
37.880        27
37.890        33
37.900        47
37.910        27
37.920        40
37.930        40
37.940        40
37.950        33
37.960        13
37.970        27
37.980        27
37.990        20
38.000        20
38.010        67
38.020        20
38.030        13
38.040        20
38.050        40
38.060        20
38.070        33
38.080        40
38.090        53
38.100        27
38.110        47
38.120        40
38.130        33
38.140        20
38.150        27
38.160        47
38.170        27
38.180        20
38.190        33
38.200        13
38.210         7
38.220        53
38.230        33
38.240        27
38.250        33
38.260         7
38.270        27
38.280        20
38.290        20
38.300         0
38.310        13
38.320        27
38.330        53
38.340        33
38.350        13
38.360        33
38.370        13
38.380        20
38.390        13
38.400        33
38.410        13
38.420        33
38.430        33
38.440        20
38.450        20
38.460        47
38.470        20
38.480        53
38.490        33
38.500        27
38.510        33
38.520        80
38.530        20
38.540         7
38.550        27
38.560        20
38.570        27
38.580        33
38.590        27
38.600        47
38.610        27
38.620        47
38.630        20
38.640        60
38.650        47
38.660        20
38.670        33
38.680        13
38.690        47
38.700        27
38.710        33
38.720        20
38.730        13
38.740        20
38.750        40
38.760        47
38.770        33
38.780         7
38.790        20
38.800        33
38.810        33
38.820        47
38.830        27
38.840        40
38.850        20
38.860        27
38.870        47
38.880        20
38.890        47
38.900        27
38.910        20
38.920        40
38.930        33
38.940        20
38.950        13
38.960        20
38.970        27
38.980        13
38.990        20
39.000        27
39.010        47
39.020        33
39.030        33
39.040        13
39.050        20
39.060        20
39.070        13
39.080         7
39.090        20
39.100        40
39.110        20
39.120        20
39.130        13
39.140        27
39.150        27
39.160        33
39.170        20
39.180        27
39.190        13
39.200        20
39.210        40
39.220        47
39.230         7
39.240        20
39.250         7
39.260        13
39.270        40
39.280        47
39.290         7
39.300        33
39.310        20
39.320        27
39.330        27
39.340        20
39.350        33
39.360        27
39.370        20
39.380        47
39.390         7
39.400        27
39.410        27
39.420        33
39.430        20
39.440        40
39.450        13
39.460        27
39.470        40
39.480        13
39.490        13
39.500        40
39.510        33
39.520        27
39.530        13
39.540        20
39.550        47
39.560        20
39.570        33
39.580        47
39.590        20
39.600        20
39.610        20
39.620        20
39.630        27
39.640        13
39.650        20
39.660        27
39.670        27
39.680        27
39.690         7
39.700        20
39.710        27
39.720        27
39.730         7
39.740        47
39.750         7
39.760        33
39.770        40
39.780        33
39.790        13
39.800        13
39.810        47
39.820        27
39.830        13
39.840        27
39.850        20
39.860        33
39.870        47
39.880        33
39.890         7
39.900         0
39.910        33
39.920        27
39.930         0
39.940        47
39.950        27
39.960        13
39.970        20
39.980        20
39.990        20
40.000        20
40.010        53
40.020        20
40.030        40
40.040        33
40.050        13
40.060        13
40.070        27
40.080        40
40.090        33
40.100        47
40.110        40
40.120        27
40.130        20
40.140        33
40.150        27
40.160        20
40.170        27
40.180        33
40.190        33
40.200        20
40.210        33
40.220        33
40.230        27
40.240        53
40.250        40
40.260         7
40.270        33
40.280        47
40.290        20
40.300        33
40.310        73
40.320        33
40.330        60
40.340        27
40.350        27
40.360        33
40.370        33
40.380        20
40.390        20
40.400        33
40.410        53
40.420         7
40.430        20
40.440        33
40.450        13
40.460        47
40.470        33
40.480        33
40.490        13
40.500        33
40.510        33
40.520        27
40.530        20
40.540         7
40.550        27
40.560        33
40.570         0
40.580        13
40.590        40
40.600        27
40.610        13
40.620        33
40.630        13
40.640         7
40.650        20
40.660        27
40.670        33
40.680        33
40.690        20
40.700        27
40.710        47
40.720        20
40.730        20
40.740        53
40.750        40
40.760        27
40.770        40
40.780        20
40.790        27
40.800        33
40.810        13
40.820        40
40.830        27
40.840        47
40.850        47
40.860        27
40.870        13
40.880        20
40.890        13
40.900        20
40.910        20
40.920        60
40.930        33
40.940        13
40.950         7
40.960        53
40.970        27
40.980        27
40.990        13
41.000        33
41.010        27
41.020        27
41.030        33
41.040        20
41.050        27
41.060        20
41.070         7
41.080        20
41.090        33
41.100        33
41.110        27
41.120        20
41.130        27
41.140        20
41.150        13
41.160        33
41.170        20
41.180        20
41.190        27
41.200        33
41.210        20
41.220        47
41.230        27
41.240        33
41.250        27
41.260        13
41.270        20
41.280        13
41.290        20
41.300        20
41.310        13
41.320        33
41.330        33
41.340        40
41.350        47
41.360        47
41.370        33
41.380        13
41.390        53
41.400        60
41.410        40
41.420        20
41.430        47
41.440        47
41.450         0
41.460         7
41.470        47
41.480        40
41.490        27
41.500        27
41.510        13
41.520        27
41.530        20
41.540        53
41.550        27
41.560        40
41.570        20
41.580        47
41.590        73
41.600        40
41.610        53
41.620        47
41.630        33
41.640        33
41.650        53
41.660       107
41.670       113
41.680       100
41.690       153
41.700       193
41.710       127
41.720        80
41.730        73
41.740        80
41.750        87
41.760        73
41.770       107
41.780        20
41.790       100
41.800       107
41.810        67
41.820        67
41.830        60
41.840        47
41.850        33
41.860        40
41.870        27
41.880        20
41.890        47
41.900        73
41.910        13
41.920        40
41.930        47
41.940        27
41.950        33
41.960        27
41.970        33
41.980        33
41.990        53
42.000        27
42.010         7
42.020        20
42.030        13
42.040        33
42.050        27
42.060        20
42.070        20
42.080        47
42.090         7
42.100        40
42.110        40
42.120        27
42.130        27
42.140        13
42.150        40
42.160        13
42.170        40
42.180        33
42.190        40
42.200        40
42.210        47
42.220        20
42.230        33
42.240        20
42.250        47
42.260        27
42.270        73
42.280        33
42.290        73
42.300        47
42.310        47
42.320        47
42.330        60
42.340        47
42.350        33
42.360        67
42.370        33
42.380        53
42.390        33
42.400        53
42.410         7
42.420        27
42.430        27
42.440        27
42.450        20
42.460        13
42.470        13
42.480        13
42.490        60
42.500        33
42.510        33
42.520        27
42.530        47
42.540        27
42.550        27
42.560        47
42.570        27
42.580        27
42.590        20
42.600        27
42.610        27
42.620        20
42.630        27
42.640        40
42.650        20
42.660        20
42.670        13
42.680        27
42.690        20
42.700        27
42.710        33
42.720        80
42.730        33
42.740        60
42.750        13
42.760        20
42.770        67
42.780        13
42.790        20
42.800        47
42.810        27
42.820        27
42.830         7
42.840        60
42.850        20
42.860         7
42.870        33
42.880        13
42.890        47
42.900        60
42.910        27
42.920        20
42.930        47
42.940        20
42.950        40
42.960        20
42.970        20
42.980        67
42.990        27
43.000        13
43.010        40
43.020        53
43.030        40
43.040         7
43.050        20
43.060        20
43.070        27
43.080        20
43.090        33
43.100        27
43.110        40
43.120        53
43.130        40
43.140        33
43.150        27
43.160        20
43.170        53
43.180        20
43.190        20
43.200        67
43.210        60
43.220        47
43.230        67
43.240        47
43.250         7
43.260        73
43.270        47
43.280        33
43.290        67
43.300        60
43.310        67
43.320        73
43.330       133
43.340       167
43.350       213
43.360       267
43.370       200
43.380       180
43.390       273
43.400       233
43.410       207
43.420       107
43.430       113
43.440       127
43.450       133
43.460       160
43.470       153
43.480       120
43.490       133
43.500       147
43.510       160
43.520       140
43.530       107
43.540       100
43.550        47
43.560        33
43.570        33
43.580        20
43.590        20
43.600        33
43.610        20
43.620        40
43.630        27
43.640        20
43.650        13
43.660         7
43.670        20
43.680        27
43.690        53
43.700        33
43.710        27
43.720        27
43.730        67
43.740        40
43.750        27
43.760        33
43.770        13
43.780        40
43.790        40
43.800        27
43.810        20
43.820        13
43.830        20
43.840        53
43.850        20
43.860        40
43.870        47
43.880        13
43.890        27
43.900        20
43.910        20
43.920        27
43.930        53
43.940        20
43.950        13
43.960        13
43.970        33
43.980        13
43.990        20
44.000        47
44.010        27
44.020        20
44.030        13
44.040        20
44.050        27
44.060        33
44.070         7
44.080        27
44.090        20
44.100        27
44.110        27
44.120        47
44.130        27
44.140        33
44.150        20
44.160        20
44.170        33
44.180        27
44.190        33
44.200        40
44.210        13
44.220        33
44.230        20
44.240        33
44.250        27
44.260        20
44.270        20
44.280        27
44.290        53
44.300        33
44.310        40
44.320        20
44.330        13
44.340        20
44.350        33
44.360        33
44.370        20
44.380         0
44.390        33
44.400        33
44.410        13
44.420        20
44.430        13
44.440        13
44.450        20
44.460        33
44.470        27
44.480        33
44.490        40
44.500        47
44.510        33
44.520        27
44.530        20
44.540        47
44.550        40
44.560         7
44.570        13
44.580         7
44.590        40
44.600        27
44.610        33
44.620         7
44.630        33
44.640        20
44.650        33
44.660        33
44.670        13
44.680        33
44.690        27
44.700        40
44.710        33
44.720        27
44.730        27
44.740        27
44.750        27
44.760         7
44.770        13
44.780        53
44.790        27
44.800        33
44.810        33
44.820        33
44.830        20
44.840        27
44.850        20
44.860        33
44.870        40
44.880        40
44.890        27
44.900        13
44.910        33
44.920        33
44.930        60
44.940        27
44.950         7
44.960        27
44.970        20
44.980         0
44.990        13
45.000        47
45.010        33
45.020        40
45.030        27
45.040        33
45.050        27
45.060        20
45.070        13
45.080        60
45.090        20
45.100         7
45.110         7
45.120         0
45.130        27
45.140        53
45.150        13
45.160        13
45.170        33
45.180        27
45.190        20
45.200        33
45.210        40
45.220        27
45.230        73
45.240        27
45.250        13
45.260        27
45.270         7
45.280        33
45.290        27
45.300        13
45.310        27
45.320        20
45.330        40
45.340        47
45.350        33
45.360        47
45.370        73
45.380        20
45.390         7
45.400        47
45.410        27
45.420        40
45.430        20
45.440        40
45.450        67
45.460        53
45.470        40
45.480        33
45.490        27
45.500        33
45.510        27
45.520        13
45.530        27
45.540        27
45.550        33
45.560        13
45.570        20
45.580        27
45.590        47
45.600        27
45.610        20
45.620        60
45.630        53
45.640        20
45.650        40
45.660        40
45.670        40
45.680        60
45.690        93
45.700        60
45.710        60
45.720        53
45.730        53
45.740        87
45.750        73
45.760        73
45.770        53
45.780        80
45.790        87
45.800        80
45.810       127
45.820       107
45.830        93
45.840       180
45.850       153
45.860       220
45.870       187
45.880       300
45.890       260
45.900       333
45.910       446
45.920       393
45.930       513
45.940       493
45.950       453
45.960       466
45.970       566
45.980       520
45.990       387
46.000       420
46.010       526
46.020       466
46.030       480
46.040       533
46.050       307
46.060       513
46.070       453
46.080       473
46.090       453
46.100       400
46.110       413
46.120       327
46.130       327
46.140       353
46.150       280
46.160       260
46.170       253
46.180       160
46.190       247
46.200       167
46.210       140
46.220       113
46.230       147
46.240       127
46.250       120
46.260       120
46.270       120
46.280       100
46.290        87
46.300        87
46.310        93
46.320       107
46.330       100
46.340        67
46.350        93
46.360       113
46.370        53
46.380        80
46.390        80
46.400        67
46.410        67
46.420        53
46.430        67
46.440        53
46.450        40
46.460        73
46.470        80
46.480        47
46.490        80
46.500        93
46.510       107
46.520        53
46.530        87
46.540        87
46.550        87
46.560        93
46.570        93
46.580        87
46.590       127
46.600        80
46.610       100
46.620       107
46.630       180
46.640       127
46.650       100
46.660       153
46.670       147
46.680       120
46.690       147
46.700       113
46.710       200
46.720       187
46.730       167
46.740       180
46.750       267
46.760       213
46.770       193
46.780       187
46.790       220
46.800       227
46.810       207
46.820       220
46.830       253
46.840       187
46.850       233
46.860       240
46.870       287
46.880       307
46.890       233
46.900       213
46.910       253
46.920       287
46.930       300
46.940       227
46.950       167
46.960       173
46.970       247
46.980       253
46.990       247
47.000       173
47.010       213
47.020       153
47.030       107
47.040       127
47.050       200
47.060       153
47.070       127
47.080        93
47.090        93
47.100        87
47.110       107
47.120       133
47.130        73
47.140       107
47.150        27
47.160        67
47.170        80
47.180        73
47.190        53
47.200        93
47.210        33
47.220        73
47.230        47
47.240        53
47.250        67
47.260        60
47.270        33
47.280        33
47.290        33
47.300        33
47.310        53
47.320        33
47.330        47
47.340        27
47.350        13
47.360        27
47.370        40
47.380        47
47.390        40
47.400        33
47.410        27
47.420         0
47.430        20
47.440        33
47.450        47
47.460        40
47.470        53
47.480        33
47.490        20
47.500        27
47.510        20
47.520        13
47.530        73
47.540        13
47.550        47
47.560        40
47.570        20
47.580         7
47.590        40
47.600        40
47.610        20
47.620        33
47.630        33
47.640        53
47.650        33
47.660        13
47.670        33
47.680        13
47.690        40
47.700        53
47.710        20
47.720        60
47.730        67
47.740        27
47.750        53
47.760        27
47.770        13
47.780         7
47.790        33
47.800        27
47.810        27
47.820        27
47.830        40
47.840        40
47.850        20
47.860         7
47.870        53
47.880        13
47.890        33
47.900        27
47.910        33
47.920        20
47.930        20
47.940        20
47.950        47
47.960         7
47.970        20
47.980         7
47.990        27
48.000         7
48.010        47
48.020        47
48.030        27
48.040        27
48.050        13
48.060        33
48.070        13
48.080         7
48.090        33
48.100        20
48.110        40
48.120        33
48.130        33
48.140        13
48.150        20
48.160        13
48.170        20
48.180        53
48.190        33
48.200        20
48.210        40
48.220        40
48.230        40
48.240        40
48.250        33
48.260         7
48.270        13
48.280        27
48.290        33
48.300        47
48.310        67
48.320         0
48.330        67
48.340        13
48.350        27
48.360        33
48.370        27
48.380        33
48.390        33
48.400        33
48.410        27
48.420        47
48.430        13
48.440        73
48.450        27
48.460        27
48.470        20
48.480        13
48.490        47
48.500        20
48.510        40
48.520        33
48.530        20
48.540        53
48.550        13
48.560         7
48.570        40
48.580         7
48.590        20
48.600        40
48.610        47
48.620        40
48.630        13
48.640        13
48.650        27
48.660        27
48.670        13
48.680        13
48.690        33
48.700        40
48.710        60
48.720        20
48.730        27
48.740        33
48.750        20
48.760        40
48.770        27
48.780        47
48.790        20
48.800        13
48.810        27
48.820        40
48.830        47
48.840        27
48.850        33
48.860        47
48.870        20
48.880        27
48.890        27
48.900        27
48.910        13
48.920        27
48.930        20
48.940        40
48.950        40
48.960        60
48.970        27
48.980        47
48.990        60
49.000        53
49.010        40
49.020        73
49.030        47
49.040        73
49.050        40
49.060        20
49.070        60
49.080        67
49.090        40
49.100        53
49.110        27
49.120        33
49.130        33
49.140        20
49.150        40
49.160        47
49.170        73
49.180        47
49.190        53
49.200         0
49.210        33
49.220        53
49.230         7
49.240        47
49.250        47
49.260        40
49.270        53
49.280        20
49.290        20
49.300        27
49.310        27
49.320        27
49.330        40
49.340        53
49.350        33
49.360        47
49.370        20
49.380        33
49.390        33
49.400        27
49.410        20
49.420        20
49.430        27
49.440        53
49.450        27
49.460        20
49.470        47
49.480        13
49.490        53
49.500        27
49.510        33
49.520        73
49.530        53
49.540        20
49.550        13
49.560        47
49.570        20
49.580         7
49.590        33
49.600        60
49.610        40
49.620        20
49.630        33
49.640        33
49.650        13
49.660        27
49.670        47
49.680        40
49.690        27
49.700        13
49.710        27
49.720        27
49.730        40
49.740        47
49.750        27
49.760        13
49.770        33
49.780        67
49.790        33
49.800        47
49.810        20
49.820        47
49.830        40
49.840        20
49.850        40
49.860        53
49.870        73
49.880        40
49.890        47
49.900        47
49.910        33
49.920        20
49.930        53
49.940        40
49.950        60
49.960        80
49.970         7
49.980        20
49.990         7
50.000        73
50.010        27
50.020        33
50.030        60
50.040        67
50.050        47
50.060        20
50.070        53
50.080         7
50.090        27
50.100        33
50.110        33
50.120        53
50.130        53
50.140        13
50.150        20
50.160        67
50.170        27
50.180        33
50.190        33
50.200        47
50.210        13
50.220        33
50.230        40
50.240        20
50.250        20
50.260        33
50.270        33
50.280        53
50.290        40
50.300        27
50.310        40
50.320        40
50.330        33
50.340        33
50.350        27
50.360         7
50.370        53
50.380        20
50.390        27
50.400        40
50.410        27
50.420        33
50.430         7
50.440        13
50.450        13
50.460        33
50.470        20
50.480        20
50.490        47
50.500        47
50.510        47
50.520        27
50.530        27
50.540        27
50.550        20
50.560        20
50.570        20
50.580        33
50.590        20
50.600         7
50.610        33
50.620        20
50.630        13
50.640        47
50.650        33
50.660        40
50.670        13
50.680        20
50.690         7
50.700        33
50.710        40
50.720        33
50.730         7
50.740        27
50.750        40
50.760        40
50.770         7
50.780        13
50.790        27
50.800         7
50.810        27
50.820        33
50.830        13
50.840        47
50.850        20
50.860        13
50.870        13
50.880         7
50.890        20
50.900        13
50.910         7
50.920        20
50.930        40
50.940        20
50.950        33
50.960        13
50.970        20
50.980        20
50.990        33
51.000        13
51.010        33
51.020        27
51.030        13
51.040        13
51.050        27
51.060         7
51.070        13
51.080        13
51.090         7
51.100         7
51.110        33
51.120        13
51.130        13
51.140         7
51.150         7
51.160        20
51.170        27
51.180        33
51.190        13
51.200        27
51.210        40
51.220        20
51.230        20
51.240        27
51.250        20
51.260        27
51.270        53
51.280        27
51.290        20
51.300        33
51.310        13
51.320        13
51.330        40
51.340        13
51.350        33
51.360        20
51.370        27
51.380        27
51.390        20
51.400        27
51.410        27
51.420        20
51.430         7
51.440        60
51.450         7
51.460        33
51.470        33
51.480        33
51.490        20
51.500        13
51.510        13
51.520        27
51.530        20
51.540        27
51.550        13
51.560        47
51.570        33
51.580        33
51.590        27
51.600        33
51.610         7
51.620        47
51.630        47
51.640        67
51.650        13
51.660        33
51.670        20
51.680        40
51.690        33
51.700        47
51.710        33
51.720        20
51.730        47
51.740        33
51.750        33
51.760        40
51.770        53
51.780        47
51.790        40
51.800        73
51.810        73
51.820        60
51.830        47
51.840        60
51.850        40
51.860        80
51.870        67
51.880        60
51.890        60
51.900        40
51.910        33
51.920        33
51.930        33
51.940        47
51.950        47
51.960        53
51.970        53
51.980        33
51.990        47
52.000        47
52.010        53
52.020        47
52.030        27
52.040        73
52.050        33
52.060        20
52.070        33
52.080        13
52.090        27
52.100        20
52.110        27
52.120        20
52.130        20
52.140        40
52.150        40
52.160        33
52.170        40
52.180        53
52.190        33
52.200        33
52.210        20
52.220        20
52.230        27
52.240        13
52.250         7
52.260        13
52.270        33
52.280        33
52.290        33
52.300        33
52.310        13
52.320        27
52.330        27
52.340        27
52.350        27
52.360        27
52.370        33
52.380        20
52.390        47
52.400        20
52.410        20
52.420        27
52.430        40
52.440        13
52.450        13
52.460        27
52.470        40
52.480        40
52.490        40
52.500        27
52.510        40
52.520        33
52.530        33
52.540        27
52.550        40
52.560        40
52.570        33
52.580       100
52.590        60
52.600       127
52.610        67
52.620       100
52.630       100
52.640        33
52.650        53
52.660        27
52.670        60
52.680        47
52.690        13
52.700        47
52.710        27
52.720        40
52.730        73
52.740        87
52.750        53
52.760       100
52.770        40
52.780        40
52.790        53
52.800        13
52.810        40
52.820        33
52.830        13
52.840        27
52.850        33
52.860        33
52.870         0
52.880        13
52.890        27
52.900        47
52.910        53
52.920        20
52.930        20
52.940        13
52.950        27
52.960        13
52.970        13
52.980        13
52.990        40
53.000        20
53.010        20
53.020        27
53.030        33
53.040         7
53.050        20
53.060        20
53.070        27
53.080        33
53.090        33
53.100        53
53.110        27
53.120         7
53.130        40
53.140        20
53.150         0
53.160        13
53.170        27
53.180        20
53.190        13
53.200        27
53.210        33
53.220        20
53.230        27
53.240        27
53.250         7
53.260        40
53.270        27
53.280         0
53.290        13
53.300        40
53.310        13
53.320        13
53.330        27
53.340        13
53.350        20
53.360        20
53.370        40
53.380        13
53.390        33
53.400        20
53.410        27
53.420        33
53.430        20
53.440        33
53.450        20
53.460         7
53.470        20
53.480        27
53.490        20
53.500        40
53.510        27
53.520        27
53.530         0
53.540        27
53.550        27
53.560        40
53.570        27
53.580        40
53.590        20
53.600         0
53.610        40
53.620        60
53.630        53
53.640        33
53.650        47
53.660        13
53.670        13
53.680        13
53.690        20
53.700        13
53.710        33
53.720        13
53.730        20
53.740        40
53.750        33
53.760        27
53.770        33
53.780        33
53.790         0
53.800        27
53.810        33
53.820        20
53.830        40
53.840        20
53.850        13
53.860        33
53.870        13
53.880        27
53.890        27
53.900        33
53.910        13
53.920        20
53.930        33
53.940        27
53.950        20
53.960        27
53.970        53
53.980        20
53.990        13
54.000        47
54.010        13
54.020        33
54.030         7
54.040        13
54.050        20
54.060        27
54.070        20
54.080         7
54.090        20
54.100        27
54.110        33
54.120         7
54.130        20
54.140        33
54.150        20
54.160        20
54.170        33
54.180         0
54.190        13
54.200        33
54.210        27
54.220        20
54.230        27
54.240        33
54.250        27
54.260        27
54.270        27
54.280        13
54.290        20
54.300        20
54.310        27
54.320        67
54.330        20
54.340        13
54.350        20
54.360        40
54.370        13
54.380        33
54.390        20
54.400        20
54.410        20
54.420        20
54.430        20
54.440        27
54.450        33
54.460        13
54.470        20
54.480        13
54.490        27
54.500        13
54.510        33
54.520         7
54.530        33
54.540        33
54.550        47
54.560        33
54.570        33
54.580        20
54.590         0
54.600         7
54.610        33
54.620        33
54.630        27
54.640        20
54.650        47
54.660        27
54.670        27
54.680        13
54.690         7
54.700        33
54.710        33
54.720        27
54.730        27
54.740        40
54.750        33
54.760        40
54.770        20
54.780        47
54.790        27
54.800        20
54.810        20
54.820        27
54.830        27
54.840        33
54.850         7
54.860        33
54.870         7
54.880        20
54.890        27
54.900        27
54.910        47
54.920        27
54.930         7
54.940        20
54.950        33
54.960        20
54.970        27
54.980        13
54.990         7
55.000        20
55.010        20
55.020        20
55.030        40
55.040        27
55.050        33
55.060        20
55.070        20
55.080        27
55.090        33
55.100        27
55.110        33
55.120        27
55.130         7
55.140        27
55.150        13
55.160         7
55.170        33
55.180        33
55.190        33
55.200        40
55.210        27
55.220         7
55.230        20
55.240        20
55.250        13
55.260         7
55.270         7
55.280        27
55.290        13
55.300        33
55.310        33
55.320        20
55.330        33
55.340        20
55.350        27
55.360        13
55.370        67
55.380        20
55.390         7
55.400         7
55.410        27
55.420        27
55.430        27
55.440        27
55.450        33
55.460        27
55.470         7
55.480        20
55.490        40
55.500        40
55.510        13
55.520        13
55.530        33
55.540        47
55.550        73
55.560        27
55.570        20
55.580        53
55.590        40
55.600        53
55.610        47
55.620        27
55.630        13
55.640        27
55.650        40
55.660        33
55.670        33
55.680        27
55.690        47
55.700        27
55.710        27
55.720        33
55.730        33
55.740        60
55.750        47
55.760        47
55.770        60
55.780        33
55.790        53
55.800        33
55.810        53
55.820        33
55.830        47
55.840        40
55.850        40
55.860        27
55.870        33
55.880        60
55.890        53
55.900        47
55.910        40
55.920        40
55.930        67
55.940        20
55.950        27
55.960        53
55.970        67
55.980        40
55.990        40
56.000        33
56.010        33
56.020        27
56.030        33
56.040        20
56.050        27
56.060        33
56.070        33
56.080        20
56.090        73
56.100        20
56.110        27
56.120        60
56.130        60
56.140        27
56.150        33
56.160        33
56.170        47
56.180        33
56.190        27
56.200        67
56.210        47
56.220        60
56.230        47
56.240        33
56.250        27
56.260        93
56.270        60
56.280        33
56.290        20
56.300        33
56.310        53
56.320        47
56.330        33
56.340        40
56.350        40
56.360        27
56.370        40
56.380        60
56.390        20
56.400        40
56.410        40
56.420        27
56.430        33
56.440        47
56.450        20
56.460        33
56.470        27
56.480        33
56.490        33
56.500        33
56.510        33
56.520        27
56.530         7
56.540        20
56.550        27
56.560        33
56.570        20
56.580        27
56.590        20
56.600        27
56.610        27
56.620        13
56.630        27
56.640        53
56.650        27
56.660        27
56.670        33
56.680        20
56.690         7
56.700         7
56.710        20
56.720        47
56.730        13
56.740        40
56.750        13
56.760        13
56.770        33
56.780        13
56.790        20
56.800        20
56.810        20
56.820        33
56.830        33
56.840        20
56.850        33
56.860        27
56.870        13
56.880        47
56.890        20
56.900        13
56.910        20
56.920        33
56.930         0
56.940         7
56.950         7
56.960        13
56.970        20
56.980        20
56.990        13
57.000         7
57.010        20
57.020        20
57.030        20
57.040        27
57.050        20
57.060        27
57.070        47
57.080        20
57.090        27
57.100        33
57.110        40
57.120        33
57.130        13
57.140        60
57.150        33
57.160         7
57.170         7
57.180        40
57.190        13
57.200        27
57.210        20
57.220        33
57.230        40
57.240        53
57.250        40
57.260        27
57.270        40
57.280        80
57.290        27
57.300        13
57.310        40
57.320        27
57.330        33
57.340        47
57.350        33
57.360        47
57.370        20
57.380        27
57.390        40
57.400        47
57.410        33
57.420        60
57.430        67
57.440        40
57.450        40
57.460        87
57.470        53
57.480        40
57.490        40
57.500       107
57.510        93
57.520        80
57.530       113
57.540        80
57.550        80
57.560        93
57.570        53
57.580        73
57.590        47
57.600        60
57.610        33
57.620        27
57.630        33
57.640        53
57.650        60
57.660        40
57.670        40
57.680        53
57.690        60
57.700        40
57.710        53
57.720        60
57.730        33
57.740        33
57.750        33
57.760        20
57.770        27
57.780         7
57.790        20
57.800        20
57.810        20
57.820        33
57.830        13
57.840         7
57.850        33
57.860        13
57.870        27
57.880        33
57.890        27
57.900        20
57.910        33
57.920        33
57.930         7
57.940        27
57.950         7
57.960        27
57.970        20
57.980        27
57.990        27
58.000        27
58.010        27
58.020        27
58.030        33
58.040        47
58.050         7
58.060        13
58.070        33
58.080        20
58.090        33
58.100        33
58.110        53
58.120        33
58.130        20
58.140        27
58.150        40
58.160        20
58.170        20
58.180        40
58.190         0
58.200        27
58.210        13
58.220        60
58.230         0
58.240        20
58.250        13
58.260        20
58.270        20
58.280        27
58.290        40
58.300        20
58.310        20
58.320         7
58.330        13
58.340        13
58.350        20
58.360        67
58.370        33
58.380        27
58.390        20
58.400        20
58.410        47
58.420        33
58.430        33
58.440        20
58.450        33
58.460        33
58.470        33
58.480        20
58.490        13
58.500        20
58.510        20
58.520        20
58.530        33
58.540        27
58.550        20
58.560         7
58.570         7
58.580        33
58.590        13
58.600        33
58.610         0
58.620        27
58.630        33
58.640        13
58.650        13
58.660        13
58.670        20
58.680        40
58.690        13
58.700        27
58.710        20
58.720        27
58.730        13
58.740        40
58.750        27
58.760        20
58.770        13
58.780        13
58.790        27
58.800        27
58.810        13
58.820        20
58.830        20
58.840         7
58.850        33
58.860        20
58.870        20
58.880        13
58.890        13
58.900        13
58.910        20
58.920        20
58.930         7
58.940         7
58.950         7
58.960        20
58.970        13
58.980        33
58.990        13
59.000        13
59.010        20
59.020         7
59.030         0
59.040        33
59.050        27
59.060        13
59.070        13
59.080        27
59.090        20
59.100        33
59.110        13
59.120        20
59.130        53
59.140        27
59.150         0
59.160         0
59.170        40
59.180         7
59.190        13
59.200         7
59.210        13
59.220        20
59.230         7
59.240        20
59.250        20
59.260        20
59.270        20
59.280         7
59.290        20
59.300        13
59.310        33
59.320        33
59.330        13
59.340        27
59.350        13
59.360        20
59.370        13
59.380        27
59.390        33
59.400        40
59.410        13
59.420         0
59.430        33
59.440        20
59.450        27
59.460        13
59.470         0
59.480         7
59.490        20
59.500        27
59.510         0
59.520         0
59.530        27
59.540        13
59.550        13
59.560        27
59.570        13
59.580         7
59.590        27
59.600        13
59.610        27
59.620         7
59.630        20
59.640        40
59.650        33
59.660        20
59.670         7
59.680        13
59.690        27
59.700         7
59.710        20
59.720        27
59.730        20
59.740        27
59.750        20
59.760        13
59.770        33
59.780        20
59.790         0
59.800        60
59.810         7
59.820        27
59.830        13
59.840        47
59.850        13
59.860        20
59.870        27
59.880        20
59.890        27
59.900        20
59.910         7
59.920        20
59.930        27
59.940        13
59.950        13
59.960         7
59.970        20
59.980        27
59.990        13
60.000        20
