20.000         0
20.010         0
20.020        27
20.030        27
20.040        27
20.050        13
20.060        40
20.070        80
20.080        80
20.090        40
20.100        53
20.110        53
20.120        53
20.130        67
20.140        53
20.150        13
20.160        40
20.170        53
20.180        40
20.190        40
20.200        27
20.210        53
20.220        27
20.230        80
20.240        40
20.250        53
20.260        67
20.270        40
20.280        40
20.290        13
20.300        53
20.310        27
20.320        40
20.330        53
20.340        67
20.350        53
20.360        80
20.370        40
20.380        67
20.390        27
20.400        80
20.410        40
20.420        40
20.430        53
20.440        40
20.450        80
20.460        53
20.470        27
20.480        27
20.490        40
20.500        67
20.510        80
20.520        53
20.530        53
20.540        13
20.550        40
20.560        80
20.570        27
20.580        27
20.590        27
20.600        67
20.610        67
20.620        80
20.630        40
20.640        27
20.650        53
20.660        40
20.670        13
20.680        13
20.690        40
20.700        40
20.710        40
20.720        80
20.730        53
20.740        27
20.750        80
20.760        13
20.770        53
20.780        40
20.790        53
20.800        40
20.810        93
20.820        40
20.830        13
20.840        53
20.850        40
20.860        80
20.870         0
20.880        67
20.890        13
20.900        93
20.910        53
20.920        27
20.930        53
20.940        40
20.950        53
20.960        13
20.970        27
20.980        13
20.990        40
21.000        27
21.010        27
21.020        67
21.030        93
21.040        40
21.050        40
21.060        67
21.070       120
21.080        67
21.090         0
21.100        53
21.110        67
21.120        53
21.130       133
21.140         0
21.150        27
21.160        67
21.170       107
21.180        40
21.190        53
21.200        40
21.210        80
21.220        40
21.230        27
21.240        13
21.250        53
21.260         0
21.270        93
21.280        53
21.290        27
21.300        40
21.310        27
21.320        27
21.330        53
21.340        80
21.350        40
21.360        13
21.370        67
21.380        13
21.390        93
21.400        13
21.410        27
21.420        40
21.430        27
21.440        67
21.450        67
21.460        40
21.470         0
21.480        13
21.490        27
21.500        27
21.510        53
21.520        53
21.530        40
21.540        13
21.550        13
21.560        27
21.570        40
21.580       107
21.590        53
21.600        93
21.610        80
21.620        13
21.630        40
21.640        13
21.650        67
21.660        80
21.670        27
21.680        80
21.690        93
21.700        67
21.710        40
21.720        27
21.730        67
21.740         0
21.750        67
21.760        13
21.770        27
21.780        40
21.790        40
21.800        67
21.810        40
21.820        40
21.830        67
21.840        53
21.850        40
21.860        13
21.870        40
21.880        40
21.890        53
21.900        40
21.910        67
21.920        27
21.930        27
21.940        13
21.950         0
21.960        80
21.970        53
21.980        27
21.990        53
22.000        53
22.010        53
22.020        67
22.030       107
22.040        53
22.050        27
22.060        13
22.070        40
22.080        27
22.090        67
22.100        27
22.110         0
22.120        53
22.130        40
22.140         0
22.150        40
22.160        13
22.170        27
22.180        53
22.190        93
22.200        53
22.210        40
22.220        40
22.230        67
22.240        40
22.250        67
22.260        67
22.270        27
22.280        67
22.290        53
22.300        67
22.310        93
22.320        67
22.330        40
22.340        40
22.350        40
22.360       147
22.370        40
22.380        13
22.390        80
22.400        80
22.410        53
22.420        67
22.430        67
22.440        67
22.450        80
22.460        67
22.470        80
22.480        53
22.490       107
22.500       147
22.510       227
22.520        80
22.530        80
22.540       133
22.550       160
22.560       213
22.570       120
22.580       133
22.590        93
22.600       160
22.610       120
22.620       107
22.630       107
22.640        53
22.650        53
22.660       120
22.670       160
22.680       173
22.690        80
22.700       107
22.710        93
22.720       107
22.730        80
22.740        53
22.750        93
22.760        80
22.770        67
22.780        93
22.790        40
22.800        93
22.810        13
22.820        53
22.830        40
22.840       147
22.850       120
22.860        80
22.870        93
22.880       160
22.890       147
22.900        93
22.910       107
22.920       133
22.930       147
22.940       120
22.950       120
22.960       173
22.970        80
22.980       133
22.990       120
23.000        27
23.010       107
23.020        80
23.030        53
23.040        13
23.050        80
23.060        80
23.070       107
23.080        67
23.090        53
23.100        40
23.110       120
23.120        13
23.130        53
23.140        40
23.150        67
23.160        27
23.170        40
23.180        40
23.190        13
23.200        27
23.210        80
23.220        40
23.230        27
23.240        80
23.250        13
23.260        40
23.270        13
23.280        13
23.290        13
23.300        27
23.310        27
23.320        53
23.330        93
23.340        27
23.350       133
23.360        40
23.370        13
23.380        13
23.390        67
23.400         0
23.410        27
23.420        40
23.430        13
23.440        27
23.450        53
23.460        93
23.470        40
23.480        93
23.490        27
23.500        27
23.510        40
23.520       107
23.530        53
23.540        67
23.550        27
23.560        13
23.570        27
23.580        67
23.590        53
23.600        13
23.610        13
23.620        67
23.630        27
23.640        53
23.650        53
23.660        27
23.670        27
23.680        53
23.690        27
23.700        27
23.710        80
23.720        40
23.730        40
23.740        67
23.750        53
23.760        53
23.770        27
23.780        80
23.790        80
23.800         0
23.810        13
23.820        40
23.830        53
23.840        13
23.850        40
23.860        27
23.870        13
23.880        80
23.890        27
23.900        13
23.910        40
23.920        40
23.930        40
23.940        53
23.950        80
23.960        27
23.970        40
23.980        53
23.990        53
24.000        27
24.010        13
24.020        80
24.030        27
24.040        53
24.050         0
24.060        40
24.070        27
24.080         0
24.090        13
24.100        27
24.110        13
24.120        40
24.130        40
24.140        27
24.150        27
24.160        27
24.170        40
24.180        27
24.190        53
24.200         0
24.210        40
24.220        40
24.230        27
24.240        40
24.250        27
24.260        40
24.270        80
24.280        80
24.290        27
24.300        67
24.310        40
24.320        40
24.330        40
24.340        27
24.350        40
24.360        13
24.370        40
24.380        67
24.390        67
24.400        40
24.410        80
24.420        27
24.430        40
24.440        53
24.450        53
24.460        27
24.470        13
24.480        27
24.490        53
24.500        53
24.510        40
24.520        53
24.530        53
24.540        93
24.550        93
24.560        40
24.570        53
24.580        27
24.590        53
24.600        40
24.610        40
24.620        80
24.630        13
24.640        27
24.650        40
24.660        13
24.670        27
24.680       107
24.690        27
24.700        40
24.710        27
24.720        27
24.730        27
24.740        93
24.750        13
24.760        53
24.770        27
24.780        40
24.790        40
24.800        53
24.810        13
24.820        80
24.830        40
24.840        27
24.850        27
24.860        40
24.870         0
24.880        40
24.890        27
24.900        40
24.910        40
24.920         0
24.930        13
24.940        40
24.950        93
24.960        27
24.970        40
24.980        40
24.990        40
25.000        13
25.010        53
25.020        27
25.030        27
25.040        40
25.050        53
25.060        53
25.070        27
25.080        53
25.090         0
25.100        80
25.110         0
25.120         0
25.130        27
25.140        67
25.150        40
25.160        40
25.170        40
25.180        13
25.190        40
25.200        40
25.210        40
25.220         0
25.230        13
25.240        67
25.250        40
25.260         0
25.270        53
25.280        80
25.290        67
25.300        53
25.310        27
25.320        40
25.330        27
25.340        67
25.350        40
25.360        27
25.370        13
25.380        27
25.390        13
25.400        13
25.410        13
25.420        13
25.430        27
25.440         0
25.450        27
25.460        40
25.470         0
25.480        27
25.490        13
25.500        53
25.510        53
25.520        53
25.530        93
25.540        27
25.550        40
25.560        27
25.570        27
25.580        53
25.590        80
25.600        67
25.610       107
25.620        53
25.630        80
25.640        27
25.650       107
25.660        80
25.670        53
25.680       160
25.690        93
25.700       107
25.710        80
25.720        80
25.730        67
25.740       107
25.750       107
25.760        67
25.770       160
25.780       160
25.790       120
25.800        80
25.810       107
25.820       173
25.830       147
25.840       120
25.850       160
25.860        93
25.870       120
25.880       147
25.890        67
25.900       133
25.910        67
25.920       120
25.930        93
25.940        40
25.950        93
25.960        67
25.970        53
25.980        27
25.990        40
26.000        80
26.010        80
26.020        40
26.030        53
26.040        53
26.050        27
26.060        27
26.070        13
26.080        80
26.090        40
26.100        40
26.110        27
26.120        27
26.130        40
26.140        13
26.150        27
26.160        27
26.170        27
26.180        40
26.190        13
26.200         0
26.210        13
26.220         0
26.230        27
26.240        27
26.250        67
26.260         0
26.270        27
26.280        40
26.290        40
26.300        27
26.310        27
26.320        53
26.330        53
26.340        13
26.350        53
26.360        13
26.370        13
26.380        40
26.390        53
26.400        40
26.410        13
26.420        13
26.430        27
26.440        13
26.450        40
26.460        40
26.470        67
26.480        13
26.490        27
26.500         0
26.510        27
26.520        53
26.530        67
26.540        40
26.550        27
26.560         0
26.570        13
26.580        40
26.590        27
26.600        40
26.610        40
26.620        53
26.630        67
26.640        13
26.650         0
26.660        13
26.670        40
26.680        53
26.690        53
26.700        27
26.710        40
26.720        27
26.730        93
26.740        27
26.750         0
26.760        27
26.770        27
26.780        53
26.790        13
26.800        27
26.810        40
26.820        27
26.830        67
26.840        27
26.850        13
26.860        27
26.870        13
26.880        13
26.890        40
26.900        13
26.910        27
26.920        40
26.930        13
26.940        40
26.950        27
26.960         0
26.970        13
26.980        27
26.990        13
27.000        27
27.010         0
27.020        27
27.030         0
27.040        40
27.050        40
27.060        67
27.070        13
27.080        27
27.090        53
27.100         0
27.110        13
27.120         0
27.130        40
27.140        13
27.150        13
27.160        40
27.170        27
27.180        27
27.190        13
27.200         0
27.210        27
27.220        40
27.230        27
27.240        40
27.250        27
27.260        13
27.270        13
27.280        27
27.290         0
27.300        80
27.310        40
27.320        27
27.330        40
27.340        67
27.350        53
27.360        40
27.370        27
27.380         0
27.390         0
27.400        40
27.410        40
27.420        40
27.430        40
27.440        27
27.450         0
27.460        27
27.470        67
27.480        40
27.490        40
27.500        40
27.510        67
27.520        27
27.530        53
27.540        40
27.550        40
27.560        40
27.570        53
27.580        53
27.590         0
27.600        40
27.610        67
27.620        67
27.630        27
27.640        27
27.650        40
27.660        67
27.670        13
27.680        27
27.690        93
27.700        67
27.710        40
27.720        67
27.730         0
27.740        53
27.750        40
27.760        80
27.770        53
27.780        53
27.790        13
27.800        40
27.810        27
27.820        27
27.830        53
27.840       120
27.850        40
27.860        40
27.870        53
27.880        13
27.890        40
27.900        13
27.910        40
27.920        27
27.930        27
27.940        53
27.950        27
27.960        13
27.970        53
27.980        27
27.990        40
28.000        53
28.010        40
28.020        27
28.030        53
28.040        67
28.050        40
28.060        27
28.070        40
28.080        53
28.090        13
28.100        80
28.110        40
28.120        67
28.130        53
28.140        27
28.150        80
28.160        67
28.170        27
28.180        67
28.190        40
28.200        40
28.210        53
28.220        27
28.230        40
28.240         0
28.250        80
28.260        93
28.270        40
28.280        53
28.290       107
28.300       120
28.310        80
28.320        53
28.330        27
28.340        67
28.350        67
28.360        93
28.370        67
28.380        80
28.390        40
28.400        53
28.410        67
28.420        80
28.430        27
28.440        67
28.450        67
28.460        53
28.470        13
28.480        27
28.490        80
28.500        67
28.510        93
28.520        13
28.530        67
28.540        40
28.550        53
28.560        27
28.570        67
28.580        13
28.590        27
28.600        40
28.610        53
28.620        93
28.630       107
28.640        93
28.650        67
28.660        67
28.670       107
28.680        93
28.690        80
28.700        53
28.710        53
28.720        40
28.730        93
28.740        80
28.750        67
28.760        93
28.770        67
28.780        53
28.790       120
28.800       120
28.810        93
28.820        80
28.830        80
28.840        40
28.850       107
28.860       147
28.870       120
28.880        93
28.890       107
28.900        53
28.910       120
28.920        93
28.930        67
28.940        80
28.950       147
28.960        80
28.970       107
28.980        80
28.990       187
29.000       133
29.010       120
29.020        80
29.030        93
29.040       187
29.050       147
29.060       173
29.070       240
29.080       160
29.090       107
29.100       120
29.110        40
29.120        93
29.130        93
29.140       200
29.150        80
29.160       133
29.170       107
29.180        27
29.190       133
29.200        80
29.210        93
29.220       107
29.230       120
29.240       107
29.250        80
29.260       120
29.270       147
29.280       120
29.290        80
29.300       120
29.310       160
29.320       133
29.330       160
29.340        93
29.350       147
29.360       107
29.370        93
29.380       147
29.390       120
29.400       160
29.410        67
29.420        93
29.430        67
29.440       120
29.450       173
29.460       173
29.470       120
29.480       120
29.490       120
29.500       147
29.510       147
29.520       107
29.530       120
29.540       267
29.550       173
29.560       240
29.570       213
29.580       200
29.590       413
29.600       240
29.610       373
29.620       267
29.630       227
29.640       187
29.650       267
29.660       280
29.670       333
29.680       253
29.690       173
29.700       133
29.710       173
29.720       107
29.730        67
29.740        53
29.750        93
29.760       160
29.770        93
29.780       107
29.790        53
29.800        93
29.810        67
29.820        40
29.830        27
29.840        53
29.850        40
29.860        13
29.870        67
29.880        67
29.890        53
29.900        40
29.910        67
29.920        40
29.930        27
29.940        13
29.950        27
29.960        27
29.970        67
29.980        13
29.990        13
30.000        27
30.010        27
30.020        53
30.030        40
30.040        13
30.050        27
30.060        40
30.070        40
30.080        27
30.090        27
30.100        53
30.110        40
30.120        13
30.130        67
30.140        40
30.150        40
30.160        53
30.170        13
30.180        40
30.190        27
30.200        13
30.210         0
30.220        40
30.230        53
30.240        40
30.250        27
30.260        40
30.270        53
30.280        27
30.290        13
30.300        40
30.310        53
30.320        53
30.330        13
30.340        13
30.350        93
30.360        13
30.370        13
30.380       120
30.390        53
30.400        93
30.410        53
30.420        27
30.430        80
30.440       147
30.450        53
30.460        93
30.470        80
30.480       120
30.490        93
30.500        13
30.510        27
30.520       133
30.530        93
30.540       133
30.550        93
30.560        80
30.570        93
30.580        40
30.590        67
30.600        40
30.610        27
30.620        93
30.630        53
30.640        27
30.650        53
30.660        13
30.670        53
30.680        27
30.690        27
30.700        13
30.710        67
30.720        27
30.730        53
30.740        13
30.750        13
30.760        13
30.770        67
30.780        13
30.790        27
30.800        67
30.810        27
30.820        13
30.830        13
30.840         0
30.850        93
30.860        27
30.870        53
30.880         0
30.890         0
30.900        40
30.910        40
30.920        13
30.930        13
30.940        40
30.950        27
30.960        67
30.970         0
30.980         0
30.990        13
31.000        67
31.010        27
31.020        13
31.030        27
31.040        40
31.050        27
31.060        13
31.070        13
31.080        67
31.090        53
31.100        40
31.110        27
31.120        13
31.130        27
31.140        13
31.150         0
31.160        40
31.170        80
31.180        93
31.190        27
31.200        13
31.210        27
31.220        40
31.230         0
31.240        13
31.250        13
31.260        27
31.270        40
31.280        27
31.290        13
31.300        13
31.310        27
31.320         0
31.330        80
31.340        80
31.350        53
31.360        13
31.370       120
31.380         0
31.390        27
31.400        27
31.410        27
31.420        13
31.430        13
31.440        27
31.450        13
31.460         0
31.470        80
31.480        53
31.490        53
31.500        27
31.510        13
31.520        53
31.530        13
31.540         0
31.550        27
31.560        13
31.570         0
31.580        27
31.590        40
31.600        27
31.610        13
31.620        27
31.630        13
31.640        13
31.650        27
31.660        67
31.670        13
31.680        53
31.690        67
31.700        13
31.710         0
31.720        67
31.730        67
31.740        40
31.750        53
31.760        53
31.770        27
31.780        40
31.790        27
31.800        40
31.810        40
31.820        80
31.830         0
31.840        67
31.850        13
31.860        13
31.870        13
31.880        40
31.890        27
31.900        27
31.910        53
31.920        53
31.930        27
31.940        27
31.950        13
31.960        27
31.970        53
31.980        53
31.990        67
32.000        80
32.010        40
32.020        40
32.030        93
32.040        40
32.050        80
32.060        80
32.070       120
32.080        93
32.090       107
32.100        93
32.110        80
32.120        93
32.130       147
32.140       160
32.150       120
32.160       107
32.170       133
32.180       173
32.190        93
32.200       107
32.210        93
32.220       213
32.230        93
32.240       133
32.250        67
32.260        80
32.270        93
32.280       107
32.290        80
32.300        53
32.310        80
32.320        80
32.330        67
32.340        40
32.350        40
32.360        40
32.370        40
32.380        27
32.390        27
32.400        67
32.410        80
32.420        40
32.430        53
32.440        40
32.450        40
32.460        27
32.470        27
32.480         0
32.490        13
32.500        13
32.510        40
32.520        53
32.530        40
32.540        13
32.550        40
32.560        40
32.570         0
32.580        27
32.590        40
32.600        53
32.610        13
32.620        67
32.630        67
32.640        27
32.650         0
32.660        53
32.670        13
32.680        53
32.690        67
32.700        27
32.710        13
32.720        67
32.730        27
32.740        27
32.750         0
32.760         0
32.770        27
32.780        40
32.790        13
32.800        40
32.810        53
32.820         0
32.830        40
32.840        53
32.850        53
32.860         0
32.870        13
32.880        27
32.890        67
32.900        27
32.910        13
32.920         0
32.930        13
32.940        13
32.950        27
32.960        27
32.970        53
32.980        40
32.990        27
33.000        13
33.010        53
33.020        40
33.030        13
33.040        80
33.050        27
33.060        13
33.070        40
33.080        27
33.090         0
33.100        13
33.110        13
33.120        13
33.130        13
33.140        13
33.150        13
33.160        40
33.170        53
33.180        40
33.190        40
33.200        13
33.210        93
33.220        27
33.230        27
33.240        13
33.250         0
33.260        27
33.270        27
33.280        27
33.290         0
33.300        13
33.310        27
33.320        13
33.330        27
33.340        13
33.350        27
33.360        13
33.370        27
33.380        40
33.390         0
33.400        13
33.410        80
33.420        13
33.430         0
33.440        53
33.450        27
33.460        13
33.470        13
33.480        27
33.490        13
33.500         0
33.510        13
33.520        13
33.530        13
33.540         0
33.550        40
33.560        27
33.570        13
33.580        13
33.590        13
33.600        13
33.610        40
33.620         0
33.630         0
33.640         0
33.650         0
33.660        13
33.670        67
33.680        27
33.690        27
33.700        40
33.710        53
33.720        27
33.730         0
33.740         0
33.750        13
33.760        40
33.770        13
33.780        40
33.790        40
33.800        27
33.810        27
33.820         0
33.830        13
33.840        27
33.850        13
33.860         0
33.870        13
33.880         0
33.890         0
33.900         0
33.910        27
33.920        27
33.930         0
33.940        27
33.950         0
33.960        27
33.970        13
33.980         0
33.990        27
34.000        13
34.010        13
34.020        13
34.030        27
34.040         0
34.050        40
34.060        13
34.070        13
34.080        13
34.090        40
34.100        53
34.110        53
34.120        13
34.130        13
34.140        27
34.150        27
34.160        40
34.170        27
34.180         0
34.190        27
34.200        27
34.210        27
34.220        27
34.230         0
34.240        27
34.250         0
34.260        27
34.270        27
34.280        40
34.290        53
34.300        13
34.310        27
34.320         0
34.330        40
34.340        13
34.350        80
34.360         0
34.370        53
34.380        53
34.390        40
34.400        40
34.410         0
34.420         0
34.430         0
34.440        40
34.450         0
34.460        27
34.470        27
34.480        27
34.490        53
34.500        40
34.510        40
34.520        13
34.530        53
34.540        27
34.550        40
34.560        93
34.570        13
34.580        13
34.590        40
34.600        80
34.610        13
34.620        27
34.630        40
34.640        40
34.650        27
34.660        40
34.670        93
34.680        27
34.690        53
34.700         0
34.710         0
34.720        13
34.730        53
34.740        53
34.750        13
34.760        13
34.770        13
34.780        13
34.790         0
34.800        40
34.810        13
34.820        13
34.830        27
34.840        40
34.850        53
34.860        27
34.870        13
34.880        13
34.890        13
34.900        40
34.910        40
34.920        40
34.930        13
34.940         0
34.950        40
34.960        13
34.970        53
34.980         0
34.990        27
35.000        53
35.010        40
35.020        27
35.030        40
35.040        27
35.050        13
35.060        67
35.070        40
35.080        27
35.090        40
35.100        27
35.110        27
35.120        53
35.130        53
35.140        67
35.150        53
35.160        53
35.170        80
35.180       133
35.190        53
35.200        27
35.210        67
35.220        40
35.230        80
35.240        40
35.250        53
35.260        40
35.270        27
35.280        40
35.290        53
35.300        40
35.310         0
35.320        27
35.330        27
35.340        53
35.350        67
35.360        53
35.370         0
35.380         0
35.390        27
35.400        27
35.410         0
35.420        13
35.430         0
35.440        53
35.450        13
35.460        13
35.470        13
35.480        13
35.490         0
35.500        40
35.510        27
35.520        13
35.530        27
35.540        13
35.550        40
35.560         0
35.570        27
35.580        27
35.590        13
35.600        13
35.610        13
35.620         0
35.630        13
35.640        13
35.650         0
35.660        13
35.670         0
35.680        13
35.690        13
35.700        27
35.710        13
35.720        27
35.730        40
35.740         0
35.750        27
35.760        27
35.770        27
35.780        40
35.790        67
35.800        27
35.810         0
35.820        40
35.830        13
35.840        27
35.850        40
35.860        13
35.870        13
35.880         0
35.890        40
35.900        27
35.910        27
35.920        53
35.930        53
35.940        53
35.950        13
35.960        40
35.970        27
35.980        40
35.990        40
36.000        27
36.010        53
36.020        53
36.030         0
36.040        13
36.050        40
36.060        13
36.070        27
36.080        40
36.090         0
36.100        27
36.110        13
36.120        13
36.130         0
36.140        27
36.150        40
36.160        40
36.170        27
36.180        27
36.190         0
36.200        67
36.210        27
36.220        13
36.230         0
36.240        53
36.250        13
36.260        40
36.270        27
36.280        40
36.290        27
36.300        13
36.310        13
36.320        13
36.330        13
36.340        13
36.350        13
36.360        13
36.370        40
36.380        13
36.390         0
36.400        40
36.410         0
36.420        27
36.430        13
36.440        53
36.450        27
36.460        27
36.470        40
36.480        27
36.490         0
36.500        27
36.510         0
36.520        40
36.530        13
36.540         0
36.550        40
36.560        27
36.570        13
36.580        27
36.590        27
36.600        13
36.610        40
36.620        13
36.630        13
36.640        40
36.650        40
36.660        13
36.670         0
36.680        53
36.690        27
36.700        40
36.710         0
36.720        53
36.730        13
36.740         0
36.750        13
36.760        13
36.770        27
36.780        13
36.790        13
36.800        27
36.810        13
36.820        27
36.830        27
36.840        40
36.850         0
36.860        13
36.870        53
36.880        67
36.890        27
36.900        27
36.910        13
36.920        13
36.930        40
36.940        13
36.950        27
36.960        27
36.970        13
36.980        13
36.990        13
37.000        13
37.010        27
37.020        27
37.030        40
37.040        40
37.050         0
37.060         0
37.070        27
37.080        27
37.090        13
37.100        13
37.110        27
37.120        27
37.130        27
37.140        27
37.150        40
37.160        27
37.170        13
37.180         0
37.190        27
37.200        13
37.210        13
37.220        13
37.230        13
37.240        13
37.250        27
37.260        27
37.270        27
37.280         0
37.290        27
37.300        13
37.310        13
37.320         0
37.330        27
37.340         0
37.350         0
37.360        80
37.370        53
37.380        13
37.390        27
37.400        40
37.410        40
37.420        40
37.430        27
37.440        53
37.450        53
37.460        13
37.470         0
37.480        13
37.490        13
37.500        40
37.510        53
37.520        27
37.530        27
37.540        13
37.550        27
37.560        27
37.570        27
37.580        13
37.590        53
37.600        27
37.610        13
37.620        13
37.630         0
37.640         0
37.650        13
37.660        27
37.670        40
37.680        40
37.690         0
37.700        13
37.710        67
37.720        13
37.730        53
37.740        40
37.750        13
37.760        40
37.770        13
37.780        13
37.790        13
37.800        27
37.810        13
37.820        53
37.830        13
37.840        27
37.850        27
37.860        13
37.870        27
37.880        53
37.890        27
37.900        27
37.910        13
37.920        13
37.930        13
37.940        40
37.950         0
37.960        53
37.970        53
37.980        40
37.990        13
38.000        13
38.010         0
38.020        53
38.030         0
38.040        27
38.050         0
38.060        13
38.070        13
38.080        53
38.090        40
38.100        40
38.110         0
38.120        40
38.130        27
38.140        40
38.150        40
38.160        53
38.170        27
38.180        27
38.190        67
38.200        13
38.210        27
38.220        53
38.230        27
38.240         0
38.250        40
38.260        13
38.270        40
38.280        27
38.290        27
38.300        13
38.310        53
38.320        27
38.330        27
38.340         0
38.350        53
38.360        27
38.370         0
38.380        27
38.390        27
38.400        40
38.410        13
38.420        27
38.430        40
38.440        13
38.450         0
38.460        80
38.470        40
38.480         0
38.490        27
38.500        13
38.510        40
38.520        27
38.530        67
38.540        27
38.550         0
38.560        27
38.570         0
38.580        27
38.590         0
38.600         0
38.610         0
38.620        27
38.630        27
38.640         0
38.650        13
38.660        40
38.670        13
38.680        27
38.690        13
38.700        13
38.710        40
38.720         0
38.730         0
38.740        13
38.750         0
38.760        13
38.770        27
38.780        27
38.790        53
38.800         0
38.810        13
38.820        40
38.830        27
38.840        27
38.850        13
38.860        40
38.870        27
38.880        67
38.890        53
38.900        13
38.910         0
38.920        27
38.930        40
38.940        13
38.950        67
38.960        40
38.970        53
38.980        13
38.990        53
39.000        27
39.010        40
39.020         0
39.030        13
39.040        40
39.050        40
39.060        67
39.070        53
39.080        40
39.090        13
39.100        67
39.110        27
39.120        53
39.130        13
39.140        40
39.150        27
39.160        13
39.170        40
39.180         0
39.190        27
39.200        80
39.210        27
39.220        27
39.230        27
39.240         0
39.250        40
39.260        27
39.270        40
39.280        27
39.290        40
39.300        53
39.310        13
39.320        40
39.330        13
39.340        27
39.350        40
39.360        27
39.370        40
39.380        53
39.390        13
39.400        40
39.410        40
39.420        53
39.430         0
39.440        67
39.450        13
39.460         0
39.470        40
39.480        27
39.490        27
39.500        53
39.510        53
39.520        27
39.530        53
39.540         0
39.550        13
39.560        53
39.570        53
39.580        27
39.590        27
39.600         0
39.610        27
39.620        13
39.630        13
39.640        13
39.650         0
39.660        40
39.670        67
39.680        53
39.690        27
39.700         0
39.710        40
39.720        13
39.730        27
39.740        13
39.750         0
39.760        13
39.770        53
39.780        13
39.790        40
39.800         0
39.810         0
39.820        27
39.830         0
39.840        27
39.850         0
39.860        27
39.870         0
39.880        53
39.890        40
39.900         0
39.910        13
39.920        27
39.930        27
39.940        27
39.950        13
39.960        13
39.970        27
39.980        13
39.990         0
40.000        13
40.010        13
40.020        27
40.030        40
40.040         0
40.050        13
40.060        27
40.070        40
40.080        40
40.090        27
40.100        27
40.110        53
40.120        13
40.130         0
40.140         0
40.150        27
40.160        53
40.170        13
40.180        13
40.190        53
40.200        40
40.210        13
40.220        13
40.230        40
40.240        40
40.250        27
40.260        93
40.270        27
40.280        13
40.290        13
40.300        53
40.310        27
40.320        27
40.330        40
40.340         0
40.350        40
40.360        53
40.370        27
40.380         0
40.390        13
40.400        13
40.410        27
40.420        53
40.430        40
40.440        13
40.450        27
40.460        27
40.470        13
40.480         0
40.490         0
40.500        27
40.510        13
40.520       120
40.530       107
40.540        27
40.550        13
40.560        40
40.570        13
40.580        13
40.590        53
40.600        53
40.610        27
40.620        13
40.630        40
40.640        13
40.650        27
40.660        13
40.670        13
40.680        27
40.690        13
40.700        27
40.710        13
40.720         0
40.730        27
40.740        40
40.750        80
40.760        27
40.770        40
40.780        13
40.790        13
40.800        13
40.810        27
40.820        27
40.830         0
40.840        13
40.850        27
40.860        40
40.870        27
40.880        27
40.890         0
40.900         0
40.910        27
40.920        27
40.930        13
40.940        40
40.950        27
40.960        27
40.970        27
40.980        13
40.990        13
41.000        27
41.010        27
41.020        13
41.030        13
41.040        53
41.050        27
41.060        40
41.070        13
41.080        53
41.090        13
41.100        27
41.110        27
41.120         0
41.130        67
41.140        13
41.150         0
41.160        40
41.170        53
41.180        13
41.190         0
41.200         0
41.210        27
41.220        13
41.230        40
41.240        13
41.250         0
41.260         0
41.270        27
41.280        40
41.290        27
41.300        53
41.310        13
41.320         0
41.330        40
41.340        27
41.350        13
41.360        27
41.370        40
41.380        27
41.390        13
41.400        40
41.410        40
41.420        13
41.430        13
41.440        27
41.450        27
41.460        27
41.470        53
41.480         0
41.490        40
41.500        53
41.510        27
41.520        40
41.530        27
41.540        27
41.550        40
41.560        27
41.570        53
41.580        40
41.590        27
41.600        27
41.610        13
41.620        27
41.630        67
41.640        67
41.650        53
41.660        40
41.670        80
41.680       120
41.690        80
41.700       133
41.710       107
41.720       120
41.730       173
41.740        93
41.750        93
41.760        80
41.770        53
41.780        93
41.790        53
41.800        80
41.810       120
41.820       133
41.830       107
41.840        67
41.850         0
41.860       120
41.870        67
41.880        67
41.890        67
41.900        27
41.910        53
41.920        13
41.930        53
41.940        40
41.950        13
41.960        80
41.970        27
41.980        13
41.990        27
42.000        40
42.010        13
42.020        40
42.030        40
42.040         0
42.050        27
42.060        13
42.070        13
42.080        27
42.090         0
42.100         0
42.110        53
42.120        40
42.130        53
42.140        13
42.150        40
42.160        13
42.170        13
42.180        53
42.190        13
42.200        40
42.210        13
42.220        53
42.230         0
42.240        40
42.250        67
42.260        53
42.270        80
42.280        67
42.290        80
42.300        67
42.310        27
42.320        53
42.330         0
42.340        13
42.350       107
42.360        67
42.370        53
42.380        53
42.390        80
42.400        80
42.410        40
42.420         0
42.430        13
42.440        67
42.450         0
42.460        67
42.470        53
42.480        80
42.490        13
42.500        40
42.510        80
42.520        13
42.530        27
42.540        53
42.550        40
42.560        13
42.570        27
42.580        53
42.590        13
42.600        27
42.610        27
42.620        13
42.630        67
42.640        27
42.650        13
42.660        67
42.670        40
42.680        13
42.690        27
42.700        67
42.710        27
42.720        27
42.730        27
42.740        40
42.750        13
42.760        27
42.770        13
42.780        13
42.790        40
42.800        27
42.810        27
42.820        13
42.830        80
42.840        27
42.850        53
42.860         0
42.870        13
42.880         0
42.890        13
42.900        27
42.910         0
42.920        13
42.930        40
42.940        27
42.950         0
42.960         0
42.970        13
42.980        13
42.990        40
43.000        40
43.010        27
43.020        53
43.030        53
43.040        27
43.050        40
43.060        53
43.070        40
43.080        67
43.090         0
43.100        67
43.110        53
43.120        40
43.130        53
43.140        13
43.150        53
43.160        27
43.170        13
43.180        40
43.190        27
43.200         0
43.210        40
43.220        13
43.230        13
43.240        27
43.250        93
43.260        53
43.270        27
43.280        40
43.290        13
43.300        27
43.310        13
43.320        53
43.330        40
43.340        27
43.350        40
43.360        53
43.370        40
43.380       147
43.390        13
43.400       147
43.410         0
43.420        93
43.430        67
43.440       107
43.450        67
43.460        93
43.470        67
43.480        40
43.490        27
43.500        27
43.510        67
43.520       107
43.530         0
43.540        27
43.550        40
43.560         0
43.570        40
43.580        40
43.590        27
43.600        27
43.610        13
43.620         0
43.630        40
43.640        53
43.650        27
43.660        27
43.670        40
43.680        40
43.690        40
43.700         0
43.710        93
43.720        27
43.730        27
43.740         0
43.750        67
43.760        27
43.770        67
43.780        40
43.790        53
43.800         0
43.810        27
43.820        40
43.830        53
43.840        13
43.850        53
43.860        13
43.870        13
43.880        27
43.890        27
43.900        40
43.910        27
43.920        53
43.930        13
43.940         0
43.950        27
43.960        13
43.970        13
43.980        40
43.990         0
44.000        67
44.010        13
44.020        40
44.030        13
44.040        13
44.050         0
44.060        13
44.070        27
44.080        13
44.090        27
44.100        53
44.110        40
44.120        13
44.130        53
44.140        40
44.150         0
44.160         0
44.170        53
44.180        53
44.190        40
44.200        27
44.210        40
44.220        27
44.230        40
44.240        13
44.250        13
44.260         0
44.270        27
44.280        13
44.290         0
44.300        13
44.310        27
44.320        40
44.330        27
44.340        27
44.350        27
44.360        27
44.370        53
44.380        40
44.390        53
44.400         0
44.410        13
44.420        53
44.430        40
44.440        27
44.450        53
44.460        27
44.470        27
44.480        13
44.490         0
44.500        40
44.510        40
44.520         0
44.530         0
44.540        27
44.550         0
44.560        27
44.570        27
44.580        27
44.590        13
44.600        40
44.610        27
44.620        53
44.630        27
44.640        13
44.650        13
44.660        13
44.670        27
44.680         0
44.690         0
44.700        13
44.710        27
44.720        27
44.730        53
44.740        13
44.750        13
44.760        27
44.770         0
44.780        13
44.790        13
44.800        13
44.810        27
44.820        13
44.830         0
44.840        80
44.850        53
44.860         0
44.870        27
44.880        53
44.890         0
44.900        13
44.910        27
44.920        13
44.930        27
44.940        53
44.950         0
44.960        27
44.970         0
44.980        53
44.990        40
45.000         0
45.010        40
45.020        13
45.030         0
45.040        13
45.050        27
45.060        13
45.070        40
45.080        27
45.090        13
45.100         0
45.110        40
45.120        13
45.130        53
45.140        13
45.150         0
45.160         0
45.170        13
45.180        40
45.190        27
45.200         0
45.210         0
45.220        27
45.230        27
45.240        27
45.250        40
45.260        13
45.270        13
45.280        13
45.290         0
45.300        13
45.310        13
45.320        27
45.330         0
45.340        27
45.350        80
45.360        13
45.370        27
45.380         0
45.390        27
45.400        13
45.410        13
45.420        53
45.430        13
45.440        13
45.450        13
45.460        40
45.470        67
45.480         0
45.490        13
45.500        27
45.510        13
45.520        40
45.530        40
45.540        27
45.550        40
45.560        27
45.570        67
45.580        27
45.590        27
45.600         0
45.610         0
45.620         0
45.630        27
45.640        53
45.650        27
45.660        13
45.670        27
45.680        27
45.690        40
45.700        40
45.710         0
45.720        40
45.730         0
45.740        40
45.750        13
45.760        13
45.770         0
45.780        13
45.790        27
45.800        53
45.810        13
45.820         0
45.830        40
45.840        40
45.850        67
45.860        40
45.870         0
45.880        40
45.890        67
45.900        67
45.910        27
45.920        80
45.930        40
45.940        67
45.950        40
45.960        80
45.970        67
45.980        93
45.990        93
46.000        67
46.010        93
46.020        53
46.030        53
46.040       133
46.050       120
46.060       133
46.070        53
46.080       187
46.090       133
46.100        40
46.110        93
46.120        80
46.130       107
46.140       147
46.150        80
46.160        93
46.170        93
46.180       133
46.190        67
46.200        67
46.210        93
46.220       107
46.230        80
46.240       107
46.250        27
46.260        67
46.270        67
46.280        40
46.290        53
46.300        80
46.310        93
46.320        53
46.330       120
46.340        40
46.350        53
46.360        27
46.370        67
46.380        53
46.390        13
46.400        27
46.410        40
46.420        27
46.430        40
46.440        27
46.450        27
46.460        67
46.470        53
46.480        40
46.490        27
46.500        27
46.510        27
46.520        40
46.530        13
46.540        13
46.550        27
46.560        13
46.570        40
46.580        27
46.590        40
46.600        40
46.610        13
46.620         0
46.630        13
46.640        67
46.650        67
46.660         0
46.670        13
46.680        40
46.690        67
46.700        40
46.710        40
46.720        13
46.730        53
46.740        93
46.750        27
46.760        27
46.770        40
46.780       107
46.790        53
46.800        80
46.810       107
46.820       120
46.830       120
46.840        53
46.850        93
46.860        93
46.870        93
46.880        53
46.890       120
46.900       107
46.910        53
46.920        40
46.930       133
46.940        67
46.950        93
46.960        93
46.970        27
46.980        13
46.990        67
47.000        53
47.010        27
47.020        67
47.030        27
47.040       107
47.050        40
47.060        27
47.070        40
47.080        27
47.090        40
47.100        53
47.110        53
47.120        27
47.130        53
47.140        40
47.150        40
47.160        27
47.170        53
47.180        53
47.190         0
47.200        80
47.210        53
47.220        67
47.230        40
47.240         0
47.250        40
47.260        40
47.270         0
47.280        27
47.290        13
47.300        80
47.310        27
47.320        40
47.330        13
47.340         0
47.350        53
47.360        40
47.370        80
47.380        53
47.390        27
47.400        53
47.410        53
47.420        27
47.430        40
47.440        27
47.450        13
47.460        27
47.470        53
47.480        53
47.490        53
47.500        13
47.510        53
47.520        40
47.530        27
47.540        40
47.550        53
47.560        27
47.570        27
47.580        27
47.590        13
47.600        27
47.610        40
47.620        67
47.630        13
47.640        80
47.650        27
47.660        13
47.670        27
47.680         0
47.690        53
47.700        27
47.710        13
47.720        13
47.730        13
47.740        13
47.750        27
47.760        80
47.770        40
47.780         0
47.790         0
47.800        13
47.810        27
47.820         0
47.830        13
47.840        40
47.850         0
47.860        13
47.870        27
47.880        13
47.890        27
47.900        53
47.910        67
47.920        13
47.930         0
47.940        13
47.950        13
47.960         0
47.970         0
47.980        13
47.990        13
48.000         0
48.010        13
48.020         0
48.030        27
48.040        40
48.050         0
48.060        13
48.070        27
48.080         0
48.090        13
48.100        27
48.110        53
48.120        13
48.130        53
48.140        13
48.150        27
48.160        13
48.170        27
48.180         0
48.190        13
48.200         0
48.210        27
48.220        40
48.230        27
48.240        40
48.250        27
48.260        13
48.270        13
48.280        40
48.290        13
48.300        40
48.310        53
48.320        13
48.330        40
48.340        67
48.350        40
48.360         0
48.370        27
48.380        27
48.390        27
48.400        93
48.410        40
48.420        80
48.430        40
48.440        67
48.450        27
48.460        13
48.470        27
48.480        13
48.490        67
48.500        40
48.510        27
48.520        53
48.530        40
48.540        13
48.550        67
48.560        27
48.570        13
48.580        13
48.590        40
48.600        53
48.610        13
48.620        27
48.630         0
48.640        53
48.650        13
48.660        13
48.670        40
48.680        13
48.690         0
48.700        13
48.710        53
48.720         0
48.730        13
48.740        40
48.750        80
48.760        27
48.770         0
48.780        27
48.790        13
48.800         0
48.810        27
48.820        13
48.830        80
48.840        93
48.850         0
48.860        13
48.870        40
48.880        40
48.890        53
48.900        80
48.910        53
48.920        53
48.930         0
48.940        27
48.950        27
48.960        27
48.970        13
48.980        40
48.990        53
49.000        40
49.010        27
49.020        13
49.030        67
49.040        40
49.050        67
49.060        53
49.070        53
49.080        67
49.090        53
49.100        27
49.110        27
49.120       107
49.130        93
49.140        53
49.150        53
49.160        40
49.170        40
49.180        40
49.190        67
49.200        13
49.210        53
49.220        40
49.230        93
49.240        67
49.250        27
49.260        67
49.270        40
49.280        13
49.290         0
49.300        27
49.310        13
49.320        40
49.330        53
49.340        13
49.350        27
49.360        40
49.370        40
49.380        40
49.390         0
49.400         0
49.410        13
49.420        53
49.430        13
49.440        27
49.450         0
49.460        40
49.470         0
49.480        27
49.490        13
49.500        40
49.510        13
49.520        40
49.530         0
49.540        27
49.550        53
49.560        13
49.570        27
49.580        13
49.590        40
49.600        27
49.610        27
49.620         0
49.630        13
49.640        13
49.650         0
49.660        13
49.670        27
49.680        40
49.690        40
49.700        13
49.710        40
49.720         0
49.730        13
49.740        53
49.750         0
49.760        53
49.770        27
49.780        27
49.790        40
49.800        13
49.810        13
49.820        27
49.830        13
49.840        27
49.850        40
49.860        40
49.870         0
49.880         0
49.890        27
49.900        13
49.910        13
49.920        40
49.930        13
49.940        27
49.950         0
49.960        27
49.970         0
49.980        27
49.990         0
50.000        27
50.010        53
50.020        40
50.030         0
50.040         0
50.050        13
50.060        80
50.070        13
50.080         0
50.090        13
50.100        27
50.110        53
50.120        53
50.130        40
50.140         0
50.150        13
50.160         0
50.170        13
50.180        53
50.190        40
50.200        13
50.210        53
50.220        27
50.230        40
50.240        27
50.250        67
50.260        13
50.270        27
50.280         0
50.290        27
50.300        13
50.310         0
50.320        67
50.330        13
50.340        13
50.350        40
50.360        13
50.370        53
50.380        27
50.390        13
50.400        40
50.410        27
50.420        13
50.430        27
50.440        40
50.450        13
50.460        27
50.470         0
50.480        27
50.490         0
50.500        13
50.510        27
50.520        53
50.530        53
50.540        40
50.550        13
50.560         0
50.570         0
50.580        27
50.590        13
50.600         0
50.610        13
50.620        27
50.630        80
50.640        53
50.650        13
50.660        27
50.670        13
50.680         0
50.690        13
50.700         0
50.710         0
50.720         0
50.730        53
50.740         0
50.750        27
50.760        40
50.770         0
50.780         0
50.790         0
50.800        27
50.810        27
50.820         0
50.830         0
50.840        13
50.850        27
50.860        13
50.870        13
50.880        40
50.890        13
50.900         0
50.910        13
50.920        40
50.930        27
50.940        13
50.950        13
50.960        27
50.970        27
50.980         0
50.990        53
51.000         0
51.010        27
51.020         0
51.030        40
51.040        27
51.050        27
51.060        27
51.070        27
51.080        13
51.090        13
51.100        13
51.110         0
51.120         0
51.130        13
51.140        27
51.150        40
51.160        13
51.170        13
51.180         0
51.190        13
51.200        27
51.210        13
51.220        13
51.230        40
51.240        27
51.250        13
51.260        13
51.270        13
51.280        27
51.290        13
51.300        13
51.310        80
51.320         0
51.330        27
51.340        27
51.350         0
51.360         0
51.370        27
51.380         0
51.390        27
51.400        27
51.410        13
51.420         0
51.430        27
51.440        40
51.450        27
51.460         0
51.470        13
51.480        27
51.490        27
51.500        40
51.510        27
51.520        13
51.530         0
51.540        27
51.550        40
51.560        13
51.570        53
51.580        27
51.590        27
51.600         0
51.610        13
51.620         0
51.630        53
51.640        13
51.650        53
51.660        13
51.670        40
51.680        13
51.690        27
51.700        27
51.710        13
51.720        27
51.730         0
51.740        53
51.750        13
51.760        13
51.770        27
51.780        53
51.790        40
51.800        53
51.810        80
51.820        13
51.830        40
51.840        27
51.850        13
51.860       107
51.870        93
51.880        67
51.890        67
51.900        67
51.910        67
51.920        13
51.930        93
51.940        53
51.950       120
51.960        40
51.970        80
51.980        40
51.990        53
52.000        93
52.010        40
52.020        53
52.030        80
52.040        53
52.050        53
52.060        93
52.070        93
52.080        67
52.090        67
52.100       107
52.110        80
52.120        53
52.130        40
52.140        80
52.150        67
52.160        40
52.170        40
52.180        80
52.190        27
52.200        67
52.210       120
52.220        27
52.230        13
52.240        80
52.250        40
52.260        80
52.270        53
52.280        40
52.290        53
52.300        27
52.310        27
52.320        53
52.330        27
52.340        40
52.350        27
52.360        27
52.370        27
52.380        13
52.390         0
52.400        13
52.410        27
52.420         0
52.430        40
52.440        40
52.450        27
52.460        27
52.470        27
52.480        13
52.490        40
52.500        53
52.510        13
52.520        27
52.530        40
52.540        27
52.550        13
52.560        13
52.570        27
52.580        27
52.590        53
52.600        40
52.610        40
52.620        40
52.630        27
52.640        80
52.650        67
52.660        80
52.670        67
52.680        40
52.690        93
52.700        27
52.710        53
52.720        40
52.730        27
52.740        13
52.750        67
52.760        53
52.770        27
52.780        40
52.790        67
52.800        40
52.810         0
52.820        27
52.830        13
52.840        80
52.850        13
52.860        13
52.870        40
52.880         0
52.890        27
52.900        53
52.910        53
52.920        27
52.930        27
52.940        13
52.950        13
52.960         0
52.970        27
52.980        40
52.990        27
53.000         0
53.010         0
53.020        13
53.030        13
53.040        13
53.050        53
53.060        27
53.070        13
53.080        27
53.090         0
53.100         0
53.110        40
53.120         0
53.130        27
53.140        40
53.150        27
53.160        13
53.170        13
53.180        13
53.190        13
53.200         0
53.210        27
53.220        67
53.230         0
53.240        13
53.250        13
53.260        27
53.270        27
53.280         0
53.290         0
53.300        13
53.310        40
53.320        67
53.330        40
53.340        27
53.350         0
53.360         0
53.370        27
53.380        40
53.390        13
53.400        53
53.410        27
53.420        27
53.430        40
53.440        53
53.450         0
53.460         0
53.470        67
53.480        13
53.490        13
53.500         0
53.510        27
53.520        27
53.530        27
53.540         0
53.550         0
53.560        13
53.570        13
53.580        13
53.590        27
53.600        13
53.610        13
53.620        53
53.630        27
53.640        40
53.650        67
53.660         0
53.670        13
53.680         0
53.690         0
53.700         0
53.710        13
53.720        53
53.730        27
53.740        13
53.750        13
53.760         0
53.770        13
53.780        40
53.790         0
53.800        27
53.810        40
53.820        27
53.830        40
53.840        53
53.850        27
53.860        13
53.870         0
53.880        27
53.890         0
53.900         0
53.910        27
53.920        27
53.930        13
53.940        27
53.950         0
53.960        67
53.970        27
53.980         0
53.990        13
54.000        27
54.010        27
54.020         0
54.030        13
54.040         0
54.050        13
54.060        27
54.070        13
54.080        27
54.090        13
54.100         0
54.110        27
54.120        27
54.130         0
54.140        40
54.150        27
54.160        13
54.170        13
54.180        13
54.190        13
54.200        27
54.210        13
54.220         0
54.230         0
54.240        13
54.250        27
54.260        67
54.270        13
54.280        27
54.290        27
54.300         0
54.310        67
54.320        13
54.330        40
54.340        27
54.350        40
54.360         0
54.370        13
54.380        27
54.390         0
54.400        27
54.410        13
54.420         0
54.430        13
54.440        13
54.450        13
54.460        27
54.470         0
54.480        13
54.490        13
54.500        40
54.510        27
54.520        13
54.530        27
54.540        27
54.550         0
54.560        13
54.570         0
54.580        13
54.590         0
54.600         0
54.610        40
54.620        13
54.630        40
54.640        40
54.650        13
54.660        40
54.670        27
54.680        13
54.690        13
54.700        40
54.710        27
54.720         0
54.730         0
54.740        13
54.750        27
54.760        13
54.770         0
54.780        13
54.790        40
54.800        27
54.810        27
54.820         0
54.830         0
54.840        40
54.850        40
54.860        27
54.870        13
54.880        13
54.890        27
54.900        40
54.910        13
54.920        27
54.930         0
54.940        40
54.950        13
54.960        67
54.970        27
54.980         0
54.990        13
55.000        53
55.010        27
55.020        13
55.030         0
55.040         0
55.050        40
55.060        13
55.070        13
55.080        40
55.090        53
55.100        27
55.110        27
55.120        13
55.130        13
55.140        53
55.150        27
55.160        27
55.170        13
55.180        13
55.190        53
55.200         0
55.210         0
55.220        40
55.230        67
55.240        53
55.250        13
55.260        27
55.270        27
55.280         0
55.290        13
55.300        13
55.310        27
55.320         0
55.330        27
55.340        53
55.350        27
55.360        27
55.370        27
55.380        13
55.390        13
55.400         0
55.410        13
55.420        40
55.430        40
55.440        27
55.450         0
55.460        27
55.470        27
55.480         0
55.490        13
55.500        13
55.510         0
55.520        27
55.530        13
55.540        53
55.550        27
55.560        13
55.570        27
55.580        13
55.590        53
55.600         0
55.610        27
55.620        40
55.630        13
55.640        27
55.650        53
55.660        40
55.670         0
55.680        27
55.690        53
55.700        27
55.710        13
55.720        27
55.730        13
55.740        27
55.750        27
55.760        13
55.770        13
55.780        27
55.790        40
55.800        53
55.810         0
55.820        13
55.830        27
55.840        13
55.850        13
55.860        27
55.870        13
55.880        53
55.890        13
55.900        40
55.910        13
55.920        13
55.930        27
55.940        13
55.950        80
55.960        27
55.970        27
55.980        27
55.990        13
56.000        40
56.010        53
56.020        13
56.030        27
56.040        27
56.050        53
56.060         0
56.070        93
56.080        40
56.090        13
56.100         0
56.110        27
56.120        53
56.130        40
56.140        53
56.150        40
56.160        53
56.170        13
56.180        27
56.190        40
56.200        53
56.210        27
56.220        40
56.230        13
56.240        27
56.250        27
56.260        13
56.270        80
56.280        13
56.290         0
56.300        80
56.310        53
56.320        27
56.330        40
56.340        27
56.350        13
56.360        27
56.370        93
56.380        27
56.390        13
56.400        13
56.410        40
56.420        40
56.430        13
56.440        27
56.450        27
56.460        27
56.470        53
56.480        13
56.490         0
56.500        13
56.510        80
56.520        40
56.530        13
56.540        13
56.550        13
56.560        27
56.570         0
56.580        13
56.590        27
56.600         0
56.610         0
56.620        13
56.630        27
56.640        67
56.650        27
56.660        53
56.670        40
56.680        13
56.690        27
56.700        13
56.710        53
56.720        27
56.730         0
56.740        27
56.750        27
56.760        13
56.770        27
56.780         0
56.790        13
56.800        27
56.810         0
56.820        40
56.830        13
56.840         0
56.850        27
56.860         0
56.870        13
56.880         0
56.890        27
56.900        27
56.910         0
56.920        40
56.930        53
56.940         0
56.950         0
56.960        13
56.970        53
56.980        27
56.990        13
57.000        13
57.010        27
57.020        13
57.030        13
57.040         0
57.050         0
57.060        27
57.070        13
57.080        53
57.090        27
57.100        27
57.110        13
57.120        13
57.130        27
57.140        27
57.150        13
57.160        40
57.170        27
57.180        27
57.190        13
57.200         0
57.210        53
57.220        27
57.230        13
57.240        40
57.250        53
57.260        27
57.270        40
57.280        40
57.290        80
57.300        40
57.310        67
57.320        27
57.330        13
57.340        53
57.350        53
57.360        40
57.370        40
57.380        40
57.390       200
57.400        53
57.410        53
57.420        27
57.430        40
57.440        67
57.450        53
57.460        67
57.470        13
57.480        67
57.490        27
57.500        27
57.510        93
57.520       120
57.530       133
57.540        80
57.550       107
57.560       120
57.570        93
57.580       107
57.590        27
57.600        53
57.610        40
57.620        53
57.630        27
57.640        53
57.650        27
57.660        53
57.670        67
57.680        27
57.690        93
57.700        13
57.710        80
57.720        53
57.730        40
57.740        80
57.750        53
57.760        67
57.770        13
57.780         0
57.790        13
57.800        53
57.810        40
57.820        27
57.830        13
57.840        27
57.850        27
57.860        40
57.870        27
57.880        13
57.890        13
57.900        27
57.910         0
57.920         0
57.930        40
57.940        53
57.950        13
57.960        40
57.970        27
57.980        13
57.990        40
58.000        67
58.010        40
58.020        13
58.030        27
58.040        27
58.050        40
58.060        13
58.070        27
58.080        13
58.090        40
58.100         0
58.110        13
58.120        53
58.130        40
58.140        27
58.150        13
58.160        13
58.170        27
58.180         0
58.190        40
58.200        40
58.210        13
58.220        27
58.230        13
58.240         0
58.250        13
58.260        40
58.270        67
58.280         0
58.290        40
58.300        13
58.310        13
58.320        27
58.330         0
58.340        13
58.350        13
58.360        13
58.370        13
58.380        27
58.390        40
58.400        13
58.410        40
58.420        27
58.430        67
58.440         0
58.450        67
58.460        13
58.470        27
58.480        27
58.490        13
58.500        13
58.510         0
58.520        13
58.530        13
58.540        13
58.550        53
58.560         0
58.570        53
58.580         0
58.590         0
58.600         0
58.610        13
58.620         0
58.630        40
58.640        13
58.650        13
58.660        40
58.670        40
58.680        13
58.690        13
58.700        13
58.710        40
58.720        13
58.730        40
58.740        13
58.750         0
58.760        13
58.770         0
58.780        13
58.790        80
58.800        13
58.810        13
58.820        13
58.830        27
58.840         0
58.850        13
58.860        13
58.870         0
58.880         0
58.890         0
58.900         0
58.910        13
58.920        40
58.930         0
58.940        13
58.950         0
58.960        40
58.970        13
58.980        13
58.990        27
59.000        27
59.010        13
59.020        27
59.030        13
59.040        13
59.050        40
59.060         0
59.070        27
59.080        40
59.090        80
59.100        13
59.110         0
59.120         0
59.130        13
59.140        13
59.150        13
59.160        27
59.170        13
59.180        13
59.190        13
59.200        13
59.210        40
59.220         0
59.230        27
59.240        27
59.250        27
59.260        13
59.270        13
59.280         0
59.290        13
59.300        27
59.310        13
59.320        40
59.330        27
59.340        27
59.350         0
59.360        13
59.370        27
59.380        13
59.390        27
59.400        13
59.410        27
59.420        40
59.430        53
59.440        40
59.450         0
59.460        53
59.470        13
59.480        27
59.490        13
59.500        13
59.510         0
59.520        13
59.530         0
59.540        13
59.550        13
59.560        13
59.570        40
59.580        27
59.590         0
59.600       107
59.610        27
59.620        27
59.630        13
59.640        53
59.650        13
59.660        27
59.670        27
59.680        13
59.690        53
59.700        13
59.710         0
59.720         0
59.730        27
59.740        13
59.750        27
59.760        27
59.770        13
59.780        27
59.790        40
59.800        13
59.810        27
59.820        67
59.830        27
59.840        40
59.850        13
59.860        53
59.870         0
59.880        13
59.890         0
59.900         0
59.910        13
59.920        40
59.930        27
59.940        27
59.950        13
59.960        13
59.970        13
59.980        27
59.990        27
60.000         0
