20.000        40
20.010        40
20.020        27
20.030         0
20.040        53
20.050        13
20.060        27
20.070       107
20.080        13
20.090        53
20.100        27
20.110        40
20.120        40
20.130        40
20.140        40
20.150        40
20.160        53
20.170        13
20.180        53
20.190        27
20.200        67
20.210        13
20.220        53
20.230        13
20.240        80
20.250        40
20.260       107
20.270        53
20.280        67
20.290        40
20.300       107
20.310        93
20.320        93
20.330        80
20.340        53
20.350        53
20.360        40
20.370        53
20.380        53
20.390        53
20.400        40
20.410        27
20.420        67
20.430         0
20.440        40
20.450        40
20.460        13
20.470        53
20.480        67
20.490        53
20.500        40
20.510        27
20.520        80
20.530        67
20.540        27
20.550       107
20.560        40
20.570        27
20.580        53
20.590        40
20.600        53
20.610        67
20.620        13
20.630        27
20.640        67
20.650        40
20.660        13
20.670        53
20.680        67
20.690        27
20.700        27
20.710        67
20.720        13
20.730        67
20.740        13
20.750        40
20.760        40
20.770        53
20.780        40
20.790        53
20.800        53
20.810        27
20.820        13
20.830        27
20.840        13
20.850        93
20.860        27
20.870        40
20.880        13
20.890        40
20.900        67
20.910        67
20.920        40
20.930         0
20.940        53
20.950        40
20.960        40
20.970        13
20.980        13
20.990        27
21.000        13
21.010        67
21.020        40
21.030        40
21.040        13
21.050        40
21.060        53
21.070        13
21.080        27
21.090        13
21.100        67
21.110        67
21.120        80
21.130        27
21.140        13
21.150        80
21.160         0
21.170        40
21.180        53
21.190        27
21.200        40
21.210        13
21.220        27
21.230        53
21.240        27
21.250        53
21.260        67
21.270        40
21.280        40
21.290        27
21.300        27
21.310        13
21.320        53
21.330        13
21.340         0
21.350        40
21.360         0
21.370        40
21.380        40
21.390        27
21.400        27
21.410        67
21.420        67
21.430        40
21.440        27
21.450         0
21.460        27
21.470        27
21.480        40
21.490        67
21.500        27
21.510        13
21.520        67
21.530        53
21.540        13
21.550        27
21.560        53
21.570        40
21.580        13
21.590        27
21.600        67
21.610        27
21.620        80
21.630        27
21.640        40
21.650        27
21.660        27
21.670        53
21.680        40
21.690         0
21.700        40
21.710        27
21.720        67
21.730        27
21.740        13
21.750        67
21.760        80
21.770        67
21.780        53
21.790        27
21.800        27
21.810        67
21.820        80
21.830        93
21.840        27
21.850        27
21.860        40
21.870        13
21.880        80
21.890        27
21.900        27
21.910         0
21.920        80
21.930         0
21.940        27
21.950        53
21.960        27
21.970        67
21.980        93
21.990        67
22.000        27
22.010        53
22.020        80
22.030        40
22.040        40
22.050        13
22.060        40
22.070        40
22.080        27
22.090        80
22.100        27
22.110        53
22.120        53
22.130        13
22.140        40
22.150        67
22.160        40
22.170        53
22.180        13
22.190        53
22.200        53
22.210        40
22.220        40
22.230        53
22.240        93
22.250        53
22.260        40
22.270        40
22.280        80
22.290        40
22.300        53
22.310        40
22.320        67
22.330        40
22.340       107
22.350       107
22.360        40
22.370        27
22.380        93
22.390        93
22.400       200
22.410       133
22.420        27
22.430       160
22.440       133
22.450       240
22.460       307
22.470       120
22.480       267
22.490       320
22.500       360
22.510       400
22.520       333
22.530       387
22.540       506
22.550       546
22.560       573
22.570       666
22.580       600
22.590       546
22.600       680
22.610       520
22.620       533
22.630       560
22.640       600
22.650       560
22.660       360
22.670       546
22.680       307
22.690       240
22.700       280
22.710       200
22.720       160
22.730       280
22.740       160
22.750       120
22.760       120
22.770       147
22.780        67
22.790        53
22.800        53
22.810        13
22.820        53
22.830        53
22.840       120
22.850        80
22.860        53
22.870         0
22.880        80
22.890        53
22.900        53
22.910        40
22.920        53
22.930        93
22.940        27
22.950        40
22.960        53
22.970        67
22.980        67
22.990        53
23.000        27
23.010        53
23.020        13
23.030        13
23.040        67
23.050       107
23.060        27
23.070        13
23.080        27
23.090        27
23.100        40
23.110        40
23.120        27
23.130        80
23.140        53
23.150        13
23.160        80
23.170        80
23.180        27
23.190       107
23.200        40
23.210        80
23.220        13
23.230        40
23.240        40
23.250        67
23.260        27
23.270        53
23.280        13
23.290        67
23.300        53
23.310        40
23.320        27
23.330        27
23.340        67
23.350        27
23.360        53
23.370        13
23.380        13
23.390        13
23.400        40
23.410        67
23.420        40
23.430        40
23.440        67
23.450        13
23.460        40
23.470        67
23.480         0
23.490        53
23.500        67
23.510        27
23.520        27
23.530        40
23.540        27
23.550        53
23.560        67
23.570        53
23.580        13
23.590         0
23.600        67
23.610        27
23.620        40
23.630        80
23.640        67
23.650        27
23.660        40
23.670        13
23.680        13
23.690        40
23.700        27
23.710        27
23.720        40
23.730        80
23.740        53
23.750        40
23.760        53
23.770        40
23.780        80
23.790        13
23.800        53
23.810        27
23.820        67
23.830        27
23.840        40
23.850        53
23.860        40
23.870        27
23.880        40
23.890        40
23.900        93
23.910        80
23.920        40
23.930        27
23.940        53
23.950        40
23.960        27
23.970        27
23.980        13
23.990        27
24.000        67
24.010        53
24.020        40
24.030        40
24.040        53
24.050        27
24.060        27
24.070        80
24.080        53
24.090        67
24.100         0
24.110         0
24.120        40
24.130        40
24.140        40
24.150        40
24.160        40
24.170        40
24.180         0
24.190        13
24.200        13
24.210        40
24.220        40
24.230        53
24.240        13
24.250         0
24.260        93
24.270         0
24.280        40
24.290        13
24.300        13
24.310        80
24.320        13
24.330        27
24.340        40
24.350        67
24.360        13
24.370        40
24.380        80
24.390        40
24.400        40
24.410        53
24.420         0
24.430        53
24.440        80
24.450        40
24.460        27
24.470        27
24.480        53
24.490        13
24.500        80
24.510        67
24.520        80
24.530        40
24.540        13
24.550        27
24.560        53
24.570        40
24.580        27
24.590        27
24.600        67
24.610        27
24.620        27
24.630        13
24.640        80
24.650        67
24.660        53
24.670        53
24.680        67
24.690         0
24.700        53
24.710        53
24.720        80
24.730        40
24.740        27
24.750        27
24.760        40
24.770        53
24.780        40
24.790        40
24.800        93
24.810        27
24.820        27
24.830        53
24.840        53
24.850         0
24.860        67
24.870        13
24.880        53
24.890        67
24.900        27
24.910         0
24.920        53
24.930        27
24.940        27
24.950        40
24.960        53
24.970        13
24.980        80
24.990        27
25.000        40
25.010        13
25.020        27
25.030        53
25.040        40
25.050        93
25.060        27
25.070         0
25.080        13
25.090        13
25.100        27
25.110         0
25.120        27
25.130        40
25.140       107
25.150        40
25.160        27
25.170        27
25.180        13
25.190        40
25.200        13
25.210        53
25.220        53
25.230        53
25.240        13
25.250        40
25.260        40
25.270         0
25.280        67
25.290        53
25.300        53
25.310        13
25.320        53
25.330        27
25.340        40
25.350        27
25.360        13
25.370        40
25.380        13
25.390        13
25.400        27
25.410        80
25.420        53
25.430        40
25.440        67
25.450        53
25.460        27
25.470        53
25.480        93
25.490        27
25.500        53
25.510         0
25.520        67
25.530        80
25.540        53
25.550        53
25.560        40
25.570        53
25.580        93
25.590        40
25.600        80
25.610        67
25.620        93
25.630        80
25.640       107
25.650        53
25.660       120
25.670       133
25.680       107
25.690       147
25.700       147
25.710       200
25.720       120
25.730       147
25.740       307
25.750       133
25.760       320
25.770       373
25.780       320
25.790       426
25.800       440
25.810       413
25.820       546
25.830       520
25.840       560
25.850       520
25.860       520
25.870       653
25.880       653
25.890       573
25.900       480
25.910       613
25.920       373
25.930       320
25.940       200
25.950       267
25.960       267
25.970        80
25.980       120
25.990       187
26.000       200
26.010       120
26.020        80
26.030       107
26.040       107
26.050       107
26.060        80
26.070        40
26.080        40
26.090       107
26.100        27
26.110        67
26.120        27
26.130        53
26.140        27
26.150        40
26.160        80
26.170        13
26.180        40
26.190        67
26.200        93
26.210        40
26.220        13
26.230        40
26.240        40
26.250        53
26.260        40
26.270        27
26.280         0
26.290        13
26.300        27
26.310        27
26.320        40
26.330        40
26.340        27
26.350        53
26.360        53
26.370        67
26.380        67
26.390        13
26.400        93
26.410        53
26.420        40
26.430        40
26.440        40
26.450        27
26.460        53
26.470        53
26.480        80
26.490        27
26.500        13
26.510        27
26.520        27
26.530        27
26.540        40
26.550         0
26.560        40
26.570        80
26.580        53
26.590        27
26.600        40
26.610        27
26.620        27
26.630        40
26.640        67
26.650        13
26.660        40
26.670        40
26.680        40
26.690        40
26.700        67
26.710        53
26.720        67
26.730        80
26.740       147
26.750        40
26.760        40
26.770        13
26.780        40
26.790        67
26.800        13
26.810        40
26.820        13
26.830        13
26.840        27
26.850        67
26.860        40
26.870        27
26.880        27
26.890        67
26.900        13
26.910        40
26.920        13
26.930        53
26.940        53
26.950        40
26.960        27
26.970        80
26.980        27
26.990        93
27.000        27
27.010        40
27.020        27
27.030        40
27.040        40
27.050        53
27.060        27
27.070        27
27.080        40
27.090        13
27.100        13
27.110        13
27.120        27
27.130        27
27.140        27
27.150        27
27.160        53
27.170        67
27.180        40
27.190        27
27.200        53
27.210        27
27.220        53
27.230         0
27.240        13
27.250        27
27.260        40
27.270        27
27.280         0
27.290        53
27.300        53
27.310        40
27.320        27
27.330         0
27.340        27
27.350        53
27.360        27
27.370        67
27.380        53
27.390        67
27.400        40
27.410        40
27.420        40
27.430        27
27.440        27
27.450        13
27.460        40
27.470        13
27.480        40
27.490         0
27.500        40
27.510         0
27.520        27
27.530        93
27.540        40
27.550        27
27.560        80
27.570        40
27.580        27
27.590        53
27.600        80
27.610        27
27.620        67
27.630        40
27.640       147
27.650        27
27.660        27
27.670        13
27.680        27
27.690        40
27.700        67
27.710        93
27.720        40
27.730       107
27.740        40
27.750        53
27.760        93
27.770        53
27.780        53
27.790        27
27.800        67
27.810        53
27.820       133
27.830        93
27.840        40
27.850        40
27.860        53
27.870        40
27.880        67
27.890        40
27.900        53
27.910        53
27.920        27
27.930        53
27.940        53
27.950        13
27.960        13
27.970        27
27.980        53
27.990        40
28.000        40
28.010        40
28.020        27
28.030        40
28.040        40
28.050        53
28.060        67
28.070        13
28.080        27
28.090        40
28.100        80
28.110        40
28.120        27
28.130         0
28.140        53
28.150        13
28.160        40
28.170        27
28.180        80
28.190        53
28.200        53
28.210        53
28.220        27
28.230        67
28.240        53
28.250         0
28.260        67
28.270        13
28.280        67
28.290        67
28.300        13
28.310        27
28.320        27
28.330        40
28.340        53
28.350        53
28.360        13
28.370        13
28.380        27
28.390        27
28.400        13
28.410        27
28.420        53
28.430        67
28.440        80
28.450       120
28.460        27
28.470         0
28.480        80
28.490        67
28.500        27
28.510        40
28.520        53
28.530        27
28.540        40
28.550        27
28.560        27
28.570        67
28.580        13
28.590        80
28.600        53
28.610        93
28.620       107
28.630       160
28.640       133
28.650        93
28.660       160
28.670       160
28.680       187
28.690       160
28.700       213
28.710       213
28.720       253
28.730       120
28.740       213
28.750       240
28.760       187
28.770       120
28.780       280
28.790       107
28.800        80
28.810       160
28.820       213
28.830       107
28.840       133
28.850       120
28.860        93
28.870       120
28.880        53
28.890        53
28.900        80
28.910       107
28.920        93
28.930        93
28.940       120
28.950        40
28.960       120
28.970       107
28.980        67
28.990        67
29.000        53
29.010        93
29.020       133
29.030        40
29.040        40
29.050        93
29.060        53
29.070        80
29.080        40
29.090        40
29.100        40
29.110        80
29.120       107
29.130        53
29.140        53
29.150        67
29.160        40
29.170        67
29.180        53
29.190        67
29.200        53
29.210        40
29.220       107
29.230        80
29.240        93
29.250        40
29.260        40
29.270        67
29.280        93
29.290        67
29.300        80
29.310        40
29.320        13
29.330        93
29.340        53
29.350       107
29.360       120
29.370        80
29.380       187
29.390        80
29.400       120
29.410        80
29.420       200
29.430       107
29.440       200
29.450       173
29.460       200
29.470       187
29.480       213
29.490       320
29.500       373
29.510       426
29.520       373
29.530       546
29.540       533
29.550       693
29.560       893
29.570       800
29.580      1160
29.590      1226
29.600      1146
29.610      1293
29.620      1466
29.630      1573
29.640      1293
29.650      1346
29.660      1466
29.670      1386
29.680      1426
29.690      1253
29.700      1173
29.710      1213
29.720      1146
29.730       933
29.740       760
29.750       560
29.760       546
29.770       493
29.780       307
29.790       240
29.800       320
29.810       293
29.820       227
29.830       187
29.840       213
29.850       107
29.860       200
29.870       133
29.880       107
29.890        40
29.900        67
29.910       107
29.920        53
29.930        80
29.940        67
29.950        80
29.960        53
29.970        93
29.980        13
29.990        40
30.000        27
30.010        27
30.020        53
30.030        40
30.040       107
30.050        27
30.060        27
30.070        27
30.080        40
30.090        40
30.100        53
30.110        13
30.120        13
30.130        67
30.140        13
30.150        53
30.160        40
30.170        40
30.180        13
30.190        40
30.200        40
30.210        40
30.220        27
30.230        80
30.240        53
30.250        40
30.260        27
30.270       107
30.280        93
30.290        40
30.300        80
30.310        40
30.320        40
30.330       133
30.340       120
30.350        27
30.360        53
30.370        67
30.380        67
30.390       120
30.400       147
30.410        67
30.420       187
30.430       147
30.440       200
30.450       213
30.460       200
30.470       173
30.480       387
30.490       426
30.500       400
30.510       280
30.520       293
30.530       333
30.540       227
30.550       333
30.560       333
30.570       307
30.580       333
30.590       200
30.600       200
30.610       200
30.620       120
30.630       107
30.640        93
30.650       160
30.660       120
30.670       147
30.680        40
30.690        67
30.700        27
30.710        40
30.720        67
30.730        27
30.740        80
30.750        27
30.760        27
30.770        40
30.780        13
30.790        80
30.800         0
30.810        13
30.820        13
30.830        93
30.840        13
30.850        40
30.860        40
30.870        40
30.880        40
30.890        53
30.900        13
30.910        27
30.920        13
30.930        27
30.940        27
30.950        13
30.960        13
30.970        53
30.980        27
30.990        40
31.000        13
31.010        53
31.020        27
31.030        40
31.040        80
31.050        13
31.060        40
31.070        40
31.080        40
31.090        13
31.100        27
31.110        13
31.120        40
31.130        53
31.140        40
31.150        27
31.160        80
31.170        40
31.180        67
31.190        40
31.200        27
31.210        80
31.220         0
31.230         0
31.240        40
31.250        27
31.260        13
31.270        27
31.280        27
31.290         0
31.300        27
31.310        40
31.320        27
31.330        53
31.340        27
31.350        40
31.360        27
31.370        53
31.380        27
31.390         0
31.400        53
31.410        27
31.420        67
31.430        27
31.440        27
31.450        13
31.460        27
31.470        27
31.480        13
31.490       120
31.500        13
31.510        40
31.520        13
31.530        40
31.540        67
31.550         0
31.560        27
31.570         0
31.580        53
31.590        53
31.600        67
31.610        13
31.620        13
31.630        27
31.640        40
31.650         0
31.660        40
31.670        27
31.680        27
31.690       107
31.700        40
31.710        53
31.720        53
31.730        13
31.740         0
31.750        13
31.760        40
31.770        67
31.780        27
31.790        27
31.800        27
31.810        40
31.820         0
31.830        13
31.840        27
31.850         0
31.860        27
31.870        13
31.880        40
31.890        27
31.900        53
31.910        40
31.920        27
31.930        13
31.940        40
31.950        40
31.960        53
31.970        27
31.980        67
31.990        27
32.000        93
32.010        80
32.020       133
32.030       107
32.040        80
32.050        80
32.060        93
32.070       160
32.080       173
32.090       187
32.100       187
32.110       307
32.120       200
32.130       240
32.140       387
32.150       293
32.160       307
32.170       400
32.180       373
32.190       466
32.200       493
32.210       440
32.220       480
32.230       320
32.240       453
32.250       426
32.260       373
32.270       413
32.280       360
32.290       413
32.300       200
32.310       307
32.320       173
32.330       173
32.340       147
32.350       213
32.360        67
32.370       120
32.380        93
32.390        93
32.400        80
32.410        67
32.420        27
32.430        80
32.440        40
32.450        40
32.460        40
32.470        53
32.480        27
32.490        40
32.500        40
32.510        27
32.520        40
32.530        40
32.540        27
32.550        40
32.560        67
32.570        40
32.580        40
32.590        80
32.600       107
32.610        27
32.620        67
32.630        40
32.640        40
32.650        40
32.660         0
32.670        13
32.680        27
32.690        40
32.700        40
32.710        13
32.720        27
32.730        40
32.740        53
32.750        13
32.760        13
32.770        13
32.780        13
32.790         0
32.800        40
32.810        40
32.820        40
32.830        13
32.840        13
32.850        27
32.860        67
32.870        53
32.880        40
32.890         0
32.900        27
32.910        40
32.920        40
32.930         0
32.940        27
32.950        40
32.960        13
32.970        53
32.980        13
32.990        27
33.000        13
33.010        27
33.020         0
33.030        13
33.040        27
33.050        13
33.060        27
33.070        40
33.080        40
33.090        40
33.100        13
33.110        13
33.120         0
33.130        13
33.140        40
33.150        13
33.160        13
33.170        40
33.180        27
33.190        40
33.200        53
33.210        40
33.220         0
33.230        40
33.240        53
33.250        13
33.260        27
33.270        40
33.280         0
33.290        53
33.300        27
33.310         0
33.320        27
33.330        40
33.340        27
33.350         0
33.360        13
33.370        27
33.380        53
33.390        13
33.400        40
33.410        27
33.420        27
33.430        40
33.440         0
33.450        13
33.460        13
33.470        13
33.480        13
33.490        27
33.500        13
33.510         0
33.520        13
33.530        13
33.540        13
33.550        27
33.560        13
33.570        27
33.580        13
33.590        27
33.600        40
33.610        13
33.620        27
33.630        40
33.640        27
33.650        40
33.660        13
33.670        13
33.680         0
33.690        27
33.700        40
33.710        40
33.720        13
33.730        13
33.740        13
33.750        27
33.760        27
33.770        27
33.780        53
33.790        40
33.800        40
33.810         0
33.820        13
33.830        13
33.840        13
33.850         0
33.860        53
33.870        27
33.880        27
33.890        27
33.900        13
33.910        40
33.920        67
33.930        13
33.940        40
33.950        40
33.960        27
33.970        13
33.980        13
33.990        40
34.000        27
34.010         0
34.020        40
34.030         0
34.040        40
34.050        67
34.060        27
34.070        13
34.080        27
34.090        40
34.100        13
34.110        40
34.120        27
34.130         0
34.140        13
34.150        40
34.160        13
34.170        27
34.180        13
34.190        27
34.200         0
34.210        13
34.220        27
34.230        13
34.240        27
34.250         0
34.260        13
34.270        67
34.280        13
34.290        27
34.300        40
34.310        13
34.320         0
34.330        27
34.340        27
34.350        80
34.360         0
34.370        13
34.380         0
34.390         0
34.400        53
34.410         0
34.420         0
34.430        13
34.440        13
34.450        13
34.460        13
34.470        13
34.480        40
34.490         0
34.500        27
34.510        13
34.520         0
34.530        13
34.540        13
34.550        13
34.560        13
34.570        13
34.580        40
34.590         0
34.600        13
34.610        53
34.620        27
34.630        40
34.640        40
34.650        13
34.660        13
34.670         0
34.680        13
34.690        27
34.700         0
34.710        13
34.720        13
34.730        13
34.740        13
34.750        40
34.760        13
34.770        13
34.780        13
34.790        27
34.800        27
34.810        13
34.820        40
34.830        53
34.840         0
34.850        27
34.860        27
34.870        13
34.880        53
34.890        13
34.900         0
34.910        53
34.920        27
34.930        27
34.940        53
34.950        67
34.960        13
34.970         0
34.980        27
34.990        53
35.000         0
35.010         0
35.020        40
35.030        13
35.040        13
35.050        27
35.060        27
35.070        27
35.080        27
35.090         0
35.100        27
35.110        13
35.120        53
35.130        40
35.140        27
35.150        27
35.160         0
35.170        40
35.180        80
35.190        53
35.200        27
35.210        27
35.220        13
35.230        27
35.240        27
35.250        27
35.260        13
35.270         0
35.280        13
35.290        13
35.300        13
35.310        40
35.320        13
35.330        13
35.340        13
35.350         0
35.360        13
35.370        40
35.380        40
35.390         0
35.400        27
35.410        13
35.420        27
35.430         0
35.440         0
35.450        27
35.460        27
35.470        67
35.480        13
35.490        27
35.500        13
35.510        27
35.520        40
35.530        40
35.540        40
35.550        27
35.560        13
35.570         0
35.580        13
35.590        13
35.600        13
35.610        13
35.620        13
35.630        27
35.640        40
35.650        27
35.660        13
35.670        53
35.680        53
35.690        40
35.700        53
35.710        40
35.720        53
35.730        27
35.740        27
35.750        13
35.760        13
35.770        27
35.780        13
35.790         0
35.800        27
35.810        27
35.820        40
35.830        27
35.840        13
35.850        13
35.860        53
35.870        13
35.880        27
35.890        13
35.900        27
35.910        40
35.920        13
35.930        27
35.940        40
35.950        13
35.960        40
35.970        27
35.980        13
35.990        13
36.000        27
36.010        27
36.020        13
36.030        13
36.040        27
36.050        13
36.060        27
36.070        27
36.080        13
36.090         0
36.100         0
36.110        13
36.120        13
36.130        53
36.140        93
36.150        27
36.160        13
36.170        27
36.180        13
36.190         0
36.200         0
36.210        13
36.220         0
36.230        27
36.240         0
36.250        13
36.260        13
36.270        27
36.280        13
36.290        40
36.300        40
36.310         0
36.320        13
36.330         0
36.340        13
36.350         0
36.360        27
36.370        13
36.380        13
36.390        13
36.400        13
36.410        13
36.420         0
36.430         0
36.440        53
36.450        40
36.460        13
36.470        13
36.480        53
36.490        13
36.500        27
36.510        13
36.520         0
36.530        40
36.540        27
36.550        40
36.560        80
36.570        13
36.580        13
36.590        13
36.600        27
36.610         0
36.620        13
36.630        13
36.640         0
36.650        27
36.660        13
36.670        13
36.680        40
36.690         0
36.700         0
36.710        13
36.720         0
36.730        27
36.740        13
36.750        53
36.760        27
36.770        13
36.780        40
36.790        27
36.800        27
36.810        13
36.820         0
36.830        53
36.840        27
36.850        27
36.860        27
36.870        40
36.880        40
36.890        13
36.900        13
36.910        53
36.920        40
36.930         0
36.940        27
36.950         0
36.960         0
36.970         0
36.980        13
36.990        53
37.000        27
37.010        13
37.020        13
37.030        40
37.040         0
37.050        27
37.060         0
37.070        40
37.080        27
37.090        13
37.100        13
37.110        13
37.120        27
37.130        27
37.140        40
37.150        40
37.160        53
37.170        13
37.180        13
37.190        27
37.200        13
37.210        27
37.220         0
37.230        27
37.240        13
37.250        27
37.260         0
37.270        27
37.280        27
37.290        13
37.300        53
37.310        13
37.320         0
37.330        27
37.340         0
37.350        27
37.360        13
37.370        27
37.380         0
37.390        13
37.400        13
37.410        40
37.420        40
37.430        27
37.440        40
37.450        53
37.460        27
37.470        27
37.480        13
37.490        13
37.500        13
37.510         0
37.520         0
37.530         0
37.540        13
37.550         0
37.560        27
37.570        53
37.580         0
37.590         0
37.600         0
37.610        27
37.620        40
37.630        27
37.640         0
37.650        40
37.660         0
37.670        13
37.680        13
37.690        27
37.700        40
37.710        27
37.720        67
37.730        27
37.740        27
37.750        27
37.760         0
37.770        40
37.780         0
37.790        27
37.800        13
37.810        27
37.820        27
37.830        40
37.840        27
37.850        13
37.860         0
37.870         0
37.880        13
37.890        13
37.900        27
37.910         0
37.920        13
37.930        27
37.940        40
37.950        40
37.960         0
37.970         0
37.980         0
37.990        27
38.000        13
38.010        53
38.020        53
38.030         0
38.040         0
38.050        27
38.060         0
38.070         0
38.080        40
38.090         0
38.100         0
38.110        13
38.120        27
38.130        13
38.140        40
38.150        93
38.160         0
38.170        13
38.180        13
38.190        53
38.200        40
38.210         0
38.220         0
38.230        13
38.240        53
38.250        13
38.260        27
38.270        27
38.280        13
38.290        27
38.300         0
38.310        40
38.320         0
38.330        13
38.340        13
38.350        67
38.360        27
38.370        13
38.380        27
38.390        27
38.400         0
38.410         0
38.420         0
38.430        13
38.440        27
38.450        27
38.460        27
38.470        40
38.480         0
38.490        27
38.500        80
38.510        13
38.520        27
38.530        40
38.540         0
38.550        13
38.560         0
38.570         0
38.580        40
38.590         0
38.600        13
38.610        40
38.620        27
38.630        27
38.640        13
38.650        27
38.660        27
38.670        13
38.680        40
38.690        40
38.700        27
38.710        40
38.720        40
38.730        13
38.740        27
38.750        27
38.760        40
38.770        13
38.780        13
38.790        80
38.800        13
38.810        27
38.820        40
38.830        40
38.840        67
38.850        67
38.860        13
38.870        53
38.880       107
38.890        80
38.900        67
38.910        40
38.920        93
38.930        67
38.940        80
38.950       107
38.960        67
38.970        93
38.980        93
38.990        93
39.000        67
39.010        40
39.020        67
39.030        67
39.040        80
39.050        80
39.060        53
39.070        67
39.080        53
39.090        93
39.100        53
39.110        67
39.120        53
39.130        27
39.140        27
39.150        53
39.160        27
39.170        40
39.180       120
39.190        40
39.200        53
39.210        67
39.220        27
39.230        40
39.240        27
39.250        13
39.260         0
39.270        27
39.280         0
39.290        53
39.300        13
39.310        40
39.320        13
39.330        27
39.340        53
39.350         0
39.360         0
39.370        13
39.380        53
39.390         0
39.400        27
39.410         0
39.420        27
39.430        27
39.440        40
39.450        40
39.460         0
39.470        40
39.480         0
39.490        13
39.500        40
39.510         0
39.520        13
39.530        40
39.540        27
39.550        40
39.560        67
39.570        40
39.580        13
39.590         0
39.600        27
39.610        13
39.620        27
39.630        80
39.640        13
39.650         0
39.660        27
39.670        27
39.680        27
39.690        13
39.700        40
39.710        13
39.720         0
39.730        13
39.740        13
39.750        40
39.760        53
39.770        13
39.780        40
39.790         0
39.800        13
39.810        80
39.820        40
39.830        13
39.840         0
39.850        67
39.860        13
39.870        27
39.880        13
39.890        40
39.900        27
39.910        13
39.920        13
39.930        27
39.940        13
39.950        13
39.960        13
39.970        13
39.980        67
39.990        27
40.000        27
40.010        27
40.020         0
40.030        53
40.040        13
40.050         0
40.060        40
40.070         0
40.080         0
40.090         0
40.100        53
40.110        27
40.120         0
40.130        13
40.140        13
40.150        13
40.160         0
40.170        13
40.180         0
40.190        27
40.200         0
40.210        27
40.220        27
40.230         0
40.240         0
40.250         0
40.260        27
40.270         0
40.280        40
40.290        40
40.300        53
40.310        13
40.320        40
40.330        27
40.340        27
40.350         0
40.360         0
40.370        13
40.380        27
40.390         0
40.400        53
40.410        13
40.420         0
40.430         0
40.440        13
40.450        40
40.460        13
40.470        27
40.480         0
40.490         0
40.500        40
40.510        13
40.520        40
40.530        40
40.540        27
40.550        27
40.560        13
40.570        13
40.580         0
40.590         0
40.600        13
40.610        27
40.620        13
40.630        27
40.640         0
40.650        27
40.660        13
40.670        13
40.680        27
40.690        27
40.700        13
40.710        13
40.720        13
40.730        13
40.740         0
40.750        27
40.760        13
40.770         0
40.780         0
40.790        13
40.800        27
40.810         0
40.820        27
40.830        53
40.840        13
40.850        27
40.860        27
40.870        13
40.880         0
40.890        27
40.900        40
40.910        13
40.920        13
40.930        13
40.940        40
40.950        27
40.960        27
40.970        40
40.980        27
40.990        27
41.000        53
41.010        13
41.020        13
41.030         0
41.040        53
41.050        13
41.060        13
41.070        27
41.080        40
41.090        40
41.100        80
41.110        27
41.120        27
41.130        27
41.140         0
41.150        53
41.160        40
41.170        13
41.180        27
41.190        13
41.200        13
41.210        53
41.220        13
41.230        40
41.240         0
41.250        13
41.260        13
41.270        27
41.280        13
41.290        27
41.300        13
41.310         0
41.320        13
41.330        27
41.340        53
41.350         0
41.360        13
41.370         0
41.380        13
41.390        67
41.400        13
41.410         0
41.420        13
41.430        13
41.440        53
41.450        13
41.460        13
41.470         0
41.480        40
41.490        13
41.500        13
41.510        27
41.520        40
41.530        40
41.540        80
41.550        40
41.560        53
41.570        27
41.580        40
41.590        13
41.600        27
41.610        13
41.620        27
41.630        13
41.640        40
41.650         0
41.660        13
41.670        13
41.680        13
41.690        40
41.700        67
41.710         0
41.720        27
41.730        13
41.740        40
41.750        40
41.760        27
41.770        13
41.780        27
41.790        53
41.800        13
41.810        27
41.820        13
41.830        13
41.840        27
41.850        13
41.860        27
41.870        27
41.880        27
41.890        53
41.900        53
41.910        13
41.920        27
41.930        67
41.940         0
41.950        40
41.960         0
41.970         0
41.980         0
41.990        40
42.000        67
42.010        40
42.020        27
42.030        13
42.040        40
42.050        13
42.060        67
42.070        27
42.080         0
42.090        40
42.100         0
42.110        67
42.120        53
42.130        53
42.140        40
42.150        40
42.160       107
42.170        80
42.180        40
42.190        80
42.200        40
42.210       107
42.220        80
42.230        53
42.240       147
42.250        40
42.260        80
42.270       107
42.280        40
42.290       173
42.300       133
42.310        67
42.320       147
42.330        93
42.340       160
42.350       187
42.360       187
42.370       173
42.380       187
42.390       187
42.400       267
42.410       173
42.420       240
42.430       253
42.440       200
42.450       240
42.460       173
42.470        80
42.480       120
42.490       133
42.500       107
42.510       120
42.520       133
42.530       160
42.540        93
42.550        67
42.560        80
42.570        80
42.580        27
42.590        93
42.600        40
42.610        80
42.620        40
42.630        40
42.640        67
42.650        27
42.660        67
42.670         0
42.680        27
42.690        80
42.700        40
42.710        27
42.720        27
42.730        13
42.740        27
42.750        27
42.760        40
42.770        53
42.780        27
42.790        13
42.800        13
42.810         0
42.820        13
42.830        53
42.840        27
42.850        67
42.860        27
42.870        40
42.880        27
42.890         0
42.900        27
42.910        53
42.920        53
42.930        53
42.940        27
42.950        27
42.960        67
42.970        27
42.980        27
42.990         0
43.000        40
43.010        27
43.020        13
43.030        27
43.040        27
43.050        53
43.060        27
43.070        27
43.080        13
43.090        40
43.100        53
43.110        27
43.120        40
43.130         0
43.140        27
43.150        40
43.160        53
43.170        27
43.180        27
43.190        13
43.200        40
43.210         0
43.220        53
43.230        13
43.240        40
43.250        13
43.260        27
43.270         0
43.280        53
43.290        13
43.300         0
43.310        53
43.320        27
43.330        40
43.340        13
43.350         0
43.360        27
43.370        13
43.380        13
43.390         0
43.400        40
43.410        27
43.420         0
43.430        40
43.440        13
43.450        53
43.460        53
43.470        53
43.480        27
43.490         0
43.500        53
43.510        13
43.520        27
43.530        53
43.540        40
43.550         0
43.560         0
43.570        27
43.580        27
43.590        13
43.600         0
43.610        40
43.620        40
43.630        27
43.640        53
43.650        80
43.660        80
43.670        40
43.680        40
43.690        80
43.700        13
43.710        80
43.720        80
43.730        67
43.740        27
43.750        40
43.760        40
43.770        27
43.780        80
43.790        40
43.800        40
43.810        13
43.820        27
43.830        40
43.840        53
43.850        40
43.860        67
43.870        13
43.880        13
43.890         0
43.900        53
43.910        67
43.920        27
43.930        27
43.940        13
43.950        13
43.960        13
43.970        27
43.980         0
43.990         0
44.000        27
44.010        13
44.020        27
44.030        13
44.040        13
44.050        40
44.060        27
44.070         0
44.080        27
44.090        27
44.100        40
44.110        13
44.120        13
44.130        13
44.140        27
44.150         0
44.160         0
44.170         0
44.180        53
44.190        53
44.200        27
44.210        13
44.220        53
44.230        40
44.240         0
44.250        13
44.260        27
44.270        13
44.280        53
44.290        53
44.300        27
44.310        13
44.320        40
44.330        27
44.340        27
44.350         0
44.360        27
44.370        13
44.380        40
44.390        40
44.400        27
44.410        40
44.420        27
44.430        13
44.440        13
44.450         0
44.460        67
44.470        27
44.480         0
44.490        13
44.500        13
44.510        40
44.520        13
44.530         0
44.540        40
44.550         0
44.560        40
44.570        40
44.580        27
44.590        27
44.600        40
44.610        27
44.620        27
44.630        27
44.640        40
44.650         0
44.660        27
44.670        40
44.680         0
44.690        13
44.700        27
44.710        40
44.720        27
44.730        13
44.740        53
44.750        27
44.760        13
44.770        27
44.780         0
44.790        27
44.800        27
44.810        13
44.820         0
44.830        13
44.840        27
44.850        27
44.860         0
44.870        40
44.880        27
44.890         0
44.900        27
44.910        13
44.920        40
44.930        27
44.940        40
44.950        27
44.960        27
44.970        40
44.980        13
44.990        13
45.000        40
45.010        40
45.020        27
45.030        13
45.040        27
45.050        27
45.060        27
45.070        13
45.080         0
45.090         0
45.100        40
45.110        13
45.120        40
45.130        13
45.140        27
45.150        40
45.160        27
45.170        27
45.180        27
45.190        13
45.200         0
45.210        67
45.220         0
45.230        27
45.240         0
45.250         0
45.260        13
45.270        67
45.280        40
45.290        27
45.300        13
45.310        40
45.320        27
45.330        40
45.340        13
45.350         0
45.360        27
45.370        27
45.380         0
45.390        53
45.400        40
45.410        13
45.420        13
45.430        13
45.440        13
45.450        13
45.460        27
45.470         0
45.480        27
45.490        80
45.500        53
45.510        67
45.520         0
45.530        27
45.540        27
45.550        40
45.560         0
45.570        27
45.580        27
45.590        13
45.600        13
45.610        27
45.620        40
45.630        27
45.640        13
45.650        13
45.660        27
45.670        27
45.680        13
45.690        80
45.700        40
45.710        13
45.720         0
45.730        27
45.740         0
45.750        27
45.760        67
45.770        40
45.780        40
45.790        67
45.800        13
45.810        40
45.820        53
45.830        53
45.840        80
45.850        80
45.860        67
45.870        67
45.880        67
45.890       107
45.900        93
45.910       187
45.920        93
45.930       213
45.940       133
45.950       200
45.960       213
45.970       160
45.980       147
45.990       253
46.000       187
46.010       227
46.020       293
46.030       253
46.040       360
46.050       253
46.060       333
46.070       293
46.080       240
46.090       347
46.100       480
46.110       320
46.120       240
46.130       360
46.140       307
46.150       426
46.160       333
46.170       280
46.180       360
46.190       360
46.200       240
46.210       227
46.220       227
46.230       253
46.240       293
46.250       187
46.260       267
46.270       253
46.280       173
46.290        53
46.300       120
46.310       133
46.320       187
46.330       160
46.340        93
46.350       107
46.360       147
46.370       133
46.380        80
46.390       133
46.400        27
46.410        80
46.420        53
46.430        40
46.440        40
46.450        40
46.460         0
46.470       120
46.480       120
46.490        27
46.500        40
46.510        40
46.520        27
46.530        80
46.540        13
46.550        67
46.560         0
46.570        40
46.580        40
46.590        13
46.600        13
46.610        27
46.620        40
46.630        13
46.640        27
46.650        13
46.660        40
46.670        40
46.680        80
46.690        53
46.700        40
46.710        53
46.720        40
46.730        67
46.740        80
46.750        27
46.760        27
46.770        27
46.780        40
46.790        13
46.800        27
46.810        53
46.820        40
46.830        67
46.840        67
46.850        67
46.860        27
46.870        67
46.880        67
46.890        67
46.900        40
46.910        40
46.920        40
46.930        67
46.940        53
46.950        67
46.960        13
46.970        27
46.980        53
46.990        40
47.000        53
47.010        13
47.020         0
47.030        27
47.040        27
47.050        27
47.060        13
47.070         0
47.080         0
47.090        40
47.100        13
47.110        27
47.120        27
47.130        53
47.140        40
47.150        53
47.160         0
47.170        40
47.180         0
47.190        53
47.200        40
47.210        13
47.220        27
47.230         0
47.240         0
47.250        40
47.260        13
47.270        67
47.280        40
47.290        53
47.300        27
47.310        40
47.320         0
47.330        13
47.340        40
47.350        27
47.360        53
47.370        13
47.380         0
47.390         0
47.400        27
47.410        40
47.420        53
47.430        40
47.440        13
47.450        40
47.460        13
47.470        13
47.480        27
47.490        67
47.500        53
47.510        40
47.520        13
47.530        13
47.540        80
47.550        27
47.560        27
47.570         0
47.580         0
47.590         0
47.600         0
47.610        53
47.620        80
47.630         0
47.640        13
47.650        13
47.660        13
47.670         0
47.680         0
47.690        13
47.700        27
47.710        13
47.720         0
47.730        40
47.740        27
47.750        13
47.760        27
47.770        40
47.780        40
47.790        13
47.800        40
47.810        67
47.820        27
47.830        27
47.840        67
47.850        13
47.860        27
47.870        27
47.880        13
47.890        27
47.900        27
47.910        27
47.920        27
47.930        13
47.940        13
47.950        27
47.960        13
47.970        27
47.980        13
47.990       107
48.000        13
48.010         0
48.020        27
48.030        13
48.040        13
48.050        13
48.060        13
48.070        13
48.080        13
48.090        13
48.100        13
48.110        13
48.120        40
48.130        13
48.140        40
48.150         0
48.160        27
48.170         0
48.180        27
48.190         0
48.200        13
48.210         0
48.220        13
48.230        13
48.240        27
48.250        40
48.260        40
48.270        13
48.280        53
48.290         0
48.300        13
48.310        13
48.320         0
48.330        27
48.340         0
48.350        40
48.360        40
48.370        40
48.380        13
48.390        40
48.400         0
48.410        27
48.420        27
48.430        27
48.440        40
48.450        40
48.460        67
48.470        67
48.480        13
48.490        27
48.500        27
48.510        40
48.520        13
48.530         0
48.540        40
48.550        27
48.560        40
48.570        27
48.580        27
48.590        27
48.600        13
48.610        13
48.620        27
48.630         0
48.640        27
48.650         0
48.660        13
48.670        40
48.680        40
48.690        53
48.700        27
48.710        53
48.720         0
48.730        27
48.740        80
48.750        27
48.760        13
48.770        13
48.780        53
48.790       107
48.800        27
48.810         0
48.820        40
48.830        40
48.840        13
48.850        27
48.860        40
48.870        13
48.880         0
48.890        40
48.900        53
48.910        27
48.920        53
48.930        40
48.940        40
48.950        27
48.960        80
48.970        80
48.980        80
48.990        80
49.000        67
49.010        93
49.020       120
49.030       120
49.040       107
49.050       227
49.060       160
49.070       160
49.080       213
49.090       107
49.100       253
49.110       227
49.120       227
49.130       253
49.140       213
49.150       280
49.160       160
49.170       293
49.180       173
49.190       173
49.200        67
49.210       253
49.220       133
49.230       173
49.240       133
49.250       240
49.260       187
49.270       173
49.280       147
49.290       133
49.300       160
49.310        93
49.320        40
49.330        53
49.340        67
49.350       107
49.360       120
49.370         0
49.380        40
49.390        13
49.400        40
49.410        40
49.420        40
49.430        67
49.440        40
49.450        40
49.460        67
49.470        53
49.480        27
49.490        40
49.500         0
49.510        40
49.520        27
49.530        27
49.540        40
49.550        40
49.560         0
49.570        27
49.580         0
49.590        27
49.600        13
49.610        13
49.620        80
49.630        27
49.640        27
49.650        93
49.660        40
49.670        53
49.680        27
49.690        67
49.700        13
49.710        13
49.720        40
49.730        53
49.740        40
49.750        40
49.760        13
49.770        40
49.780        27
49.790        13
49.800        67
49.810        40
49.820         0
49.830        40
49.840        40
49.850         0
49.860        40
49.870        27
49.880         0
49.890        13
49.900        40
49.910        13
49.920        27
49.930        13
49.940         0
49.950        40
49.960        27
49.970         0
49.980         0
49.990         0
50.000        27
50.010        27
50.020        67
50.030        13
50.040        27
50.050        27
50.060        40
50.070        67
50.080        67
50.090        40
50.100        27
50.110        53
50.120        40
50.130         0
50.140        13
50.150        27
50.160         0
50.170        53
50.180        13
50.190        27
50.200        53
50.210        27
50.220        40
50.230         0
50.240         0
50.250        27
50.260        13
50.270         0
50.280        53
50.290        27
50.300        40
50.310        13
50.320        13
50.330        27
50.340        27
50.350        13
50.360        13
50.370        27
50.380        27
50.390        40
50.400        67
50.410        53
50.420        13
50.430        53
50.440        53
50.450        13
50.460        40
50.470         0
50.480        40
50.490        13
50.500        53
50.510        40
50.520        53
50.530        40
50.540        67
50.550        40
50.560        27
50.570        13
50.580        40
50.590        13
50.600        53
50.610         0
50.620        53
50.630        27
50.640        27
50.650        27
50.660         0
50.670        40
50.680        13
50.690         0
50.700        27
50.710        13
50.720        67
50.730        40
50.740        13
50.750         0
50.760        27
50.770        40
50.780        40
50.790        13
50.800        13
50.810        27
50.820         0
50.830         0
50.840        13
50.850        40
50.860        13
50.870         0
50.880        40
50.890        40
50.900        27
50.910        13
50.920        13
50.930        27
50.940         0
50.950        40
50.960        13
50.970        13
50.980        53
50.990         0
51.000        53
51.010         0
51.020        13
51.030        13
51.040        53
51.050        40
51.060        13
51.070        13
51.080         0
51.090         0
51.100        27
51.110        53
51.120        27
51.130        27
51.140        27
51.150        27
51.160        13
51.170        13
51.180        13
51.190        40
51.200        67
51.210        13
51.220        13
51.230        27
51.240        40
51.250        40
51.260        40
51.270        27
51.280         0
51.290        40
51.300        27
51.310        13
51.320        13
51.330        13
51.340         0
51.350        27
51.360        53
51.370        13
51.380        40
51.390        27
51.400        40
51.410         0
51.420        80
51.430        27
51.440        27
51.450        27
51.460        80
51.470        27
51.480        27
51.490        53
51.500        40
51.510        27
51.520         0
51.530        27
51.540        27
51.550        13
51.560        67
51.570        13
51.580        67
51.590        40
51.600        27
51.610        53
51.620        27
51.630        67
51.640        80
51.650        53
51.660        80
51.670        80
51.680        53
51.690        53
51.700        53
51.710        40
51.720        13
51.730        27
51.740        93
51.750        93
51.760        53
51.770        40
51.780        80
51.790        67
51.800       147
51.810       120
51.820       133
51.830       173
51.840       160
51.850       213
51.860       200
51.870       227
51.880       120
51.890       227
51.900       320
51.910       240
51.920       360
51.930       320
51.940       440
51.950       387
51.960       453
51.970       400
51.980       533
51.990       466
52.000       400
52.010       440
52.020       560
52.030       333
52.040       440
52.050       400
52.060       320
52.070       426
52.080       387
52.090       506
52.100       373
52.110       360
52.120       347
52.130       426
52.140       253
52.150       293
52.160       267
52.170       320
52.180       147
52.190       200
52.200       213
52.210       213
52.220       147
52.230       133
52.240        80
52.250       107
52.260       147
52.270       120
52.280        53
52.290        67
52.300        93
52.310        93
52.320        53
52.330        80
52.340        40
52.350        67
52.360        67
52.370        93
52.380        80
52.390        80
52.400        40
52.410        67
52.420        40
52.430        53
52.440        27
52.450        40
52.460        27
52.470        40
52.480        67
52.490        53
52.500        67
52.510        93
52.520        80
52.530        67
52.540       107
52.550        67
52.560        93
52.570        53
52.580        27
52.590        67
52.600        27
52.610        40
52.620        53
52.630        53
52.640        13
52.650        53
52.660        40
52.670        40
52.680        80
52.690        80
52.700        27
52.710        27
52.720        40
52.730        53
52.740        40
52.750        27
52.760        40
52.770        80
52.780        27
52.790        53
52.800        93
52.810        80
52.820        53
52.830        53
52.840        13
52.850        40
52.860        40
52.870        27
52.880        40
52.890        53
52.900        67
52.910        13
52.920        40
52.930        67
52.940        53
52.950        13
52.960        53
52.970        27
52.980        67
52.990         0
53.000        40
53.010        13
53.020         0
53.030        53
53.040        13
53.050        40
53.060        93
53.070        53
53.080        67
53.090        40
53.100        27
53.110         0
53.120        27
53.130        40
53.140         0
53.150        80
53.160        13
53.170        27
53.180         0
53.190        53
53.200        13
53.210        13
53.220         0
53.230        53
53.240        13
53.250        27
53.260         0
53.270        53
53.280        13
53.290        27
53.300        67
53.310        67
53.320        13
53.330        53
53.340        40
53.350         0
53.360        40
53.370        27
53.380        53
53.390       107
53.400        40
53.410        53
53.420        67
53.430        80
53.440        13
53.450        53
53.460        80
53.470        27
53.480        27
53.490        40
53.500        53
53.510        40
53.520         0
53.530        27
53.540        40
53.550        67
53.560        27
53.570        67
53.580        13
53.590        27
53.600        27
53.610        67
53.620        93
53.630        67
53.640        53
53.650        40
53.660        40
53.670        27
53.680        53
53.690        80
53.700        13
53.710        27
53.720        27
53.730        27
53.740        13
53.750        27
53.760        13
53.770        27
53.780        27
53.790        80
53.800        40
53.810        27
53.820        67
53.830        53
53.840        27
53.850        27
53.860        53
53.870        13
53.880        40
53.890        13
53.900         0
53.910        27
53.920        27
53.930         0
53.940        13
53.950        27
53.960        40
53.970        67
53.980        27
53.990        27
54.000        40
54.010        13
54.020        53
54.030        13
54.040        40
54.050        13
54.060        40
54.070         0
54.080         0
54.090         0
54.100         0
54.110         0
54.120        27
54.130        40
54.140         0
54.150        40
54.160        27
54.170        53
54.180        13
54.190        53
54.200        27
54.210        93
54.220        53
54.230        13
54.240        53
54.250        67
54.260         0
54.270        40
54.280         0
54.290        40
54.300         0
54.310        53
54.320         0
54.330        27
54.340        53
54.350        27
54.360        40
54.370        13
54.380         0
54.390        13
54.400        13
54.410        13
54.420        27
54.430        13
54.440        40
54.450         0
54.460        40
54.470        40
54.480        13
54.490        40
54.500        27
54.510        27
54.520        40
54.530        13
54.540        40
54.550        53
54.560        27
54.570        40
54.580        13
54.590        13
54.600        53
54.610        40
54.620        40
54.630        40
54.640        40
54.650         0
54.660        27
54.670         0
54.680        27
54.690        27
54.700         0
54.710        27
54.720        40
54.730        27
54.740        13
54.750        40
54.760        80
54.770         0
54.780        80
54.790        67
54.800        27
54.810        40
54.820        13
54.830        13
54.840        13
54.850        13
54.860         0
54.870        40
54.880        27
54.890        13
54.900        40
54.910        27
54.920        27
54.930        40
54.940        13
54.950        13
54.960        13
54.970         0
54.980         0
54.990        67
55.000        13
55.010        40
55.020        40
55.030        27
55.040        27
55.050        67
55.060        13
55.070        27
55.080         0
55.090        53
55.100        13
55.110        40
55.120        27
55.130        67
55.140         0
55.150        27
55.160        13
55.170        53
55.180        13
55.190         0
55.200        13
55.210        27
55.220        13
55.230        67
55.240        27
55.250         0
55.260        27
55.270        13
55.280        40
55.290        27
55.300        27
55.310        40
55.320         0
55.330        40
55.340         0
55.350        13
55.360        13
55.370        27
55.380        13
55.390        40
55.400        80
55.410         0
55.420        40
55.430        13
55.440        13
55.450         0
55.460        13
55.470        27
55.480        13
55.490        67
55.500         0
55.510        13
55.520        53
55.530        13
55.540        13
55.550        27
55.560        27
55.570        27
55.580        27
55.590        13
55.600        40
55.610        53
55.620        40
55.630         0
55.640        13
55.650         0
55.660        13
55.670        53
55.680        13
55.690         0
55.700        27
55.710        13
55.720        13
55.730        53
55.740        27
55.750        27
55.760         0
55.770         0
55.780        27
55.790        13
55.800         0
55.810        67
55.820         0
55.830        27
55.840        40
55.850        40
55.860        53
55.870        40
55.880        27
55.890        27
55.900         0
55.910        13
55.920        53
55.930        13
55.940        13
55.950        53
55.960        27
55.970        40
55.980        40
55.990        40
56.000        40
56.010        13
56.020        13
56.030        13
56.040        27
56.050        13
56.060        27
56.070        13
56.080        13
56.090        27
56.100        40
56.110         0
56.120        13
56.130        27
56.140        53
56.150        40
56.160        67
56.170        13
56.180        13
56.190        13
56.200        13
56.210        40
56.220        27
56.230        13
56.240        27
56.250        40
56.260        27
56.270        27
56.280        53
56.290         0
56.300        67
56.310        27
56.320        13
56.330        67
56.340        40
56.350        27
56.360        53
56.370        67
56.380        53
56.390        13
56.400        27
56.410        40
56.420        27
56.430        13
56.440        40
56.450        40
56.460        40
56.470        27
56.480        40
56.490        27
56.500        27
56.510        53
56.520        27
56.530        67
56.540        13
56.550        13
56.560        53
56.570         0
56.580        40
56.590         0
56.600        40
56.610        27
56.620        53
56.630        40
56.640         0
56.650        40
56.660         0
56.670        27
56.680        80
56.690         0
56.700        13
56.710        80
56.720        13
56.730        27
56.740        40
56.750        40
56.760        13
56.770        13
56.780         0
56.790         0
56.800        13
56.810        53
56.820         0
56.830         0
56.840         0
56.850         0
56.860        13
56.870        53
56.880        13
56.890        13
56.900        13
56.910        13
56.920        13
56.930        27
56.940        13
56.950        67
56.960        13
56.970         0
56.980        27
56.990        67
57.000        27
57.010        13
57.020        13
57.030        40
57.040        40
57.050        40
57.060        67
57.070        27
57.080        13
57.090        40
57.100        27
57.110        13
57.120        53
57.130        27
57.140        13
57.150         0
57.160        27
57.170        53
57.180         0
57.190         0
57.200         0
57.210        27
57.220        13
57.230        13
57.240        13
57.250        40
57.260        40
57.270        40
57.280        13
57.290        67
57.300         0
57.310        13
57.320        27
57.330        27
57.340        27
57.350        40
57.360        13
57.370        13
57.380         0
57.390        13
57.400        27
57.410        13
57.420        13
57.430        13
57.440        67
57.450        40
57.460        40
57.470        67
57.480        13
57.490         0
57.500        53
57.510        53
57.520        13
57.530        13
57.540        13
57.550        13
57.560        27
57.570        13
57.580        40
57.590        27
57.600        13
57.610        27
57.620        27
57.630         0
57.640        40
57.650        27
57.660        13
57.670        53
57.680        27
57.690        27
57.700        67
57.710        13
57.720        13
57.730        13
57.740        40
57.750        53
57.760        13
57.770         0
57.780        40
57.790        40
57.800        67
57.810        27
57.820        27
57.830        27
57.840        53
57.850        27
57.860        67
57.870        13
57.880        40
57.890        67
57.900        27
57.910        27
57.920        13
57.930        27
57.940        13
57.950        27
57.960        40
57.970        27
57.980        13
57.990        40
58.000        13
58.010         0
58.020        40
58.030         0
58.040        13
58.050        13
58.060        40
58.070        27
58.080        27
58.090        40
58.100        13
58.110        13
58.120         0
58.130        13
58.140        27
58.150        40
58.160        13
58.170        13
58.180        53
58.190        27
58.200        27
58.210        13
58.220        40
58.230        13
58.240        53
58.250        27
58.260        40
58.270        13
58.280        40
58.290        40
58.300        40
58.310        13
58.320        13
58.330        13
58.340        13
58.350        13
58.360        27
58.370         0
58.380        27
58.390         0
58.400         0
58.410        27
58.420        13
58.430        13
58.440        40
58.450        27
58.460        27
58.470        27
58.480        13
58.490        13
58.500         0
58.510         0
58.520         0
58.530        13
58.540        13
58.550        13
58.560        13
58.570         0
58.580        27
58.590         0
58.600        40
58.610        13
58.620        27
58.630        40
58.640         0
58.650         0
58.660        53
58.670        53
58.680        13
58.690        13
58.700         0
58.710         0
58.720        13
58.730        13
58.740        13
58.750        13
58.760         0
58.770        40
58.780        27
58.790        13
58.800        53
58.810        13
58.820        13
58.830         0
58.840        27
58.850         0
58.860        27
58.870        13
58.880        27
58.890        27
58.900        13
58.910         0
58.920        27
58.930        13
58.940        13
58.950        27
58.960        40
58.970         0
58.980         0
58.990        27
59.000        13
59.010        13
59.020        40
59.030        40
59.040         0
59.050         0
59.060        27
59.070        27
59.080        13
59.090         0
59.100        53
59.110        27
59.120        13
59.130        13
59.140        13
59.150        27
59.160        27
59.170        40
59.180         0
59.190        13
59.200         0
59.210        27
59.220        27
59.230        27
59.240        27
59.250        13
59.260        13
59.270         0
59.280        67
59.290        40
59.300        13
59.310         0
59.320        13
59.330        13
59.340        67
59.350        27
59.360        67
59.370        27
59.380        27
59.390        40
59.400        13
59.410        67
59.420        53
59.430        40
59.440        40
59.450        67
59.460        27
59.470         0
59.480        53
59.490        53
59.500        40
59.510         0
59.520        53
59.530        13
59.540        93
59.550        40
59.560        67
59.570         0
59.580        27
59.590        40
59.600        13
59.610        13
59.620         0
59.630        67
59.640        27
59.650        40
59.660        27
59.670        40
59.680        27
59.690        27
59.700        53
59.710        27
59.720        67
59.730        27
59.740        13
59.750        27
59.760        27
59.770        40
59.780        27
59.790        27
59.800        27
59.810        27
59.820        27
59.830        27
59.840        27
59.850       107
59.860        27
59.870        27
59.880        27
59.890         0
59.900        67
59.910        40
59.920        40
59.930        13
59.940        80
59.950        27
59.960        80
59.970        27
59.980       120
59.990        67
60.000        80
