20.000        27
20.010        27
20.020        53
20.030        27
20.040        13
20.050        53
20.060        53
20.070        80
20.080        13
20.090        80
20.100        13
20.110        93
20.120        13
20.130        53
20.140        67
20.150        13
20.160       120
20.170        40
20.180        13
20.190        27
20.200        53
20.210        13
20.220        27
20.230        13
20.240        67
20.250        40
20.260        27
20.270        27
20.280        27
20.290        13
20.300        67
20.310        27
20.320        40
20.330        80
20.340        53
20.350        80
20.360        53
20.370        27
20.380        53
20.390        13
20.400        40
20.410        40
20.420        40
20.430        67
20.440        53
20.450        53
20.460        67
20.470        40
20.480        27
20.490       107
20.500        13
20.510        13
20.520        67
20.530        53
20.540        53
20.550        93
20.560        80
20.570        40
20.580        27
20.590        13
20.600        53
20.610        13
20.620        13
20.630        53
20.640        27
20.650        40
20.660        67
20.670        40
20.680        27
20.690        13
20.700        80
20.710        40
20.720        40
20.730         0
20.740        53
20.750        53
20.760        80
20.770        53
20.780        40
20.790        67
20.800        40
20.810        27
20.820        67
20.830        53
20.840        13
20.850        80
20.860        40
20.870        27
20.880        27
20.890        53
20.900        13
20.910        53
20.920        53
20.930        80
20.940        40
20.950        40
20.960        13
20.970        53
20.980        53
20.990        53
21.000        40
21.010        27
21.020        80
21.030        40
21.040        27
21.050        40
21.060        80
21.070        40
21.080       147
21.090        53
21.100        53
21.110        13
21.120        27
21.130        67
21.140        27
21.150        40
21.160        40
21.170        40
21.180        40
21.190        80
21.200        13
21.210        13
21.220        67
21.230        27
21.240        27
21.250        67
21.260        53
21.270        93
21.280        67
21.290        67
21.300        53
21.310       120
21.320        27
21.330        27
21.340        40
21.350        40
21.360        40
21.370         0
21.380        80
21.390        40
21.400        27
21.410        13
21.420        13
21.430        53
21.440        27
21.450        67
21.460        27
21.470        13
21.480        67
21.490        67
21.500        27
21.510        67
21.520        27
21.530        13
21.540        40
21.550        27
21.560         0
21.570        13
21.580        27
21.590        13
21.600        80
21.610        67
21.620        40
21.630        53
21.640        40
21.650        80
21.660        13
21.670        27
21.680        53
21.690        67
21.700        13
21.710        80
21.720        40
21.730        13
21.740        27
21.750        40
21.760        80
21.770        53
21.780        53
21.790        40
21.800        40
21.810        53
21.820        40
21.830        13
21.840        67
21.850        40
21.860        53
21.870        13
21.880        13
21.890        67
21.900        67
21.910        67
21.920        27
21.930        53
21.940        53
21.950        27
21.960        67
21.970        40
21.980        27
21.990        27
22.000        27
22.010         0
22.020        40
22.030        27
22.040        40
22.050        53
22.060        80
22.070        13
22.080        13
22.090        13
22.100        40
22.110        13
22.120        67
22.130        40
22.140        67
22.150        27
22.160        67
22.170        93
22.180        53
22.190        80
22.200        13
22.210        93
22.220        40
22.230       107
22.240        80
22.250        80
22.260       133
22.270        93
22.280        67
22.290       107
22.300       147
22.310       133
22.320        93
22.330       133
22.340       120
22.350       133
22.360       267
22.370       267
22.380       173
22.390       320
22.400       307
22.410       320
22.420       227
22.430       480
22.440       400
22.450       466
22.460       373
22.470       373
22.480       453
22.490       720
22.500       746
22.510       773
22.520       746
22.530       880
22.540       933
22.550       933
22.560       986
22.570      1066
22.580      1013
22.590       800
22.600       640
22.610       733
22.620       826
22.630       453
22.640       373
22.650       320
22.660       333
22.670       253
22.680       187
22.690       147
22.700       107
22.710        67
22.720       133
22.730       120
22.740       107
22.750        13
22.760        27
22.770        13
22.780        53
22.790        93
22.800        53
22.810       120
22.820       200
22.830        53
22.840        40
22.850        53
22.860        67
22.870        40
22.880       133
22.890       107
22.900        53
22.910       107
22.920        93
22.930       133
22.940        67
22.950        53
22.960       107
22.970       187
22.980       107
22.990       107
23.000       133
23.010       120
23.020       173
23.030        67
23.040       107
23.050       160
23.060        40
23.070       147
23.080       133
23.090       107
23.100       107
23.110        40
23.120        53
23.130        93
23.140        53
23.150        67
23.160        53
23.170       133
23.180        40
23.190        67
23.200        93
23.210        67
23.220       133
23.230        80
23.240        80
23.250        67
23.260        27
23.270        67
23.280       107
23.290        40
23.300        53
23.310        13
23.320        80
23.330        53
23.340        80
23.350        27
23.360        53
23.370        40
23.380        27
23.390        67
23.400        40
23.410        53
23.420        67
23.430        40
23.440        40
23.450        67
23.460        53
23.470        67
23.480        13
23.490        53
23.500        67
23.510        40
23.520       107
23.530        40
23.540        27
23.550        67
23.560        40
23.570        53
23.580        13
23.590        53
23.600        13
23.610        80
23.620        40
23.630         0
23.640        27
23.650        53
23.660        80
23.670        53
23.680        53
23.690        27
23.700        53
23.710        40
23.720         0
23.730        53
23.740        67
23.750        80
23.760       120
23.770        67
23.780        67
23.790        27
23.800        53
23.810        40
23.820        53
23.830        53
23.840        53
23.850        67
23.860        53
23.870        13
23.880        67
23.890        40
23.900        53
23.910        80
23.920        27
23.930        53
23.940        27
23.950        93
23.960        67
23.970        80
23.980        67
23.990        27
24.000        53
24.010        53
24.020        13
24.030        53
24.040        27
24.050        13
24.060        40
24.070        40
24.080        40
24.090        40
24.100        40
24.110        67
24.120        13
24.130        93
24.140        40
24.150        53
24.160        53
24.170        40
24.180        13
24.190        67
24.200        53
24.210        80
24.220        53
24.230        27
24.240        27
24.250        27
24.260        27
24.270        27
24.280        53
24.290        40
24.300        13
24.310        80
24.320        40
24.330        13
24.340        27
24.350        40
24.360        40
24.370        40
24.380        13
24.390        40
24.400        27
24.410        13
24.420        67
24.430        27
24.440        40
24.450        67
24.460        40
24.470        67
24.480         0
24.490        67
24.500        27
24.510        13
24.520        40
24.530        53
24.540        67
24.550        80
24.560        67
24.570         0
24.580        13
24.590        27
24.600        80
24.610        40
24.620        53
24.630        80
24.640        53
24.650        67
24.660        27
24.670        67
24.680        40
24.690        53
24.700        80
24.710        40
24.720        80
24.730        67
24.740        40
24.750        40
24.760        13
24.770        53
24.780        53
24.790        53
24.800        53
24.810        67
24.820        80
24.830        40
24.840        13
24.850        93
24.860        67
24.870        13
24.880        80
24.890        80
24.900        67
24.910        67
24.920        40
24.930        53
24.940        27
24.950        53
24.960        40
24.970        40
24.980        53
24.990        13
25.000        40
25.010        13
25.020        53
25.030        40
25.040        27
25.050        40
25.060        67
25.070        13
25.080        67
25.090        80
25.100        27
25.110        13
25.120        40
25.130        40
25.140        13
25.150        40
25.160        67
25.170        80
25.180        40
25.190        13
25.200        53
25.210        27
25.220        53
25.230        67
25.240        53
25.250        40
25.260        40
25.270        13
25.280        53
25.290        40
25.300        40
25.310        53
25.320        53
25.330        53
25.340        27
25.350        53
25.360       133
25.370        80
25.380        53
25.390        27
25.400        67
25.410        13
25.420        27
25.430        13
25.440        27
25.450        27
25.460        13
25.470        80
25.480        80
25.490        80
25.500        67
25.510        13
25.520        80
25.530        27
25.540         0
25.550        13
25.560        13
25.570        67
25.580        13
25.590        27
25.600        67
25.610        40
25.620        40
25.630        80
25.640        93
25.650        27
25.660        40
25.670        40
25.680        67
25.690        67
25.700        93
25.710        80
25.720        67
25.730        93
25.740        40
25.750        27
25.760        40
25.770        53
25.780        53
25.790       107
25.800       107
25.810        53
25.820       120
25.830        40
25.840        13
25.850        13
25.860       107
25.870       120
25.880        53
25.890        67
25.900       133
25.910        40
25.920        67
25.930        53
25.940       107
25.950        40
25.960        93
25.970        27
25.980        13
25.990        67
26.000        13
26.010        27
26.020        27
26.030        27
26.040        67
26.050        67
26.060        13
26.070        67
26.080        53
26.090        27
26.100        67
26.110        40
26.120        40
26.130        53
26.140        27
26.150        67
26.160        93
26.170        13
26.180        40
26.190        27
26.200        67
26.210        27
26.220        53
26.230        40
26.240        27
26.250        53
26.260        27
26.270        40
26.280        13
26.290        27
26.300        67
26.310        40
26.320        40
26.330        53
26.340        13
26.350        13
26.360        27
26.370        40
26.380        40
26.390        53
26.400        53
26.410        27
26.420        40
26.430        53
26.440        40
26.450        53
26.460         0
26.470        53
26.480        27
26.490        53
26.500        53
26.510        67
26.520        53
26.530        13
26.540        67
26.550        13
26.560        27
26.570        40
26.580        40
26.590        53
26.600        40
26.610        13
26.620        27
26.630        27
26.640        27
26.650        53
26.660        53
26.670         0
26.680        27
26.690        53
26.700        27
26.710         0
26.720        13
26.730        13
26.740        53
26.750        53
26.760        53
26.770        53
26.780        53
26.790        80
26.800        13
26.810         0
26.820        27
26.830        67
26.840        53
26.850         0
26.860        53
26.870        53
26.880        27
26.890        40
26.900        40
26.910        67
26.920        40
26.930        27
26.940        27
26.950        40
26.960        40
26.970        53
26.980        40
26.990        27
27.000        27
27.010        53
27.020        13
27.030        13
27.040        13
27.050        53
27.060         0
27.070        40
27.080        53
27.090        27
27.100        27
27.110        27
27.120        53
27.130         0
27.140        40
27.150        13
27.160        27
27.170         0
27.180         0
27.190         0
27.200         0
27.210        13
27.220        53
27.230        13
27.240        40
27.250        13
27.260        53
27.270        13
27.280        53
27.290        53
27.300        13
27.310        13
27.320        13
27.330        13
27.340        40
27.350        27
27.360        27
27.370        40
27.380        27
27.390        13
27.400        40
27.410         0
27.420        27
27.430         0
27.440        13
27.450        13
27.460        40
27.470        80
27.480        27
27.490        27
27.500        27
27.510        13
27.520        53
27.530        40
27.540        40
27.550        67
27.560        40
27.570        93
27.580        40
27.590        80
27.600       120
27.610        53
27.620       107
27.630        67
27.640        67
27.650        53
27.660        80
27.670        53
27.680        27
27.690       107
27.700        80
27.710        67
27.720        67
27.730        40
27.740       133
27.750        93
27.760        80
27.770        27
27.780       107
27.790        67
27.800        53
27.810        53
27.820        67
27.830        40
27.840        40
27.850        80
27.860        40
27.870         0
27.880        27
27.890        13
27.900        67
27.910        40
27.920        93
27.930         0
27.940        13
27.950        40
27.960        13
27.970        27
27.980        27
27.990        40
28.000        67
28.010        27
28.020        27
28.030        13
28.040        80
28.050        13
28.060        53
28.070        13
28.080        40
28.090       120
28.100        13
28.110        53
28.120        93
28.130        40
28.140        27
28.150        40
28.160       107
28.170        27
28.180        80
28.190        53
28.200       120
28.210        80
28.220        40
28.230        53
28.240        53
28.250        53
28.260       120
28.270        53
28.280        67
28.290        93
28.300        80
28.310        27
28.320        27
28.330        67
28.340        53
28.350        27
28.360        40
28.370        53
28.380        27
28.390        27
28.400        67
28.410        67
28.420        40
28.430        40
28.440         0
28.450        40
28.460        80
28.470        93
28.480        27
28.490        27
28.500        53
28.510        80
28.520         0
28.530        53
28.540        67
28.550        53
28.560        27
28.570        13
28.580        53
28.590        80
28.600        27
28.610        53
28.620        53
28.630        40
28.640         0
28.650        53
28.660        27
28.670        27
28.680        27
28.690        53
28.700        53
28.710        27
28.720        53
28.730        40
28.740        40
28.750         0
28.760        67
28.770        13
28.780        93
28.790        13
28.800         0
28.810        40
28.820        40
28.830        80
28.840        40
28.850        27
28.860        27
28.870        40
28.880        40
28.890        27
28.900        67
28.910        93
28.920        27
28.930        53
28.940        27
28.950        27
28.960        53
28.970        27
28.980        67
28.990        67
29.000        80
29.010        67
29.020        67
29.030        27
29.040        13
29.050        40
29.060        67
29.070        40
29.080        80
29.090       107
29.100        13
29.110        27
29.120        67
29.130        93
29.140        80
29.150        93
29.160        27
29.170        40
29.180        67
29.190        93
29.200        67
29.210        13
29.220        53
29.230        53
29.240       107
29.250        27
29.260        53
29.270        40
29.280        53
29.290       107
29.300        67
29.310        67
29.320        53
29.330        13
29.340        53
29.350        53
29.360        53
29.370        93
29.380        93
29.390        40
29.400        53
29.410        53
29.420        40
29.430        80
29.440        67
29.450       147
29.460       107
29.470       120
29.480        93
29.490        93
29.500        93
29.510        27
29.520        53
29.530        40
29.540       107
29.550        13
29.560       120
29.570        67
29.580        67
29.590        80
29.600       133
29.610        53
29.620        80
29.630       133
29.640       107
29.650       120
29.660        67
29.670        40
29.680       133
29.690        67
29.700       107
29.710        93
29.720        27
29.730        27
29.740        27
29.750        40
29.760        27
29.770        13
29.780        40
29.790        27
29.800        53
29.810         0
29.820         0
29.830        27
29.840        13
29.850         0
29.860        27
29.870        53
29.880         0
29.890        53
29.900         0
29.910        13
29.920        27
29.930        53
29.940         0
29.950        13
29.960         0
29.970        27
29.980        13
29.990        27
30.000        27
30.010        40
30.020        53
30.030        13
30.040        27
30.050        53
30.060        27
30.070        13
30.080        40
30.090        67
30.100        13
30.110        27
30.120        27
30.130         0
30.140        13
30.150         0
30.160        27
30.170        40
30.180        53
30.190       107
30.200        13
30.210        13
30.220        40
30.230        53
30.240        13
30.250        40
30.260        40
30.270        40
30.280         0
30.290        13
30.300        40
30.310         0
30.320       147
30.330         0
30.340        67
30.350        40
30.360        40
30.370        13
30.380        40
30.390        40
30.400        40
30.410        67
30.420       107
30.430        67
30.440        67
30.450        80
30.460       107
30.470        67
30.480        53
30.490       120
30.500        93
30.510       107
30.520        53
30.530        40
30.540        93
30.550        93
30.560        53
30.570       133
30.580        13
30.590        13
30.600        40
30.610        27
30.620        40
30.630        27
30.640        27
30.650        40
30.660        53
30.670        80
30.680        27
30.690        40
30.700        27
30.710        40
30.720        53
30.730        13
30.740        27
30.750        40
30.760        27
30.770        13
30.780        27
30.790        40
30.800        13
30.810        53
30.820        53
30.830        27
30.840        53
30.850        13
30.860        27
30.870         0
30.880        13
30.890        27
30.900        27
30.910        40
30.920        13
30.930        13
30.940        40
30.950        27
30.960        13
30.970        27
30.980        27
30.990        53
31.000        13
31.010        13
31.020        13
31.030        40
31.040        80
31.050         0
31.060        53
31.070        40
31.080        13
31.090        13
31.100        13
31.110        27
31.120        27
31.130        67
31.140        27
31.150        13
31.160        40
31.170        53
31.180        40
31.190        67
31.200        40
31.210         0
31.220        13
31.230        13
31.240        80
31.250         0
31.260        13
31.270        53
31.280        27
31.290         0
31.300        13
31.310        53
31.320        40
31.330        40
31.340         0
31.350        27
31.360        80
31.370        27
31.380        27
31.390        27
31.400        13
31.410         0
31.420        27
31.430        40
31.440        13
31.450        13
31.460        13
31.470        27
31.480         0
31.490        27
31.500        27
31.510         0
31.520        27
31.530        13
31.540        13
31.550        13
31.560        13
31.570        40
31.580         0
31.590        13
31.600        13
31.610         0
31.620        67
31.630        13
31.640        40
31.650        40
31.660        13
31.670         0
31.680        53
31.690        27
31.700        27
31.710        13
31.720        40
31.730        27
31.740        27
31.750        53
31.760        27
31.770        40
31.780        27
31.790        13
31.800        27
31.810        67
31.820        80
31.830        27
31.840        27
31.850        13
31.860        53
31.870        27
31.880        53
31.890         0
31.900        13
31.910        27
31.920        40
31.930        13
31.940         0
31.950        40
31.960        40
31.970        53
31.980        13
31.990        53
32.000        40
32.010        53
32.020        27
32.030        27
32.040        40
32.050        80
32.060        67
32.070        53
32.080        93
32.090        93
32.100       107
32.110       133
32.120        40
32.130       173
32.140       107
32.150       120
32.160        53
32.170        80
32.180       120
32.190        80
32.200        93
32.210        80
32.220       147
32.230       133
32.240        53
32.250        93
32.260        80
32.270        67
32.280       120
32.290        80
32.300        40
32.310        67
32.320        27
32.330        67
32.340        40
32.350        40
32.360        40
32.370        13
32.380        53
32.390        27
32.400        40
32.410        13
32.420        27
32.430        67
32.440        27
32.450         0
32.460        13
32.470         0
32.480         0
32.490        13
32.500        13
32.510        27
32.520        40
32.530         0
32.540        27
32.550        13
32.560        27
32.570        27
32.580         0
32.590        13
32.600         0
32.610        27
32.620        53
32.630        27
32.640        53
32.650        13
32.660        67
32.670        27
32.680        13
32.690        53
32.700        27
32.710        13
32.720        13
32.730        13
32.740         0
32.750        13
32.760        27
32.770        13
32.780        27
32.790        27
32.800        40
32.810        53
32.820        40
32.830         0
32.840        27
32.850        27
32.860        40
32.870        13
32.880        13
32.890         0
32.900        40
32.910        13
32.920        13
32.930        13
32.940        27
32.950         0
32.960        27
32.970        13
32.980         0
32.990        27
33.000        27
33.010         0
33.020        13
33.030         0
33.040         0
33.050        53
33.060        13
33.070        40
33.080        67
33.090        27
33.100         0
33.110        13
33.120        27
33.130        27
33.140         0
33.150        13
33.160         0
33.170       107
33.180        13
33.190        13
33.200        27
33.210        27
33.220        13
33.230        27
33.240        40
33.250         0
33.260        13
33.270        53
33.280        13
33.290        40
33.300        53
33.310        27
33.320        40
33.330        13
33.340        40
33.350        40
33.360        27
33.370        80
33.380        13
33.390        93
33.400         0
33.410        27
33.420        13
33.430        27
33.440        13
33.450        13
33.460        27
33.470        40
33.480        53
33.490        40
33.500        67
33.510        13
33.520        40
33.530        27
33.540        27
33.550        27
33.560        13
33.570        53
33.580        27
33.590        27
33.600        40
33.610        53
33.620        13
33.630        27
33.640        13
33.650        13
33.660         0
33.670        13
33.680        40
33.690        13
33.700        27
33.710        13
33.720        40
33.730        27
33.740        40
33.750        53
33.760         0
33.770        27
33.780        13
33.790        13
33.800        13
33.810        27
33.820        40
33.830        13
33.840        27
33.850        40
33.860        27
33.870        40
33.880        53
33.890         0
33.900        13
33.910        13
33.920        13
33.930        27
33.940        13
33.950        13
33.960        27
33.970        40
33.980        27
33.990        13
34.000        13
34.010        27
34.020        40
34.030        13
34.040         0
34.050        67
34.060         0
34.070        27
34.080        40
34.090        40
34.100        40
34.110         0
34.120         0
34.130         0
34.140        27
34.150        13
34.160        40
34.170        13
34.180        13
34.190        27
34.200         0
34.210         0
34.220         0
34.230        40
34.240        13
34.250        27
34.260        40
34.270        13
34.280        53
34.290        13
34.300        27
34.310        13
34.320        13
34.330        53
34.340        27
34.350        13
34.360        40
34.370        27
34.380         0
34.390        40
34.400        13
34.410        40
34.420        27
34.430        27
34.440        13
34.450        53
34.460        13
34.470        13
34.480        27
34.490        13
34.500        40
34.510        13
34.520        53
34.530        53
34.540        80
34.550        27
34.560        13
34.570        40
34.580        67
34.590        27
34.600        13
34.610        27
34.620        13
34.630        40
34.640        13
34.650         0
34.660        13
34.670        53
34.680        40
34.690        53
34.700        13
34.710        67
34.720        40
34.730        27
34.740        67
34.750        13
34.760        13
34.770        27
34.780        13
34.790        13
34.800        13
34.810         0
34.820        40
34.830         0
34.840        13
34.850        53
34.860        40
34.870        93
34.880        40
34.890        27
34.900        40
34.910        27
34.920        27
34.930        40
34.940        53
34.950        67
34.960        27
34.970        13
34.980        27
34.990        27
35.000        13
35.010        40
35.020        40
35.030        53
35.040        40
35.050        27
35.060        27
35.070        27
35.080        80
35.090        93
35.100        27
35.110        40
35.120        53
35.130        67
35.140        80
35.150        53
35.160        93
35.170       147
35.180       133
35.190       160
35.200       160
35.210       173
35.220       173
35.230       160
35.240       133
35.250       160
35.260        80
35.270        93
35.280       147
35.290       133
35.300       133
35.310        67
35.320        53
35.330        80
35.340        40
35.350        27
35.360        40
35.370        40
35.380        67
35.390        53
35.400        27
35.410        93
35.420        27
35.430        53
35.440         0
35.450        40
35.460        13
35.470        40
35.480        13
35.490        27
35.500        13
35.510        13
35.520        27
35.530         0
35.540        13
35.550        27
35.560        13
35.570        27
35.580        27
35.590        13
35.600        53
35.610        27
35.620        27
35.630        13
35.640        53
35.650         0
35.660        27
35.670        27
35.680        27
35.690         0
35.700        40
35.710        40
35.720        67
35.730         0
35.740        40
35.750        40
35.760        40
35.770        13
35.780        27
35.790         0
35.800        27
35.810        67
35.820        27
35.830         0
35.840        40
35.850        53
35.860        27
35.870        53
35.880        13
35.890        27
35.900        27
35.910        40
35.920        13
35.930        40
35.940        53
35.950         0
35.960        13
35.970        27
35.980        13
35.990         0
36.000         0
36.010        40
36.020        27
36.030        67
36.040        13
36.050        13
36.060        27
36.070        13
36.080        13
36.090        27
36.100        40
36.110        13
36.120        13
36.130        13
36.140        13
36.150        13
36.160        27
36.170        27
36.180        13
36.190         0
36.200        27
36.210        13
36.220        13
36.230        27
36.240        40
36.250        53
36.260        27
36.270        13
36.280         0
36.290        40
36.300         0
36.310        27
36.320        53
36.330        13
36.340        13
36.350        27
36.360         0
36.370        13
36.380         0
36.390         0
36.400        40
36.410        27
36.420        53
36.430        27
36.440        27
36.450         0
36.460        13
36.470        27
36.480        13
36.490        13
36.500        13
36.510        13
36.520        27
36.530         0
36.540        27
36.550        40
36.560        27
36.570         0
36.580        40
36.590         0
36.600        27
36.610        27
36.620        40
36.630        13
36.640        27
36.650        13
36.660        40
36.670        40
36.680        27
36.690        13
36.700        13
36.710        27
36.720         0
36.730        13
36.740        27
36.750         0
36.760        27
36.770        13
36.780        27
36.790       107
36.800         0
36.810        13
36.820        40
36.830        40
36.840        40
36.850        13
36.860        27
36.870         0
36.880        53
36.890         0
36.900        40
36.910        13
36.920         0
36.930        27
36.940        53
36.950        93
36.960        80
36.970        13
36.980        40
36.990        27
37.000        13
37.010        13
37.020        53
37.030         0
37.040        40
37.050        13
37.060        53
37.070        27
37.080        40
37.090         0
37.100        13
37.110        27
37.120        13
37.130        40
37.140        13
37.150        27
37.160        53
37.170        40
37.180        27
37.190        27
37.200        27
37.210        13
37.220        13
37.230        40
37.240         0
37.250        27
37.260        27
37.270        13
37.280        13
37.290        13
37.300        40
37.310        27
37.320        27
37.330         0
37.340        27
37.350        27
37.360        13
37.370        40
37.380        13
37.390         0
37.400         0
37.410        40
37.420        27
37.430        40
37.440        27
37.450        40
37.460        13
37.470        13
37.480        53
37.490        27
37.500        13
37.510        40
37.520        27
37.530        27
37.540        27
37.550        27
37.560        13
37.570        13
37.580        40
37.590        27
37.600         0
37.610        40
37.620        67
37.630         0
37.640        67
37.650        13
37.660        27
37.670        27
37.680        13
37.690        40
37.700        40
37.710        27
37.720        27
37.730        13
37.740        13
37.750        40
37.760        13
37.770        53
37.780        27
37.790        13
37.800        13
37.810        13
37.820        67
37.830        13
37.840        40
37.850        27
37.860        13
37.870        40
37.880         0
37.890        40
37.900        40
37.910        40
37.920        53
37.930        13
37.940        67
37.950        27
37.960        13
37.970        40
37.980        27
37.990        40
38.000        53
38.010         0
38.020         0
38.030        13
38.040        27
38.050        13
38.060        13
38.070        27
38.080        40
38.090        13
38.100         0
38.110        27
38.120        27
38.130        13
38.140         0
38.150        27
38.160        27
38.170        40
38.180        13
38.190        13
38.200        53
38.210        13
38.220        27
38.230        13
38.240        53
38.250         0
38.260        13
38.270        27
38.280        53
38.290        13
38.300        27
38.310         0
38.320         0
38.330        27
38.340        27
38.350        27
38.360        80
38.370        27
38.380        13
38.390        27
38.400        27
38.410        40
38.420        27
38.430        40
38.440        53
38.450        13
38.460        53
38.470         0
38.480         0
38.490        27
38.500        27
38.510        27
38.520         0
38.530        53
38.540         0
38.550        27
38.560        40
38.570        40
38.580        40
38.590        27
38.600        53
38.610        53
38.620        40
38.630        27
38.640        27
38.650        53
38.660        40
38.670        13
38.680         0
38.690        13
38.700        13
38.710        53
38.720        27
38.730        27
38.740        13
38.750        13
38.760         0
38.770         0
38.780        40
38.790         0
38.800        40
38.810         0
38.820        13
38.830        27
38.840        40
38.850        40
38.860        27
38.870        13
38.880        27
38.890        27
38.900        27
38.910         0
38.920        40
38.930        53
38.940        80
38.950         0
38.960        53
38.970         0
38.980        13
38.990        80
39.000        80
39.010        13
39.020        27
39.030        13
39.040        27
39.050        13
39.060        13
39.070        40
39.080        53
39.090        27
39.100        13
39.110        13
39.120        27
39.130        53
39.140        27
39.150        53
39.160         0
39.170        13
39.180        40
39.190        40
39.200        40
39.210        53
39.220         0
39.230        13
39.240        27
39.250        40
39.260        13
39.270         0
39.280        40
39.290        53
39.300        27
39.310        27
39.320        80
39.330        27
39.340        67
39.350        40
39.360        13
39.370        27
39.380        67
39.390         0
39.400        40
39.410        13
39.420        40
39.430        40
39.440        27
39.450        27
39.460        27
39.470         0
39.480        53
39.490        27
39.500        27
39.510        27
39.520        40
39.530        27
39.540        27
39.550        13
39.560        13
39.570        27
39.580        27
39.590         0
39.600        27
39.610        27
39.620        40
39.630        40
39.640        40
39.650        53
39.660         0
39.670        13
39.680        67
39.690        40
39.700        53
39.710        40
39.720         0
39.730        40
39.740        13
39.750        13
39.760        13
39.770        13
39.780        40
39.790        27
39.800        27
39.810        53
39.820        13
39.830         0
39.840        13
39.850        13
39.860         0
39.870        13
39.880        67
39.890        53
39.900        40
39.910        53
39.920        40
39.930        13
39.940        27
39.950        27
39.960        27
39.970        13
39.980        53
39.990        13
40.000        13
40.010        13
40.020        27
40.030         0
40.040         0
40.050        27
40.060        13
40.070        27
40.080        13
40.090        27
40.100         0
40.110         0
40.120        13
40.130        13
40.140         0
40.150        40
40.160        40
40.170         0
40.180        27
40.190        40
40.200        40
40.210        40
40.220        27
40.230        27
40.240        13
40.250        27
40.260        27
40.270        40
40.280        40
40.290         0
40.300        27
40.310         0
40.320        27
40.330        67
40.340        27
40.350        27
40.360        40
40.370        13
40.380        27
40.390        13
40.400        27
40.410        40
40.420        80
40.430        27
40.440        40
40.450        13
40.460        27
40.470        13
40.480        27
40.490        40
40.500        53
40.510        40
40.520        13
40.530        27
40.540        40
40.550        27
40.560        27
40.570        13
40.580        40
40.590        13
40.600        53
40.610        27
40.620        13
40.630        13
40.640        27
40.650        13
40.660        40
40.670        40
40.680        27
40.690         0
40.700        13
40.710        27
40.720        27
40.730        13
40.740        13
40.750        40
40.760        27
40.770        27
40.780        27
40.790         0
40.800        13
40.810        67
40.820        13
40.830        27
40.840         0
40.850        27
40.860        67
40.870        67
40.880        67
40.890         0
40.900        13
40.910        13
40.920        27
40.930        13
40.940        27
40.950        27
40.960        13
40.970        40
40.980        27
40.990        40
41.000        27
41.010        53
41.020        27
41.030        27
41.040        27
41.050        27
41.060        40
41.070        13
41.080        40
41.090        13
41.100        27
41.110        27
41.120        27
41.130         0
41.140        40
41.150        27
41.160        27
41.170        27
41.180        13
41.190         0
41.200        27
41.210        67
41.220        27
41.230        53
41.240        27
41.250        13
41.260        13
41.270        13
41.280        27
41.290        40
41.300        27
41.310        27
41.320        13
41.330        13
41.340         0
41.350        13
41.360        27
41.370        67
41.380        40
41.390        13
41.400         0
41.410        27
41.420        13
41.430         0
41.440        27
41.450        13
41.460        27
41.470         0
41.480        13
41.490        67
41.500        13
41.510        40
41.520        13
41.530        40
41.540        13
41.550        27
41.560        27
41.570        13
41.580        53
41.590        53
41.600        13
41.610        27
41.620        67
41.630        53
41.640        27
41.650        80
41.660       107
41.670       120
41.680       107
41.690        67
41.700        67
41.710        67
41.720       107
41.730       133
41.740        53
41.750        80
41.760        53
41.770        27
41.780        67
41.790        67
41.800        93
41.810        40
41.820        67
41.830        93
41.840        27
41.850        53
41.860        40
41.870        80
41.880        53
41.890        53
41.900         0
41.910        13
41.920        40
41.930        27
41.940         0
41.950         0
41.960        27
41.970        40
41.980        40
41.990        13
42.000        67
42.010        13
42.020        27
42.030        13
42.040         0
42.050        13
42.060        27
42.070        27
42.080        40
42.090        13
42.100        13
42.110        13
42.120        27
42.130        40
42.140        27
42.150        13
42.160        13
42.170        53
42.180        40
42.190        13
42.200        13
42.210        27
42.220        40
42.230        67
42.240        13
42.250        27
42.260        40
42.270        40
42.280        53
42.290        13
42.300        40
42.310        53
42.320        53
42.330        27
42.340        53
42.350        27
42.360         0
42.370        40
42.380        53
42.390        53
42.400        67
42.410        40
42.420        53
42.430        53
42.440        67
42.450        40
42.460        27
42.470        27
42.480        40
42.490        27
42.500        53
42.510        27
42.520        40
42.530        27
42.540        27
42.550        40
42.560         0
42.570        27
42.580        67
42.590        27
42.600        13
42.610         0
42.620        53
42.630        40
42.640        27
42.650        27
42.660        40
42.670         0
42.680         0
42.690         0
42.700        13
42.710        27
42.720        13
42.730        40
42.740         0
42.750        40
42.760         0
42.770        13
42.780        53
42.790        40
42.800        13
42.810        27
42.820        13
42.830        27
42.840        40
42.850        13
42.860        40
42.870        27
42.880        27
42.890        13
42.900        53
42.910         0
42.920       120
42.930        27
42.940         0
42.950        27
42.960        13
42.970        13
42.980        27
42.990        27
43.000         0
43.010        13
43.020        27
43.030        13
43.040        27
43.050        27
43.060        67
43.070        53
43.080        40
43.090        53
43.100        40
43.110        40
43.120        40
43.130        13
43.140        13
43.150        40
43.160        27
43.170        80
43.180        67
43.190         0
43.200        27
43.210        27
43.220        13
43.230        13
43.240        40
43.250        13
43.260        53
43.270        13
43.280        27
43.290        13
43.300        13
43.310        40
43.320       160
43.330        13
43.340        67
43.350        53
43.360        67
43.370        93
43.380        67
43.390        93
43.400        53
43.410       120
43.420       120
43.430       120
43.440        80
43.450        67
43.460        53
43.470        80
43.480        80
43.490        80
43.500        27
43.510        27
43.520       133
43.530        53
43.540       160
43.550        67
43.560        27
43.570        67
43.580        67
43.590        13
43.600        27
43.610        27
43.620        13
43.630         0
43.640        13
43.650        27
43.660        40
43.670        27
43.680        40
43.690        53
43.700        27
43.710        13
43.720         0
43.730        13
43.740        67
43.750        40
43.760        40
43.770        27
43.780        27
43.790        40
43.800        13
43.810        13
43.820        40
43.830        27
43.840        40
43.850        27
43.860        27
43.870        27
43.880         0
43.890        27
43.900        13
43.910        13
43.920        13
43.930        13
43.940        27
43.950         0
43.960        53
43.970        13
43.980        13
43.990        13
44.000         0
44.010        13
44.020        27
44.030        27
44.040        13
44.050        27
44.060        40
44.070        13
44.080         0
44.090        13
44.100        13
44.110        27
44.120        13
44.130        13
44.140        13
44.150         0
44.160        80
44.170        27
44.180        27
44.190        53
44.200        27
44.210        40
44.220        40
44.230        27
44.240        40
44.250        27
44.260        27
44.270        27
44.280        27
44.290        13
44.300        40
44.310        27
44.320        67
44.330        13
44.340        13
44.350         0
44.360         0
44.370        40
44.380         0
44.390        27
44.400        13
44.410        13
44.420        27
44.430        27
44.440        27
44.450        13
44.460        27
44.470        13
44.480        27
44.490        13
44.500        27
44.510        27
44.520        13
44.530        13
44.540         0
44.550        27
44.560        40
44.570        27
44.580        13
44.590        53
44.600        27
44.610        27
44.620        13
44.630        27
44.640        27
44.650        40
44.660        13
44.670        27
44.680        53
44.690        40
44.700        13
44.710        40
44.720        13
44.730        13
44.740         0
44.750        13
44.760        13
44.770        67
44.780        53
44.790        13
44.800        13
44.810        27
44.820         0
44.830         0
44.840        27
44.850        13
44.860        13
44.870        53
44.880        13
44.890        13
44.900         0
44.910        27
44.920        13
44.930        40
44.940        53
44.950        13
44.960       107
44.970        27
44.980        80
44.990        13
45.000        13
45.010        27
45.020        27
45.030        27
45.040        27
45.050        40
45.060         0
45.070        53
45.080        27
45.090        13
45.100        53
45.110        13
45.120         0
45.130        13
45.140        40
45.150        27
45.160        80
45.170        13
45.180        13
45.190        13
45.200        13
45.210        13
45.220        53
45.230        13
45.240        40
45.250         0
45.260        27
45.270         0
45.280        53
45.290        13
45.300        67
45.310        13
45.320        40
45.330        40
45.340        27
45.350         0
45.360        27
45.370        40
45.380        27
45.390        27
45.400        27
45.410        27
45.420        53
45.430        53
45.440        27
45.450        53
45.460        40
45.470        27
45.480        27
45.490        53
45.500        93
45.510        13
45.520        13
45.530        13
45.540         0
45.550        27
45.560        40
45.570        13
45.580        13
45.590        40
45.600        27
45.610        40
45.620         0
45.630        67
45.640        53
45.650        13
45.660        27
45.670        53
45.680        67
45.690        53
45.700        53
45.710        40
45.720        80
45.730        27
45.740        13
45.750        40
45.760        53
45.770        53
45.780        67
45.790        13
45.800        93
45.810        53
45.820        67
45.830        67
45.840       133
45.850       187
45.860       120
45.870        93
45.880       240
45.890       253
45.900       347
45.910       293
45.920       280
45.930       387
45.940       333
45.950       453
45.960       480
45.970       413
45.980       586
45.990       600
46.000       360
46.010       533
46.020       426
46.030       466
46.040       387
46.050       307
46.060       493
46.070       333
46.080       347
46.090       387
46.100       373
46.110       480
46.120       307
46.130       227
46.140       267
46.150       227
46.160       160
46.170       187
46.180       253
46.190       173
46.200        93
46.210       147
46.220        93
46.230       133
46.240       107
46.250        93
46.260       120
46.270        67
46.280        67
46.290        53
46.300        53
46.310        80
46.320        40
46.330        80
46.340        40
46.350        53
46.360        53
46.370        93
46.380        80
46.390        53
46.400        53
46.410        40
46.420        13
46.430        40
46.440        27
46.450        67
46.460        27
46.470        13
46.480         0
46.490        27
46.500        13
46.510        13
46.520        53
46.530        13
46.540        40
46.550        40
46.560        27
46.570        27
46.580        53
46.590         0
46.600        67
46.610        67
46.620        53
46.630        13
46.640        53
46.650         0
46.660         0
46.670        53
46.680        53
46.690        80
46.700        27
46.710        53
46.720        13
46.730        13
46.740        67
46.750        40
46.760        27
46.770        93
46.780        40
46.790        27
46.800        40
46.810       120
46.820        27
46.830       133
46.840        67
46.850        80
46.860       160
46.870        53
46.880        80
46.890        53
46.900       107
46.910        80
46.920        53
46.930       147
46.940        93
46.950        67
46.960        53
46.970        67
46.980       120
46.990        80
47.000       200
47.010        80
47.020        53
47.030        40
47.040        53
47.050       107
47.060        40
47.070        53
47.080        40
47.090        93
47.100        53
47.110        40
47.120        53
47.130        40
47.140        80
47.150        53
47.160        40
47.170       107
47.180        67
47.190        80
47.200        40
47.210        80
47.220        80
47.230        67
47.240        53
47.250        13
47.260        67
47.270        40
47.280        13
47.290        80
47.300        53
47.310         0
47.320        27
47.330        27
47.340        53
47.350        27
47.360        40
47.370        40
47.380        27
47.390        27
47.400        13
47.410        40
47.420        27
47.430        27
47.440        67
47.450        40
47.460        53
47.470        27
47.480        53
47.490        27
47.500        80
47.510        27
47.520        13
47.530        53
47.540        40
47.550        67
47.560        27
47.570        40
47.580        27
47.590         0
47.600        67
47.610        40
47.620        13
47.630        93
47.640        13
47.650        13
47.660         0
47.670        27
47.680        13
47.690        67
47.700        40
47.710        13
47.720        67
47.730        40
47.740        27
47.750        80
47.760        13
47.770        40
47.780        13
47.790        13
47.800        40
47.810        27
47.820        13
47.830        27
47.840        13
47.850        67
47.860        27
47.870        27
47.880         0
47.890         0
47.900        13
47.910        27
47.920        27
47.930        13
47.940         0
47.950        13
47.960        27
47.970         0
47.980        27
47.990        53
48.000        40
48.010        53
48.020        27
48.030         0
48.040         0
48.050        13
48.060        13
48.070        13
48.080        13
48.090         0
48.100        53
48.110        13
48.120        27
48.130         0
48.140        27
48.150        13
48.160         0
48.170        27
48.180        53
48.190        13
48.200        40
48.210        27
48.220        27
48.230        13
48.240        67
48.250        40
48.260         0
48.270        80
48.280        13
48.290        27
48.300        93
48.310        27
48.320        27
48.330        27
48.340         0
48.350        40
48.360        27
48.370         0
48.380        40
48.390        53
48.400        40
48.410        53
48.420        40
48.430        27
48.440        40
48.450         0
48.460        53
48.470        53
48.480        67
48.490        53
48.500        13
48.510        27
48.520        40
48.530        13
48.540        27
48.550        40
48.560        67
48.570        27
48.580         0
48.590        67
48.600        80
48.610        80
48.620        67
48.630        27
48.640        40
48.650         0
48.660        27
48.670        13
48.680        40
48.690         0
48.700        27
48.710        93
48.720        27
48.730        27
48.740        27
48.750        27
48.760        27
48.770        13
48.780        13
48.790        27
48.800        40
48.810        67
48.820        13
48.830        40
48.840        13
48.850        27
48.860        27
48.870        27
48.880        27
48.890         0
48.900        13
48.910         0
48.920        13
48.930        27
48.940        27
48.950        67
48.960        13
48.970        67
48.980        27
48.990        53
49.000        27
49.010        27
49.020        40
49.030        53
49.040        67
49.050        80
49.060        67
49.070        13
49.080        27
49.090        53
49.100        13
49.110        13
49.120         0
49.130        40
49.140        40
49.150        53
49.160        40
49.170        40
49.180        27
49.190        40
49.200        13
49.210        13
49.220        27
49.230        53
49.240        40
49.250        40
49.260        27
49.270        13
49.280        80
49.290        40
49.300        13
49.310        53
49.320        13
49.330        67
49.340        27
49.350        27
49.360        27
49.370        13
49.380        13
49.390        40
49.400        27
49.410        40
49.420         0
49.430        13
49.440         0
49.450        40
49.460        27
49.470        27
49.480        27
49.490        13
49.500        13
49.510        40
49.520        27
49.530        40
49.540         0
49.550        53
49.560        27
49.570        27
49.580         0
49.590        13
49.600         0
49.610        13
49.620         0
49.630        27
49.640        40
49.650        27
49.660        40
49.670        40
49.680        40
49.690        40
49.700         0
49.710        27
49.720        53
49.730        27
49.740        27
49.750        40
49.760        27
49.770        13
49.780        27
49.790        53
49.800        40
49.810        27
49.820        67
49.830        27
49.840        27
49.850        13
49.860        13
49.870        27
49.880        80
49.890        13
49.900        40
49.910         0
49.920        53
49.930        53
49.940        40
49.950        40
49.960        27
49.970        27
49.980        13
49.990        40
50.000        13
50.010        13
50.020         0
50.030        27
50.040        53
50.050        27
50.060        40
50.070        40
50.080        40
50.090        27
50.100        67
50.110        40
50.120        13
50.130        27
50.140        13
50.150        40
50.160        13
50.170        13
50.180        13
50.190        13
50.200        13
50.210        13
50.220        13
50.230        27
50.240        27
50.250        40
50.260        67
50.270        13
50.280        27
50.290        40
50.300         0
50.310         0
50.320        27
50.330        13
50.340        27
50.350         0
50.360        27
50.370         0
50.380        53
50.390        27
50.400        53
50.410        40
50.420        93
50.430        27
50.440        27
50.450        27
50.460        13
50.470        27
50.480        27
50.490        40
50.500        40
50.510        13
50.520        40
50.530         0
50.540        27
50.550        40
50.560        40
50.570        13
50.580        40
50.590        27
50.600        40
50.610         0
50.620        27
50.630        40
50.640        40
50.650        27
50.660        13
50.670        13
50.680        40
50.690         0
50.700        13
50.710        13
50.720        27
50.730        27
50.740        53
50.750        40
50.760        27
50.770         0
50.780        40
50.790        27
50.800        27
50.810        27
50.820        27
50.830        53
50.840        53
50.850        27
50.860        13
50.870        40
50.880        13
50.890         0
50.900        27
50.910        27
50.920        27
50.930        27
50.940        40
50.950        13
50.960        13
50.970        40
50.980        27
50.990        13
51.000        13
51.010         0
51.020        27
51.030        53
51.040        40
51.050        27
51.060        27
51.070        13
51.080        53
51.090         0
51.100        40
51.110        13
51.120         0
51.130         0
51.140        13
51.150        53
51.160        27
51.170        27
51.180        27
51.190        13
51.200        40
51.210        27
51.220         0
51.230         0
51.240        40
51.250        13
51.260        40
51.270         0
51.280         0
51.290        40
51.300        27
51.310        27
51.320        13
51.330        53
51.340        13
51.350        27
51.360        53
51.370        27
51.380        27
51.390        13
51.400         0
51.410        27
51.420        13
51.430        53
51.440        40
51.450         0
51.460         0
51.470        13
51.480        13
51.490        13
51.500        13
51.510        53
51.520         0
51.530        13
51.540        27
51.550        13
51.560        27
51.570        27
51.580        40
51.590        27
51.600        27
51.610        13
51.620        27
51.630        27
51.640        67
51.650        27
51.660        13
51.670        27
51.680        13
51.690        27
51.700        27
51.710        13
51.720        40
51.730        27
51.740        27
51.750        40
51.760        13
51.770        53
51.780        27
51.790        13
51.800        40
51.810        27
51.820        67
51.830       107
51.840        13
51.850        40
51.860        93
51.870       107
51.880        27
51.890        13
51.900        53
51.910        53
51.920        53
51.930        27
51.940       120
51.950        53
51.960        80
51.970        27
51.980        40
51.990        27
52.000        13
52.010        80
52.020        13
52.030        27
52.040        67
52.050        13
52.060        40
52.070        40
52.080        67
52.090        53
52.100        53
52.110        27
52.120        40
52.130        27
52.140        27
52.150        27
52.160        27
52.170        40
52.180        27
52.190        13
52.200        80
52.210        13
52.220        27
52.230        13
52.240        27
52.250        40
52.260        40
52.270        27
52.280        67
52.290        27
52.300        40
52.310        40
52.320        27
52.330        27
52.340        27
52.350        13
52.360         0
52.370         0
52.380        13
52.390        13
52.400        13
52.410        13
52.420        27
52.430         0
52.440        27
52.450        13
52.460        67
52.470        53
52.480        40
52.490        40
52.500        27
52.510       120
52.520       107
52.530        67
52.540        27
52.550        40
52.560        93
52.570        40
52.580        13
52.590        40
52.600        67
52.610        27
52.620        67
52.630        13
52.640       107
52.650       120
52.660       107
52.670        80
52.680        80
52.690        13
52.700        27
52.710        67
52.720        40
52.730        27
52.740        13
52.750        13
52.760        67
52.770        13
52.780        13
52.790        27
52.800        40
52.810        27
52.820         0
52.830        13
52.840        67
52.850         0
52.860        13
52.870        13
52.880        13
52.890        27
52.900        13
52.910        53
52.920        13
52.930        13
52.940        27
52.950        53
52.960        27
52.970        27
52.980        40
52.990        13
53.000        40
53.010        13
53.020        13
53.030        40
53.040        40
53.050         0
53.060        27
53.070         0
53.080         0
53.090        27
53.100        13
53.110         0
53.120        53
53.130        27
53.140        40
53.150        13
53.160        27
53.170        13
53.180        27
53.190        13
53.200        27
53.210        53
53.220        27
53.230         0
53.240        27
53.250        13
53.260        40
53.270        27
53.280        13
53.290         0
53.300         0
53.310        27
53.320         0
53.330        13
53.340        40
53.350        27
53.360        40
53.370        67
53.380        40
53.390        40
53.400        27
53.410        27
53.420        27
53.430        40
53.440        67
53.450        40
53.460        53
53.470       107
53.480         0
53.490        13
53.500        40
53.510        27
53.520        40
53.530        13
53.540        13
53.550        13
53.560        53
53.570        27
53.580        40
53.590        27
53.600        40
53.610        40
53.620        13
53.630        67
53.640        40
53.650        53
53.660         0
53.670        40
53.680        27
53.690        27
53.700        13
53.710         0
53.720        13
53.730        13
53.740        40
53.750        13
53.760        27
53.770        27
53.780        13
53.790         0
53.800        13
53.810        27
53.820        13
53.830        27
53.840        40
53.850        27
53.860        27
53.870        27
53.880        13
53.890         0
53.900        27
53.910        27
53.920        13
53.930        27
53.940         0
53.950        13
53.960        40
53.970        40
53.980        40
53.990        27
54.000        13
54.010        13
54.020        27
54.030        13
54.040         0
54.050        27
54.060        27
54.070        40
54.080         0
54.090        13
54.100        13
54.110        13
54.120         0
54.130        27
54.140         0
54.150        13
54.160        13
54.170        27
54.180        27
54.190        40
54.200        27
54.210        27
54.220        40
54.230        13
54.240        13
54.250        13
54.260        27
54.270        13
54.280        27
54.290        27
54.300        27
54.310         0
54.320        13
54.330         0
54.340        40
54.350         0
54.360        40
54.370        27
54.380        40
54.390        13
54.400        40
54.410        13
54.420        40
54.430        13
54.440         0
54.450         0
54.460        27
54.470        27
54.480         0
54.490        40
54.500        13
54.510        13
54.520        13
54.530        13
54.540        13
54.550        53
54.560         0
54.570        40
54.580        27
54.590        13
54.600        13
54.610         0
54.620        13
54.630        27
54.640        13
54.650         0
54.660        27
54.670        27
54.680        53
54.690        13
54.700        67
54.710         0
54.720         0
54.730        13
54.740        40
54.750        13
54.760        27
54.770        13
54.780        67
54.790         0
54.800        13
54.810         0
54.820        27
54.830        13
54.840        13
54.850        53
54.860        27
54.870         0
54.880        13
54.890        13
54.900        27
54.910         0
54.920        53
54.930        27
54.940        13
54.950        27
54.960        27
54.970        40
54.980        27
54.990         0
55.000        53
55.010        13
55.020         0
55.030         0
55.040        13
55.050        27
55.060        40
55.070        13
55.080        27
55.090        13
55.100        40
55.110        40
55.120        13
55.130        40
55.140        27
55.150        53
55.160         0
55.170        27
55.180         0
55.190        40
55.200        27
55.210        27
55.220        13
55.230         0
55.240        27
55.250        53
55.260         0
55.270        13
55.280        53
55.290        27
55.300        13
55.310        13
55.320        27
55.330        53
55.340        27
55.350         0
55.360         0
55.370         0
55.380        67
55.390        53
55.400         0
55.410        13
55.420        13
55.430        40
55.440         0
55.450        27
55.460        40
55.470        53
55.480        13
55.490        27
55.500         0
55.510        53
55.520        40
55.530        80
55.540        53
55.550        27
55.560        13
55.570        40
55.580        40
55.590        27
55.600        27
55.610        53
55.620        67
55.630        53
55.640        40
55.650        13
55.660        27
55.670       107
55.680        27
55.690        53
55.700        53
55.710        27
55.720        80
55.730        53
55.740        13
55.750        67
55.760        67
55.770        27
55.780        27
55.790         0
55.800         0
55.810         0
55.820        67
55.830        13
55.840        40
55.850        40
55.860        13
55.870        53
55.880         0
55.890        67
55.900        27
55.910        27
55.920        53
55.930        40
55.940        27
55.950        67
55.960         0
55.970        80
55.980        13
55.990        13
56.000        67
56.010        40
56.020        27
56.030        13
56.040        40
56.050         0
56.060        27
56.070        13
56.080        53
56.090        67
56.100        80
56.110         0
56.120        40
56.130        27
56.140        27
56.150         0
56.160        80
56.170        27
56.180        40
56.190        40
56.200        40
56.210        67
56.220        53
56.230        27
56.240        40
56.250        27
56.260        27
56.270        27
56.280        27
56.290        27
56.300        80
56.310        40
56.320        40
56.330        67
56.340        27
56.350        40
56.360        27
56.370        40
56.380        80
56.390        80
56.400        13
56.410        40
56.420        53
56.430        53
56.440        53
56.450        27
56.460         0
56.470        53
56.480         0
56.490        13
56.500        27
56.510        40
56.520        13
56.530        40
56.540        40
56.550        13
56.560        13
56.570        13
56.580        27
56.590        27
56.600        27
56.610        27
56.620        27
56.630        13
56.640        13
56.650         0
56.660        13
56.670        27
56.680        27
56.690        13
56.700        53
56.710        27
56.720        67
56.730        13
56.740         0
56.750        13
56.760        13
56.770        40
56.780         0
56.790        40
56.800        27
56.810        40
56.820        53
56.830        40
56.840         0
56.850        13
56.860        13
56.870         0
56.880        27
56.890         0
56.900        13
56.910        13
56.920        13
56.930        27
56.940        13
56.950        13
56.960        27
56.970         0
56.980        53
56.990        13
57.000        27
57.010        40
57.020        13
57.030        27
57.040        27
57.050        40
57.060        13
57.070        27
57.080        13
57.090         0
57.100        40
57.110        13
57.120         0
57.130        27
57.140         0
57.150        27
57.160        27
57.170        13
57.180        67
57.190        40
57.200        13
57.210        53
57.220        40
57.230        40
57.240        40
57.250        27
57.260        13
57.270        27
57.280        40
57.290        53
57.300        67
57.310        13
57.320        13
57.330        13
57.340        53
57.350        53
57.360        27
57.370        40
57.380        67
57.390        13
57.400        40
57.410        53
57.420        40
57.430        40
57.440         0
57.450         0
57.460        93
57.470        53
57.480        80
57.490       107
57.500       253
57.510       120
57.520       107
57.530       160
57.540       107
57.550       120
57.560       133
57.570        80
57.580       133
57.590       120
57.600        40
57.610        67
57.620        40
57.630        53
57.640        53
57.650        67
57.660        93
57.670        93
57.680       107
57.690        80
57.700       147
57.710       160
57.720        53
57.730        27
57.740       107
57.750        67
57.760        93
57.770        27
57.780        40
57.790        27
57.800        27
57.810        27
57.820        13
57.830        27
57.840        13
57.850         0
57.860        40
57.870         0
57.880        40
57.890        13
57.900        27
57.910        13
57.920         0
57.930        40
57.940        13
57.950        27
57.960        27
57.970         0
57.980        53
57.990        53
58.000        53
58.010         0
58.020        13
58.030        53
58.040        40
58.050        27
58.060        13
58.070        27
58.080        13
58.090        13
58.100        13
58.110        27
58.120        13
58.130        13
58.140        27
58.150        27
58.160         0
58.170        40
58.180        27
58.190        13
58.200        67
58.210        27
58.220        13
58.230         0
58.240        27
58.250         0
58.260         0
58.270        13
58.280        27
58.290        40
58.300        13
58.310        40
58.320        40
58.330        40
58.340        13
58.350         0
58.360        40
58.370        13
58.380        13
58.390        13
58.400        13
58.410        13
58.420        13
58.430        13
58.440        13
58.450        27
58.460        40
58.470        13
58.480        27
58.490        53
58.500        27
58.510        13
58.520        13
58.530         0
58.540         0
58.550         0
58.560        40
58.570        27
58.580        13
58.590        13
58.600        27
58.610        13
58.620        27
58.630         0
58.640        27
58.650        53
58.660        13
58.670        40
58.680        40
58.690         0
58.700        40
58.710         0
58.720        13
58.730        13
58.740        27
58.750        27
58.760        27
58.770        27
58.780        40
58.790        27
58.800        13
58.810         0
58.820        13
58.830        13
58.840        27
58.850        27
58.860        27
58.870         0
58.880         0
58.890        27
58.900        13
58.910        27
58.920        93
58.930        13
58.940        40
58.950         0
58.960        53
58.970        13
58.980        13
58.990         0
59.000        13
59.010        13
59.020        13
59.030         0
59.040        27
59.050        27
59.060        53
59.070        40
59.080        27
59.090        27
59.100         0
59.110         0
59.120        13
59.130        40
59.140        27
59.150         0
59.160        27
59.170        53
59.180         0
59.190        13
59.200        13
59.210        13
59.220        13
59.230        13
59.240         0
59.250        53
59.260        13
59.270        40
59.280        53
59.290        27
59.300        13
59.310        27
59.320        13
59.330        13
59.340        13
59.350        40
59.360         0
59.370        13
59.380        27
59.390         0
59.400         0
59.410        27
59.420        13
59.430         0
59.440         0
59.450         0
59.460        13
59.470        40
59.480         0
59.490        13
59.500        27
59.510        40
59.520        13
59.530         0
59.540        27
59.550        27
59.560        27
59.570        13
59.580        27
59.590        27
59.600         0
59.610         0
59.620        13
59.630        13
59.640        27
59.650        13
59.660         0
59.670         0
59.680        27
59.690         0
59.700        27
59.710        13
59.720        13
59.730         0
59.740        13
59.750        13
59.760        67
59.770         0
59.780        27
59.790        53
59.800        40
59.810        27
59.820        53
59.830        53
59.840        67
59.850        13
59.860        13
59.870        27
59.880        53
59.890         0
59.900        53
59.910        27
59.920        27
59.930        27
59.940        13
59.950         0
59.960        40
59.970        40
59.980        27
59.990         0
60.000         0
