20.000         0
20.010         0
20.020        27
20.030        40
20.040        53
20.050        93
20.060       133
20.070        80
20.080        13
20.090        80
20.100        93
20.110        40
20.120        53
20.130        27
20.140        53
20.150        67
20.160        67
20.170        53
20.180        80
20.190        67
20.200        80
20.210        67
20.220        40
20.230        53
20.240        40
20.250        80
20.260       107
20.270        53
20.280        53
20.290        67
20.300        27
20.310         0
20.320        53
20.330        80
20.340        13
20.350        53
20.360        27
20.370        80
20.380        53
20.390       107
20.400        40
20.410        40
20.420       120
20.430        53
20.440        53
20.450        40
20.460        80
20.470        40
20.480        93
20.490        27
20.500        27
20.510        40
20.520        13
20.530        27
20.540        67
20.550        13
20.560        80
20.570        40
20.580        40
20.590        27
20.600        40
20.610        40
20.620        27
20.630        67
20.640        27
20.650        67
20.660        40
20.670       120
20.680        53
20.690        53
20.700       133
20.710        80
20.720        40
20.730        53
20.740        67
20.750        40
20.760        40
20.770        13
20.780        13
20.790        27
20.800        80
20.810        13
20.820       107
20.830         0
20.840        40
20.850        40
20.860        27
20.870        27
20.880        67
20.890        27
20.900        67
20.910        67
20.920        67
20.930        80
20.940        27
20.950        67
20.960        27
20.970        53
20.980        53
20.990       107
21.000        67
21.010        53
21.020        67
21.030        67
21.040        40
21.050        27
21.060        40
21.070        53
21.080        27
21.090        40
21.100        13
21.110        53
21.120        27
21.130        40
21.140        27
21.150        40
21.160        67
21.170        93
21.180        80
21.190        40
21.200        67
21.210        53
21.220        67
21.230        53
21.240        93
21.250        40
21.260        40
21.270        67
21.280        40
21.290        40
21.300        80
21.310        40
21.320        40
21.330        40
21.340        53
21.350       147
21.360        67
21.370        27
21.380        67
21.390        40
21.400        53
21.410       107
21.420        13
21.430        53
21.440        40
21.450        93
21.460        67
21.470        40
21.480        27
21.490        80
21.500        40
21.510        27
21.520        27
21.530        53
21.540        40
21.550        13
21.560        93
21.570        53
21.580        13
21.590        67
21.600        27
21.610        13
21.620        13
21.630        27
21.640        40
21.650        67
21.660        67
21.670        27
21.680        53
21.690        27
21.700        27
21.710        27
21.720       107
21.730        27
21.740        53
21.750        80
21.760        40
21.770       107
21.780        27
21.790        40
21.800        67
21.810        27
21.820        53
21.830        67
21.840        40
21.850        80
21.860        40
21.870        93
21.880        27
21.890        53
21.900        27
21.910        13
21.920        53
21.930        13
21.940        40
21.950        40
21.960        40
21.970        40
21.980        27
21.990        27
22.000        80
22.010       107
22.020        40
22.030        67
22.040        40
22.050        80
22.060        40
22.070        40
22.080        13
22.090        53
22.100        67
22.110       107
22.120        67
22.130        53
22.140        40
22.150        80
22.160        93
22.170        80
22.180        27
22.190        67
22.200        80
22.210        93
22.220        53
22.230        53
22.240        40
22.250        67
22.260        40
22.270        53
22.280        13
22.290        80
22.300        80
22.310        40
22.320        40
22.330        27
22.340        53
22.350        53
22.360        40
22.370        27
22.380        67
22.390        53
22.400        67
22.410         0
22.420        27
22.430        27
22.440        67
22.450       133
22.460        53
22.470        53
22.480        40
22.490        27
22.500        80
22.510        80
22.520        93
22.530        13
22.540       147
22.550        93
22.560       187
22.570       147
22.580       187
22.590       160
22.600       160
22.610       173
22.620       213
22.630       227
22.640       227
22.650       373
22.660       307
22.670       440
22.680       440
22.690       320
22.700       626
22.710       373
22.720       600
22.730       560
22.740       706
22.750       666
22.760       613
22.770       573
22.780       746
22.790       600
22.800       533
22.810       600
22.820       426
22.830       413
22.840       400
22.850       373
22.860       280
22.870       253
22.880       320
22.890       160
22.900       213
22.910       120
22.920       187
22.930       160
22.940       133
22.950       120
22.960       107
22.970        40
22.980       120
22.990       147
23.000       160
23.010       173
23.020        80
23.030       107
23.040        93
23.050       147
23.060       107
23.070        40
23.080       133
23.090        27
23.100        53
23.110        93
23.120        80
23.130        53
23.140        80
23.150        93
23.160        67
23.170        53
23.180        80
23.190        80
23.200        93
23.210        93
23.220        27
23.230        53
23.240        80
23.250        40
23.260        40
23.270        27
23.280       107
23.290       120
23.300        80
23.310        93
23.320        53
23.330        53
23.340       120
23.350        80
23.360        27
23.370        27
23.380        80
23.390         0
23.400        67
23.410       107
23.420        27
23.430        27
23.440        53
23.450        67
23.460        27
23.470       120
23.480        53
23.490        40
23.500        53
23.510        80
23.520        40
23.530        27
23.540        27
23.550        67
23.560        80
23.570        53
23.580       107
23.590        27
23.600        53
23.610        13
23.620        40
23.630        40
23.640        40
23.650        93
23.660        40
23.670        40
23.680       133
23.690        40
23.700        53
23.710        40
23.720        27
23.730        93
23.740        13
23.750       107
23.760        40
23.770        27
23.780        67
23.790        67
23.800        67
23.810        13
23.820        27
23.830        27
23.840        53
23.850        80
23.860        40
23.870        27
23.880        40
23.890        27
23.900        67
23.910        40
23.920        53
23.930        13
23.940        40
23.950        67
23.960        53
23.970        27
23.980        80
23.990        53
24.000        53
24.010        40
24.020        40
24.030        80
24.040        67
24.050        40
24.060        53
24.070        53
24.080        27
24.090        13
24.100        67
24.110        27
24.120        40
24.130        80
24.140       107
24.150        53
24.160        27
24.170        40
24.180        40
24.190        80
24.200        27
24.210        93
24.220        27
24.230        40
24.240         0
24.250        27
24.260        40
24.270        27
24.280        53
24.290        13
24.300        13
24.310        13
24.320        40
24.330        40
24.340        27
24.350        53
24.360        27
24.370        53
24.380        53
24.390        27
24.400        40
24.410        27
24.420        40
24.430        40
24.440        27
24.450        53
24.460        53
24.470        67
24.480       107
24.490        27
24.500        67
24.510        67
24.520        67
24.530        27
24.540        40
24.550        93
24.560        67
24.570        13
24.580        27
24.590        67
24.600         0
24.610        40
24.620       107
24.630        67
24.640        13
24.650        67
24.660        80
24.670        67
24.680        40
24.690        53
24.700        80
24.710        80
24.720        40
24.730        40
24.740        27
24.750        40
24.760        53
24.770        27
24.780        40
24.790        67
24.800        27
24.810         0
24.820        27
24.830        53
24.840        80
24.850         0
24.860        53
24.870        80
24.880        40
24.890        40
24.900        93
24.910        67
24.920        40
24.930        53
24.940        40
24.950        27
24.960        40
24.970        40
24.980        67
24.990         0
25.000        53
25.010        53
25.020        53
25.030        40
25.040        53
25.050        27
25.060        27
25.070        53
25.080        53
25.090        40
25.100        67
25.110        27
25.120        27
25.130        27
25.140        53
25.150        27
25.160        67
25.170        53
25.180        27
25.190        40
25.200        40
25.210        53
25.220        40
25.230        40
25.240        27
25.250        53
25.260        40
25.270        67
25.280        27
25.290        13
25.300        53
25.310        53
25.320        93
25.330        93
25.340        13
25.350        40
25.360        53
25.370        53
25.380         0
25.390        67
25.400        40
25.410        13
25.420        27
25.430        27
25.440        53
25.450        40
25.460        40
25.470        53
25.480        53
25.490        40
25.500       133
25.510        40
25.520        53
25.530        80
25.540        27
25.550         0
25.560        27
25.570        53
25.580        40
25.590        80
25.600        40
25.610        53
25.620        93
25.630        53
25.640        67
25.650        67
25.660        67
25.670        80
25.680        13
25.690        80
25.700        40
25.710         0
25.720        40
25.730        27
25.740        53
25.750        27
25.760        27
25.770        13
25.780        27
25.790        53
25.800        53
25.810       107
25.820         0
25.830        27
25.840        53
25.850        53
25.860         0
25.870        13
25.880        53
25.890        13
25.900        80
25.910        40
25.920        27
25.930        53
25.940        27
25.950       120
25.960        40
25.970        67
25.980        40
25.990        53
26.000        53
26.010        27
26.020        80
26.030        67
26.040        80
26.050        13
26.060        27
26.070        27
26.080        53
26.090        13
26.100        67
26.110        67
26.120        40
26.130        40
26.140        40
26.150        27
26.160        27
26.170        13
26.180        13
26.190        53
26.200        27
26.210        53
26.220        93
26.230        27
26.240        53
26.250        53
26.260        27
26.270        27
26.280        27
26.290       107
26.300        40
26.310        13
26.320        13
26.330        40
26.340        93
26.350        27
26.360        27
26.370        93
26.380        80
26.390        13
26.400        27
26.410        40
26.420        53
26.430        53
26.440        40
26.450        13
26.460        67
26.470        53
26.480        27
26.490         0
26.500        27
26.510        53
26.520        67
26.530       107
26.540        40
26.550        27
26.560        53
26.570        27
26.580        13
26.590       107
26.600        80
26.610        53
26.620        53
26.630        67
26.640        53
26.650        27
26.660        53
26.670        67
26.680        27
26.690        53
26.700        53
26.710        27
26.720        80
26.730        53
26.740        80
26.750        40
26.760        27
26.770        13
26.780        13
26.790        53
26.800        40
26.810        40
26.820        67
26.830        53
26.840        40
26.850        67
26.860        53
26.870        27
26.880        27
26.890        53
26.900        40
26.910        27
26.920        53
26.930        53
26.940        40
26.950         0
26.960        27
26.970         0
26.980        27
26.990        53
27.000        53
27.010        40
27.020        13
27.030        13
27.040        80
27.050        40
27.060        40
27.070        27
27.080        67
27.090        40
27.100        40
27.110        53
27.120        53
27.130        13
27.140        53
27.150        40
27.160        13
27.170        40
27.180        53
27.190        40
27.200        13
27.210        13
27.220         0
27.230        27
27.240        13
27.250        53
27.260         0
27.270         0
27.280        53
27.290        40
27.300        27
27.310        27
27.320        40
27.330        27
27.340        13
27.350         0
27.360        67
27.370        93
27.380        53
27.390        27
27.400        40
27.410        53
27.420        13
27.430        53
27.440        80
27.450        27
27.460        27
27.470        53
27.480        53
27.490        40
27.500        27
27.510        67
27.520        27
27.530        67
27.540        27
27.550        53
27.560        13
27.570        40
27.580        67
27.590        40
27.600        40
27.610        40
27.620        80
27.630        40
27.640        80
27.650        67
27.660        93
27.670        27
27.680        13
27.690        67
27.700        40
27.710        27
27.720        53
27.730        53
27.740        53
27.750        40
27.760        53
27.770        27
27.780       120
27.790        27
27.800        13
27.810        67
27.820        53
27.830        40
27.840        53
27.850        40
27.860        27
27.870        53
27.880        67
27.890        27
27.900        67
27.910        53
27.920        93
27.930        27
27.940         0
27.950        13
27.960        80
27.970        13
27.980        53
27.990        27
28.000        27
28.010        53
28.020        13
28.030        13
28.040        53
28.050        40
28.060        67
28.070        27
28.080        13
28.090        27
28.100        40
28.110        13
28.120        40
28.130        53
28.140         0
28.150        13
28.160        53
28.170        13
28.180         0
28.190        67
28.200        40
28.210        27
28.220        67
28.230         0
28.240        13
28.250        80
28.260        13
28.270        13
28.280        93
28.290        93
28.300        27
28.310        80
28.320        27
28.330        13
28.340        67
28.350        67
28.360        27
28.370        13
28.380        80
28.390        40
28.400        40
28.410        40
28.420        67
28.430        13
28.440        13
28.450        40
28.460        53
28.470        27
28.480        67
28.490        53
28.500        93
28.510        53
28.520        40
28.530        53
28.540        27
28.550        40
28.560        40
28.570        53
28.580        53
28.590        40
28.600        13
28.610        13
28.620         0
28.630        13
28.640        13
28.650        67
28.660        27
28.670         0
28.680        27
28.690        13
28.700        27
28.710        53
28.720         0
28.730        80
28.740        27
28.750        13
28.760        40
28.770        27
28.780        53
28.790        27
28.800        40
28.810        13
28.820        27
28.830        53
28.840        27
28.850        27
28.860        40
28.870        27
28.880        40
28.890        80
28.900        27
28.910        27
28.920         0
28.930        27
28.940        40
28.950        93
28.960        40
28.970        40
28.980        40
28.990        67
29.000         0
29.010        27
29.020        53
29.030        27
29.040        13
29.050        27
29.060        40
29.070        40
29.080        27
29.090        27
29.100        13
29.110        80
29.120        53
29.130        53
29.140        13
29.150        40
29.160        27
29.170        67
29.180        53
29.190        13
29.200        53
29.210        53
29.220        27
29.230        13
29.240        40
29.250        67
29.260        53
29.270        40
29.280        13
29.290        27
29.300        27
29.310        40
29.320        13
29.330        40
29.340        13
29.350        27
29.360        53
29.370        53
29.380        13
29.390        13
29.400        67
29.410        27
29.420        53
29.430        13
29.440        53
29.450        27
29.460        40
29.470        27
29.480        13
29.490        67
29.500        40
29.510        27
29.520        53
29.530        13
29.540        67
29.550        53
29.560        53
29.570        13
29.580        67
29.590        67
29.600        13
29.610         0
29.620        67
29.630        27
29.640        27
29.650        13
29.660       120
29.670        67
29.680        13
29.690        80
29.700        40
29.710        27
29.720        67
29.730        53
29.740        40
29.750        67
29.760        53
29.770        27
29.780        53
29.790        67
29.800        40
29.810        40
29.820        40
29.830        80
29.840        40
29.850         0
29.860        27
29.870        53
29.880        13
29.890        40
29.900        27
29.910        40
29.920        53
29.930        13
29.940        27
29.950        40
29.960        80
29.970        40
29.980        27
29.990        27
30.000        13
30.010        67
30.020        13
30.030        40
30.040        27
30.050        53
30.060        13
30.070        53
30.080        13
30.090        93
30.100        13
30.110        53
30.120        53
30.130        13
30.140        40
30.150        13
30.160        13
30.170        80
30.180        53
30.190        13
30.200        27
30.210         0
30.220        40
30.230        13
30.240        13
30.250        40
30.260        53
30.270        13
30.280        13
30.290         0
30.300        27
30.310        13
30.320        67
30.330        53
30.340        13
30.350        13
30.360        13
30.370        40
30.380         0
30.390        13
30.400        13
30.410        40
30.420        40
30.430        40
30.440        27
30.450        53
30.460        40
30.470        27
30.480        27
30.490        27
30.500       120
30.510        27
30.520        13
30.530        27
30.540        27
30.550        80
30.560        40
30.570        27
30.580        40
30.590        27
30.600        40
30.610        40
30.620        53
30.630        93
30.640        13
30.650        13
30.660        27
30.670         0
30.680        13
30.690        40
30.700        13
30.710        80
30.720        53
30.730         0
30.740        80
30.750        40
30.760        53
30.770        13
30.780        40
30.790        67
30.800        53
30.810        40
30.820        27
30.830        53
30.840        13
30.850        40
30.860        40
30.870        27
30.880       120
30.890        13
30.900        13
30.910        53
30.920        67
30.930        13
30.940        13
30.950        40
30.960        27
30.970        40
30.980         0
30.990        67
31.000         0
31.010         0
31.020         0
31.030        27
31.040        40
31.050        80
31.060        13
31.070        67
31.080        27
31.090        67
31.100        80
31.110        53
31.120        53
31.130        27
31.140        13
31.150        40
31.160         0
31.170         0
31.180        27
31.190        27
31.200        80
31.210        27
31.220        53
31.230        13
31.240        13
31.250        40
31.260        13
31.270        27
31.280        53
31.290        27
31.300         0
31.310        93
31.320        53
31.330        27
31.340        93
31.350         0
31.360        80
31.370        40
31.380        67
31.390         0
31.400        67
31.410         0
31.420        13
31.430        53
31.440        27
31.450        13
31.460        13
31.470        93
31.480        13
31.490        13
31.500        67
31.510        53
31.520        40
31.530        53
31.540        53
31.550        27
31.560        40
31.570        53
31.580        40
31.590        27
31.600        13
31.610        67
31.620        27
31.630        27
31.640        40
31.650        40
31.660        27
31.670        27
31.680        13
31.690        27
31.700        40
31.710        40
31.720        40
31.730        13
31.740        93
31.750        27
31.760         0
31.770        40
31.780       120
31.790        27
31.800        67
31.810        27
31.820        40
31.830        67
31.840        53
31.850        27
31.860        80
31.870        67
31.880        53
31.890        13
31.900        80
31.910         0
31.920        53
31.930        53
31.940        67
31.950        27
31.960        53
31.970        67
31.980        80
31.990        80
32.000        27
32.010        27
32.020        13
32.030        13
32.040        67
32.050        13
32.060        53
32.070        80
32.080        40
32.090        67
32.100        27
32.110        53
32.120         0
32.130        80
32.140        67
32.150        67
32.160       107
32.170        53
32.180       107
32.190       160
32.200       173
32.210       240
32.220       187
32.230       227
32.240       253
32.250       147
32.260       307
32.270       387
32.280       387
32.290       426
32.300       360
32.310       520
32.320       400
32.330       533
32.340       666
32.350       866
32.360       986
32.370       933
32.380      1200
32.390      1253
32.400      1293
32.410      1359
32.420      1746
32.430      1719
32.440      2146
32.450      1813
32.460      1986
32.470      1866
32.480      2066
32.490      1613
32.500      1306
32.510      1333
32.520      1053
32.530      1186
32.540       946
32.550       853
32.560       826
32.570       693
32.580       546
32.590       600
32.600       466
32.610       400
32.620       360
32.630       347
32.640       133
32.650       227
32.660       280
32.670       107
32.680        67
32.690       227
32.700       107
32.710        80
32.720       107
32.730        53
32.740        40
32.750       120
32.760        80
32.770        53
32.780       120
32.790        93
32.800        40
32.810        93
32.820        40
32.830        93
32.840        80
32.850        40
32.860        80
32.870        80
32.880        13
32.890       107
32.900        40
32.910        93
32.920        13
32.930        53
32.940         0
32.950        67
32.960        13
32.970        53
32.980        93
32.990        13
33.000        40
33.010        13
33.020        40
33.030        40
33.040        40
33.050        13
33.060        53
33.070        27
33.080        27
33.090        67
33.100        67
33.110        40
33.120        53
33.130        13
33.140        13
33.150        13
33.160        67
33.170         0
33.180        67
33.190        27
33.200        27
33.210        67
33.220        27
33.230        53
33.240        93
33.250         0
33.260        53
33.270        40
33.280        40
33.290        27
33.300        40
33.310        27
33.320        40
33.330         0
33.340        53
33.350        13
33.360        40
33.370        13
33.380        27
33.390        67
33.400        13
33.410        53
33.420        53
33.430        67
33.440         0
33.450        53
33.460        40
33.470        27
33.480        80
33.490        53
33.500         0
33.510        40
33.520        67
33.530        53
33.540        40
33.550        40
33.560        40
33.570        67
33.580        27
33.590        27
33.600        27
33.610        40
33.620        53
33.630        13
33.640        13
33.650        27
33.660        27
33.670        13
33.680        27
33.690        27
33.700        40
33.710        27
33.720        27
33.730        27
33.740        40
33.750        13
33.760        13
33.770        80
33.780        40
33.790        13
33.800        53
33.810        40
33.820        67
33.830        13
33.840        27
33.850        53
33.860        27
33.870        53
33.880        27
33.890        13
33.900        40
33.910        27
33.920         0
33.930        27
33.940        13
33.950        67
33.960        13
33.970        13
33.980        40
33.990        13
34.000        27
34.010        13
34.020        27
34.030        27
34.040        13
34.050        80
34.060        27
34.070        13
34.080        53
34.090        53
34.100        53
34.110        27
34.120        13
34.130        53
34.140        67
34.150        40
34.160        53
34.170        27
34.180         0
34.190        27
34.200        67
34.210        40
34.220        27
34.230        27
34.240        40
34.250        13
34.260        13
34.270        80
34.280        40
34.290        13
34.300        13
34.310        13
34.320        40
34.330         0
34.340        27
34.350        27
34.360         0
34.370        40
34.380        27
34.390         0
34.400        40
34.410        40
34.420        27
34.430        40
34.440        40
34.450        13
34.460        13
34.470        53
34.480         0
34.490        13
34.500        53
34.510        40
34.520        13
34.530        67
34.540        53
34.550        67
34.560        67
34.570        40
34.580        13
34.590        67
34.600        27
34.610        40
34.620        67
34.630        40
34.640        27
34.650         0
34.660        67
34.670        27
34.680         0
34.690        27
34.700        80
34.710        13
34.720        27
34.730        13
34.740        27
34.750        13
34.760        53
34.770        27
34.780        53
34.790        27
34.800        27
34.810        27
34.820        40
34.830        27
34.840        27
34.850        13
34.860        27
34.870        53
34.880        40
34.890        27
34.900        27
34.910        53
34.920        27
34.930        53
34.940        40
34.950         0
34.960        27
34.970        53
34.980        80
34.990        13
35.000        53
35.010       120
35.020        67
35.030        53
35.040        67
35.050        40
35.060       147
35.070        93
35.080       133
35.090       120
35.100       107
35.110       107
35.120       160
35.130       133
35.140       240
35.150       293
35.160       400
35.170       387
35.180       626
35.190       493
35.200       626
35.210       373
35.220       400
35.230       307
35.240       160
35.250       227
35.260       240
35.270       253
35.280       307
35.290       200
35.300       200
35.310       160
35.320       307
35.330       147
35.340        93
35.350        93
35.360        13
35.370        53
35.380        13
35.390       107
35.400        40
35.410        67
35.420        27
35.430        13
35.440        80
35.450        53
35.460        13
35.470        40
35.480        13
35.490        13
35.500        93
35.510        53
35.520        27
35.530        80
35.540        27
35.550        67
35.560        67
35.570        27
35.580        13
35.590        13
35.600        40
35.610        13
35.620        40
35.630        40
35.640        40
35.650         0
35.660        27
35.670         0
35.680        40
35.690        40
35.700        13
35.710        53
35.720        13
35.730        27
35.740        27
35.750        27
35.760        13
35.770        13
35.780        27
35.790        13
35.800         0
35.810        27
35.820        13
35.830        13
35.840        40
35.850        13
35.860        13
35.870        13
35.880        27
35.890        27
35.900        13
35.910        40
35.920        13
35.930        13
35.940         0
35.950        53
35.960        27
35.970        27
35.980        13
35.990        27
36.000        13
36.010        27
36.020        27
36.030        80
36.040        13
36.050        13
36.060        27
36.070        13
36.080         0
36.090        13
36.100         0
36.110        27
36.120        13
36.130        53
36.140        27
36.150        27
36.160        27
36.170        53
36.180        27
36.190        40
36.200        40
36.210        27
36.220        13
36.230        27
36.240        53
36.250        40
36.260        67
36.270        13
36.280        13
36.290        13
36.300         0
36.310         0
36.320        27
36.330        40
36.340        27
36.350        27
36.360        27
36.370        53
36.380         0
36.390        40
36.400        40
36.410        40
36.420        13
36.430         0
36.440        53
36.450        27
36.460        67
36.470        27
36.480        40
36.490        13
36.500        27
36.510        80
36.520        40
36.530        53
36.540        13
36.550        53
36.560        40
36.570        13
36.580         0
36.590        27
36.600        13
36.610        13
36.620        53
36.630        13
36.640        40
36.650        53
36.660        27
36.670        13
36.680        53
36.690        40
36.700        40
36.710        27
36.720        40
36.730        40
36.740        40
36.750        40
36.760        27
36.770        40
36.780         0
36.790         0
36.800        53
36.810         0
36.820        13
36.830        40
36.840        40
36.850        53
36.860        27
36.870        53
36.880        40
36.890         0
36.900        53
36.910        27
36.920        27
36.930        13
36.940        40
36.950        27
36.960        40
36.970         0
36.980        40
36.990        13
37.000        93
37.010        13
37.020        27
37.030        13
37.040        40
37.050        40
37.060        27
37.070        53
37.080        40
37.090        40
37.100        13
37.110        13
37.120        13
37.130        13
37.140        13
37.150        27
37.160        27
37.170        13
37.180        13
37.190        27
37.200        53
37.210        27
37.220         0
37.230        13
37.240        40
37.250        53
37.260         0
37.270        40
37.280        27
37.290        27
37.300        27
37.310        13
37.320        27
37.330        27
37.340        13
37.350        27
37.360         0
37.370        27
37.380        13
37.390        13
37.400        27
37.410        13
37.420        13
37.430        13
37.440        13
37.450        13
37.460        13
37.470        53
37.480        27
37.490        13
37.500        27
37.510        13
37.520        13
37.530        13
37.540         0
37.550        27
37.560        27
37.570        27
37.580        40
37.590        13
37.600        40
37.610        67
37.620        53
37.630         0
37.640        40
37.650         0
37.660        53
37.670        27
37.680        53
37.690        80
37.700        93
37.710        93
37.720        93
37.730        80
37.740       147
37.750        13
37.760       160
37.770        67
37.780       120
37.790       107
37.800       107
37.810       200
37.820       213
37.830       147
37.840        80
37.850        80
37.860        40
37.870        80
37.880        67
37.890        80
37.900       120
37.910        80
37.920        40
37.930        27
37.940        53
37.950        40
37.960         0
37.970         0
37.980        27
37.990        40
38.000        27
38.010        67
38.020        40
38.030        27
38.040        27
38.050        67
38.060        27
38.070         0
38.080         0
38.090        27
38.100         0
38.110        40
38.120        13
38.130        27
38.140        53
38.150         0
38.160        40
38.170         0
38.180        27
38.190        53
38.200        27
38.210        40
38.220        27
38.230        27
38.240        27
38.250        13
38.260        13
38.270        27
38.280        67
38.290        27
38.300        13
38.310        27
38.320        27
38.330        53
38.340        27
38.350        13
38.360        27
38.370        27
38.380        27
38.390        13
38.400        67
38.410        13
38.420        40
38.430        40
38.440        93
38.450        13
38.460        40
38.470        40
38.480         0
38.490         0
38.500        13
38.510        13
38.520         0
38.530        53
38.540        13
38.550        27
38.560        27
38.570        53
38.580        53
38.590         0
38.600        27
38.610        27
38.620        27
38.630        13
38.640        13
38.650        27
38.660        13
38.670        40
38.680         0
38.690         0
38.700        53
38.710        53
38.720        53
38.730        13
38.740        27
38.750        13
38.760        13
38.770        13
38.780        40
38.790         0
38.800        13
38.810         0
38.820        27
38.830        53
38.840        40
38.850        27
38.860        40
38.870        27
38.880        27
38.890        53
38.900        13
38.910        13
38.920         0
38.930        27
38.940         0
38.950        53
38.960        27
38.970        27
38.980        13
38.990         0
39.000        27
39.010        40
39.020        27
39.030        13
39.040        80
39.050        53
39.060        13
39.070        40
39.080        53
39.090        27
39.100        67
39.110        27
39.120        13
39.130        13
39.140        27
39.150         0
39.160        13
39.170         0
39.180         0
39.190        40
39.200        40
39.210         0
39.220        27
39.230        27
39.240        13
39.250        13
39.260         0
39.270         0
39.280        27
39.290        40
39.300        40
39.310        27
39.320        13
39.330        13
39.340        27
39.350        67
39.360        27
39.370        13
39.380        40
39.390        13
39.400        67
39.410        13
39.420        53
39.430        40
39.440        13
39.450        27
39.460        53
39.470         0
39.480        27
39.490        27
39.500        40
39.510        27
39.520        13
39.530        40
39.540        13
39.550        13
39.560        27
39.570        27
39.580        27
39.590        40
39.600        40
39.610        53
39.620        13
39.630        67
39.640        13
39.650        40
39.660        13
39.670         0
39.680        13
39.690        40
39.700        13
39.710        13
39.720        40
39.730        40
39.740        67
39.750        40
39.760       107
39.770        53
39.780        53
39.790        93
39.800        53
39.810        53
39.820        67
39.830       133
39.840       187
39.850       147
39.860       160
39.870        67
39.880       173
39.890       173
39.900       173
39.910       267
39.920       200
39.930       280
39.940       413
39.950       240
39.960       400
39.970       480
39.980       373
39.990       560
40.000       600
40.010       573
40.020       680
40.030       480
40.040       533
40.050       440
40.060       520
40.070       373
40.080       400
40.090       480
40.100       413
40.110       440
40.120       400
40.130       213
40.140       333
40.150       400
40.160       160
40.170       240
40.180       187
40.190       133
40.200       107
40.210       120
40.220        93
40.230       133
40.240        93
40.250        67
40.260        93
40.270        80
40.280        53
40.290        27
40.300        53
40.310       107
40.320        27
40.330        27
40.340        53
40.350        40
40.360        67
40.370        40
40.380        27
40.390        13
40.400        27
40.410        27
40.420         0
40.430        13
40.440         0
40.450        40
40.460        40
40.470        40
40.480        27
40.490        27
40.500        13
40.510        13
40.520         0
40.530        27
40.540        53
40.550        40
40.560        27
40.570        40
40.580        13
40.590        67
40.600        13
40.610        13
40.620        27
40.630        53
40.640        53
40.650         0
40.660        53
40.670        27
40.680        53
40.690        53
40.700        40
40.710        27
40.720        27
40.730        53
40.740        53
40.750         0
40.760        13
40.770        13
40.780        13
40.790        13
40.800        27
40.810         0
40.820        40
40.830        13
40.840         0
40.850        27
40.860        13
40.870        80
40.880        13
40.890        40
40.900        13
40.910        40
40.920        40
40.930        27
40.940         0
40.950        27
40.960        67
40.970        40
40.980        27
40.990        53
41.000        27
41.010        13
41.020        27
41.030        13
41.040         0
41.050         0
41.060        40
41.070         0
41.080         0
41.090        13
41.100        13
41.110        53
41.120        40
41.130        53
41.140         0
41.150        40
41.160        40
41.170        27
41.180        53
41.190        13
41.200        27
41.210         0
41.220        67
41.230        27
41.240        67
41.250        40
41.260        13
41.270        53
41.280        13
41.290        13
41.300        27
41.310        27
41.320         0
41.330        13
41.340        40
41.350        53
41.360        13
41.370        40
41.380        27
41.390        53
41.400        40
41.410        13
41.420        53
41.430        53
41.440        27
41.450        53
41.460        53
41.470        53
41.480        13
41.490        27
41.500        67
41.510        40
41.520        67
41.530        53
41.540        67
41.550       107
41.560        53
41.570        53
41.580        27
41.590       107
41.600        93
41.610        67
41.620        80
41.630        40
41.640        27
41.650        80
41.660        53
41.670        40
41.680        80
41.690       107
41.700       120
41.710        93
41.720        67
41.730       160
41.740        93
41.750        53
41.760        40
41.770       107
41.780        40
41.790       147
41.800        93
41.810       107
41.820        93
41.830        80
41.840        53
41.850       107
41.860        80
41.870        40
41.880        67
41.890        67
41.900        13
41.910        13
41.920        53
41.930        67
41.940        67
41.950        40
41.960        13
41.970        27
41.980        27
41.990        40
42.000         0
42.010        40
42.020         0
42.030        67
42.040         0
42.050         0
42.060        40
42.070        40
42.080        13
42.090         0
42.100        40
42.110         0
42.120        40
42.130        40
42.140        13
42.150        40
42.160        27
42.170        27
42.180        13
42.190         0
42.200        27
42.210        27
42.220        40
42.230        80
42.240        27
42.250        27
42.260        40
42.270        13
42.280        13
42.290        13
42.300        13
42.310        27
42.320        27
42.330        40
42.340        13
42.350        27
42.360        40
42.370        13
42.380        13
42.390         0
42.400        13
42.410         0
42.420        27
42.430        40
42.440        40
42.450        13
42.460        13
42.470        53
42.480        13
42.490         0
42.500        13
42.510         0
42.520        27
42.530        27
42.540        13
42.550        53
42.560        27
42.570        40
42.580        27
42.590         0
42.600        40
42.610        13
42.620        27
42.630        13
42.640        27
42.650        13
42.660        40
42.670        13
42.680        53
42.690        40
42.700         0
42.710        27
42.720        27
42.730         0
42.740        27
42.750         0
42.760        27
42.770        27
42.780         0
42.790        40
42.800         0
42.810        40
42.820        13
42.830        13
42.840        13
42.850        93
42.860        13
42.870        27
42.880        27
42.890        27
42.900         0
42.910        67
42.920         0
42.930        40
42.940         0
42.950        27
42.960        40
42.970        13
42.980        27
42.990        53
43.000        27
43.010         0
43.020        27
43.030        27
43.040        13
43.050        27
43.060        27
43.070        40
43.080        13
43.090         0
43.100        27
43.110        40
43.120        67
43.130        13
43.140        13
43.150        40
43.160        53
43.170        67
43.180        53
43.190        40
43.200        53
43.210        27
43.220        13
43.230        27
43.240        27
43.250        80
43.260        93
43.270       107
43.280       147
43.290        40
43.300       120
43.310       267
43.320       187
43.330       120
43.340       120
43.350       120
43.360       147
43.370       213
43.380       360
43.390       280
43.400       347
43.410       280
43.420       160
43.430       173
43.440        93
43.450       133
43.460       160
43.470        67
43.480       120
43.490       107
43.500       173
43.510       160
43.520       120
43.530        80
43.540        53
43.550        80
43.560         0
43.570        53
43.580        67
43.590        27
43.600        40
43.610        67
43.620         0
43.630         0
43.640        27
43.650         0
43.660        13
43.670        13
43.680        13
43.690        67
43.700        67
43.710        27
43.720        13
43.730         0
43.740        27
43.750        13
43.760        13
43.770        13
43.780        40
43.790        13
43.800        27
43.810        13
43.820         0
43.830        40
43.840        40
43.850        53
43.860        53
43.870        13
43.880        27
43.890        27
43.900        80
43.910        40
43.920        27
43.930         0
43.940        13
43.950         0
43.960        27
43.970        27
43.980         0
43.990         0
44.000        40
44.010        13
44.020        27
44.030        27
44.040        13
44.050        27
44.060         0
44.070         0
44.080         0
44.090        13
44.100        40
44.110        13
44.120        40
44.130        27
44.140         0
44.150        67
44.160        13
44.170        67
44.180        13
44.190        13
44.200        40
44.210        27
44.220        13
44.230         0
44.240        27
44.250        27
44.260         0
44.270        13
44.280        53
44.290        27
44.300        40
44.310        40
44.320        80
44.330        40
44.340        13
44.350         0
44.360        67
44.370        27
44.380        13
44.390        93
44.400        13
44.410        13
44.420        27
44.430         0
44.440         0
44.450        40
44.460         0
44.470        27
44.480        27
44.490        67
44.500         0
44.510        27
44.520        40
44.530        13
44.540         0
44.550        13
44.560        53
44.570        53
44.580        27
44.590        53
44.600        53
44.610        27
44.620        13
44.630        27
44.640         0
44.650        27
44.660        40
44.670        27
44.680        27
44.690        13
44.700        40
44.710        27
44.720        53
44.730        27
44.740        27
44.750        40
44.760        40
44.770        13
44.780        67
44.790        27
44.800        27
44.810        27
44.820        40
44.830        67
44.840        40
44.850        40
44.860        27
44.870        80
44.880        67
44.890        53
44.900        27
44.910        40
44.920        67
44.930        53
44.940        40
44.950        27
44.960        53
44.970        53
44.980        80
44.990        53
45.000        53
45.010        27
45.020        27
45.030        27
45.040        27
45.050        27
45.060        40
45.070        53
45.080        93
45.090        53
45.100        67
45.110        53
45.120        27
45.130        40
45.140        67
45.150       107
45.160        40
45.170        40
45.180        67
45.190        27
45.200        40
45.210       120
45.220        40
45.230        67
45.240        53
45.250        40
45.260       147
45.270        40
45.280        40
45.290        93
45.300        40
45.310        93
45.320        53
45.330        13
45.340        13
45.350        27
45.360        53
45.370        13
45.380        67
45.390        67
45.400        53
45.410        80
45.420        67
45.430       120
45.440        13
45.450        67
45.460        67
45.470        13
45.480        93
45.490        80
45.500         0
45.510        27
45.520        27
45.530        13
45.540        80
45.550        27
45.560       120
45.570        40
45.580        53
45.590        67
45.600        53
45.610        40
45.620       107
45.630       173
45.640        13
45.650        67
45.660        67
45.670       173
45.680       120
45.690        93
45.700        67
45.710        80
45.720        93
45.730        67
45.740        67
45.750        80
45.760        93
45.770       133
45.780       160
45.790       107
45.800       133
45.810        67
45.820       120
45.830       133
45.840       160
45.850        93
45.860        80
45.870       147
45.880       133
45.890       147
45.900       160
45.910       200
45.920       267
45.930       107
45.940       173
45.950       200
45.960       307
45.970       240
45.980       173
45.990       320
46.000       240
46.010       213
46.020       267
46.030       400
46.040       320
46.050       333
46.060       360
46.070       347
46.080       347
46.090       333
46.100       387
46.110       560
46.120       666
46.130       480
46.140       533
46.150       506
46.160       613
46.170       720
46.180       773
46.190       813
46.200       960
46.210      1133
46.220      1040
46.230      1080
46.240      1160
46.250      1146
46.260      1733
46.270      1386
46.280      1586
46.290      1573
46.300      1999
46.310      2212
46.320      2399
46.330      2319
46.340      2852
46.350      2906
46.360      2879
46.370      3319
46.380      3745
46.390      3665
46.400      3612
46.410      3972
46.420      4078
46.430      4318
46.440      4238
46.450      4265
46.460      4118
46.470      4478
46.480      4638
46.490      4318
46.500      4305
46.510      3838
46.520      4078
46.530      4052
46.540      3972
46.550      3785
46.560      3399
46.570      3372
46.580      3359
46.590      3105
46.600      2945
46.610      3039
46.620      2746
46.630      2932
46.640      2199
46.650      2026
46.660      2079
46.670      2146
46.680      1773
46.690      1613
46.700      1639
46.710      1533
46.720      1586
46.730       946
46.740      1066
46.750       986
46.760      1120
46.770       946
46.780       960
46.790       626
46.800       733
46.810       640
46.820       773
46.830       560
46.840       613
46.850       560
46.860       373
46.870       493
46.880       466
46.890       320
46.900       320
46.910       307
46.920       293
46.930       347
46.940       453
46.950       307
46.960       347
46.970       333
46.980       200
46.990       227
47.000       320
47.010       213
47.020       253
47.030       213
47.040       187
47.050       200
47.060       160
47.070       160
47.080       200
47.090       173
47.100       187
47.110       147
47.120       120
47.130       120
47.140       147
47.150       187
47.160       120
47.170        80
47.180       147
47.190       173
47.200       147
47.210        53
47.220       160
47.230       147
47.240       120
47.250        80
47.260       107
47.270       147
47.280       107
47.290        67
47.300        67
47.310        53
47.320        67
47.330        80
47.340        93
47.350        93
47.360       120
47.370        93
47.380        27
47.390        80
47.400        67
47.410        93
47.420        80
47.430        80
47.440        40
47.450        40
47.460        80
47.470        67
47.480       120
47.490        80
47.500        27
47.510        13
47.520        67
47.530        53
47.540        67
47.550        13
47.560        67
47.570        80
47.580        53
47.590       120
47.600        93
47.610        67
47.620        80
47.630        53
47.640        80
47.650        93
47.660        27
47.670        40
47.680        40
47.690        40
47.700        53
47.710        67
47.720        67
47.730        53
47.740        93
47.750        40
47.760        40
47.770        53
47.780        13
47.790        80
47.800        80
47.810        27
47.820        27
47.830        53
47.840        40
47.850        40
47.860        53
47.870         0
47.880        67
47.890        27
47.900        67
47.910        13
47.920        67
47.930        27
47.940        67
47.950        13
47.960        40
47.970        40
47.980        27
47.990        80
48.000        13
48.010        40
48.020        13
48.030        40
48.040        13
48.050        40
48.060        53
48.070        40
48.080        40
48.090        13
48.100        40
48.110        67
48.120         0
48.130         0
48.140        13
48.150        67
48.160        93
48.170        40
48.180        27
48.190        27
48.200        67
48.210        40
48.220        13
48.230        27
48.240        40
48.250        80
48.260        13
48.270        67
48.280        13
48.290        40
48.300        27
48.310        53
48.320        53
48.330        27
48.340        13
48.350        27
48.360         0
48.370        67
48.380        67
48.390        40
48.400        40
48.410        40
48.420        53
48.430        13
48.440        80
48.450        13
48.460        13
48.470         0
48.480        13
48.490        40
48.500        40
48.510        13
48.520        67
48.530        40
48.540        27
48.550        40
48.560        40
48.570        40
48.580        53
48.590         0
48.600        27
48.610        40
48.620        27
48.630         0
48.640        40
48.650        13
48.660        67
48.670        40
48.680        27
48.690        27
48.700        27
48.710        13
48.720        13
48.730         0
48.740        80
48.750        27
48.760        27
48.770        13
48.780        67
48.790        40
48.800        53
48.810        13
48.820        40
48.830         0
48.840        27
48.850        40
48.860        27
48.870        40
48.880        40
48.890        40
48.900        80
48.910        67
48.920        40
48.930        13
48.940        27
48.950        40
48.960        27
48.970        27
48.980        67
48.990        13
49.000        80
49.010        53
49.020        53
49.030        40
49.040        80
49.050        27
49.060        13
49.070         0
49.080        27
49.090        40
49.100        13
49.110        27
49.120        40
49.130        13
49.140        40
49.150        40
49.160        67
49.170        40
49.180        53
49.190         0
49.200        13
49.210        27
49.220        27
49.230        80
49.240        13
49.250        13
49.260        40
49.270        13
49.280        13
49.290        27
49.300        13
49.310        40
49.320        40
49.330        67
49.340        27
49.350        27
49.360        67
49.370         0
49.380        27
49.390        27
49.400        27
49.410        67
49.420        27
49.430         0
49.440        40
49.450         0
49.460        53
49.470        40
49.480        13
49.490        27
49.500        13
49.510        27
49.520        27
49.530        13
49.540        53
49.550        27
49.560        40
49.570        27
49.580        67
49.590        27
49.600        13
49.610        53
49.620        40
49.630        40
49.640        13
49.650        27
49.660        40
49.670        13
49.680        27
49.690        40
49.700        27
49.710        27
49.720        27
49.730        27
49.740        80
49.750        53
49.760        27
49.770        40
49.780        27
49.790        27
49.800        27
49.810        27
49.820        27
49.830        13
49.840         0
49.850        40
49.860        27
49.870        67
49.880        53
49.890        27
49.900        40
49.910        40
49.920        53
49.930         0
49.940        13
49.950        27
49.960        40
49.970        27
49.980        40
49.990         0
50.000        67
50.010        40
50.020        27
50.030         0
50.040        67
50.050        40
50.060         0
50.070        13
50.080        40
50.090        13
50.100        13
50.110         0
50.120        13
50.130        40
50.140        13
50.150        67
50.160         0
50.170        13
50.180        40
50.190        40
50.200         0
50.210        27
50.220         0
50.230         0
50.240        13
50.250        27
50.260         0
50.270        13
50.280        40
50.290         0
50.300        27
50.310         0
50.320        40
50.330        13
50.340        13
50.350        53
50.360        27
50.370        53
50.380        27
50.390        13
50.400        27
50.410        27
50.420        67
50.430         0
50.440        40
50.450        27
50.460        13
50.470        53
50.480        67
50.490        40
50.500        27
50.510        13
50.520        13
50.530        27
50.540        40
50.550         0
50.560        53
50.570        27
50.580        13
50.590        53
50.600         0
50.610        40
50.620        67
50.630        13
50.640        13
50.650        13
50.660        40
50.670         0
50.680        27
50.690         0
50.700        13
50.710        13
50.720        13
50.730        27
50.740        13
50.750        27
50.760         0
50.770        13
50.780         0
50.790        27
50.800        13
50.810         0
50.820        40
50.830        13
50.840        27
50.850        13
50.860        27
50.870        53
50.880        13
50.890        53
50.900        40
50.910        13
50.920        40
50.930        27
50.940        27
50.950         0
50.960        13
50.970        40
50.980        13
50.990        13
51.000        13
51.010        27
51.020         0
51.030        27
51.040        13
51.050         0
51.060        40
51.070        27
51.080        53
51.090        13
51.100        53
51.110        13
51.120        27
51.130        27
51.140        27
51.150        40
51.160         0
51.170        13
51.180        13
51.190         0
51.200        27
51.210        13
51.220        27
51.230        27
51.240        40
51.250        13
51.260        27
51.270        40
51.280         0
51.290         0
51.300        27
51.310        27
51.320        27
51.330        13
51.340        27
51.350         0
51.360         0
51.370        53
51.380        13
51.390        27
51.400        13
51.410        27
51.420        27
51.430        13
51.440        27
51.450        27
51.460        40
51.470        13
51.480        40
51.490        53
51.500        40
51.510        27
51.520        27
51.530        67
51.540         0
51.550        67
51.560        13
51.570        27
51.580        27
51.590         0
51.600        40
51.610        27
51.620        40
51.630        13
51.640        40
51.650        13
51.660        40
51.670        27
51.680         0
51.690        27
51.700        27
51.710        40
51.720        13
51.730        13
51.740        13
51.750        40
51.760        27
51.770        27
51.780        40
51.790        53
51.800        13
51.810        13
51.820         0
51.830        13
51.840        53
51.850        67
51.860         0
51.870        27
51.880        13
51.890        13
51.900        27
51.910        27
51.920        13
51.930        13
51.940        27
51.950        27
51.960        27
51.970        13
51.980        13
51.990        53
52.000        27
52.010        67
52.020        40
52.030        27
52.040        27
52.050        53
52.060        13
52.070        13
52.080        53
52.090        40
52.100        27
52.110        27
52.120        13
52.130        40
52.140        13
52.150        13
52.160        27
52.170        67
52.180        13
52.190        27
52.200        13
52.210        53
52.220        40
52.230        13
52.240        13
52.250        27
52.260         0
52.270        13
52.280        27
52.290        40
52.300        40
52.310        13
52.320        13
52.330         0
52.340        13
52.350        40
52.360        53
52.370        27
52.380        27
52.390        13
52.400        27
52.410        40
52.420        53
52.430        13
52.440        80
52.450         0
52.460        93
52.470        67
52.480        13
52.490        67
52.500        53
52.510        67
52.520        93
52.530        40
52.540        27
52.550        67
52.560       107
52.570        67
52.580        80
52.590       147
52.600        27
52.610        27
52.620        53
52.630        93
52.640        40
52.650        27
52.660        93
52.670        40
52.680        67
52.690        40
52.700       107
52.710        40
52.720        13
52.730        67
52.740        27
52.750        40
52.760        27
52.770        40
52.780        13
52.790        40
52.800        27
52.810        27
52.820        13
52.830         0
52.840        40
52.850        53
52.860         0
52.870        13
52.880        27
52.890         0
52.900        13
52.910        13
52.920        13
52.930        13
52.940        40
52.950        27
52.960        27
52.970        53
52.980        27
52.990        40
53.000        27
53.010        40
53.020        40
53.030        27
53.040        13
53.050         0
53.060        13
53.070        13
53.080        40
53.090        27
53.100         0
53.110         0
53.120        40
53.130         0
53.140        27
53.150        53
53.160        13
53.170        27
53.180        13
53.190        27
53.200         0
53.210        27
53.220        93
53.230        13
53.240        27
53.250        27
53.260        53
53.270        40
53.280         0
53.290        27
53.300        53
53.310        13
53.320        67
53.330        27
53.340        27
53.350        13
53.360        27
53.370        27
53.380        13
53.390         0
53.400         0
53.410        13
53.420        40
53.430         0
53.440        40
53.450        27
53.460        53
53.470        53
53.480        40
53.490        13
53.500        13
53.510        27
53.520         0
53.530        13
53.540        53
53.550         0
53.560        13
53.570        53
53.580        27
53.590        13
53.600        13
53.610        13
53.620        40
53.630         0
53.640        27
53.650        27
53.660         0
53.670        27
53.680        40
53.690        27
53.700        27
53.710        27
53.720        27
53.730        27
53.740        67
53.750        27
53.760        27
53.770        27
53.780        27
53.790         0
53.800        13
53.810        13
53.820        27
53.830         0
53.840        40
53.850        27
53.860         0
53.870        13
53.880        27
53.890         0
53.900        13
53.910        40
53.920        13
53.930        13
53.940        27
53.950        27
53.960        67
53.970        40
53.980        13
53.990        13
54.000        13
54.010        13
54.020        27
54.030        13
54.040        27
54.050        40
54.060         0
54.070        40
54.080        27
54.090        40
54.100        13
54.110        27
54.120        40
54.130        27
54.140        13
54.150        27
54.160        13
54.170         0
54.180        27
54.190        27
54.200        13
54.210         0
54.220        13
54.230        13
54.240        27
54.250         0
54.260        13
54.270         0
54.280         0
54.290        27
54.300        40
54.310        40
54.320        27
54.330        67
54.340        27
54.350        13
54.360        40
54.370        13
54.380        13
54.390         0
54.400        13
54.410        53
54.420        13
54.430        53
54.440        40
54.450        40
54.460        13
54.470        40
54.480        67
54.490         0
54.500        40
54.510         0
54.520         0
54.530        27
54.540        13
54.550        40
54.560        40
54.570        40
54.580        27
54.590        13
54.600        27
54.610        27
54.620        67
54.630        13
54.640        40
54.650        27
54.660        13
54.670        53
54.680        13
54.690         0
54.700         0
54.710        13
54.720        13
54.730        27
54.740        40
54.750        13
54.760         0
54.770        13
54.780        27
54.790        13
54.800        40
54.810         0
54.820        13
54.830        53
54.840        13
54.850        13
54.860        13
54.870        40
54.880        27
54.890         0
54.900         0
54.910         0
54.920        53
54.930        13
54.940        13
54.950        53
54.960         0
54.970        27
54.980        13
54.990        53
55.000        40
55.010        13
55.020         0
55.030        13
55.040         0
55.050        13
55.060         0
55.070        13
55.080        13
55.090        27
55.100        27
55.110        13
55.120        40
55.130        13
55.140        40
55.150        13
55.160         0
55.170         0
55.180        27
55.190        13
55.200        27
55.210         0
55.220        67
55.230        40
55.240         0
55.250        13
55.260        27
55.270         0
55.280        40
55.290        13
55.300        40
55.310        53
55.320        40
55.330        13
55.340        53
55.350        27
55.360        27
55.370        13
55.380         0
55.390        13
55.400        67
55.410        13
55.420        27
55.430         0
55.440         0
55.450        80
55.460        13
55.470        40
55.480        13
55.490        40
55.500        40
55.510        40
55.520        13
55.530         0
55.540         0
55.550        13
55.560        13
55.570        27
55.580        13
55.590        13
55.600        27
55.610        27
55.620        27
55.630        27
55.640         0
55.650        13
55.660        40
55.670        53
55.680        27
55.690        13
55.700         0
55.710        13
55.720        53
55.730        13
55.740        27
55.750        27
55.760        40
55.770        13
55.780        40
55.790        13
55.800        27
55.810        27
55.820        27
55.830         0
55.840        13
55.850        13
55.860        67
55.870        27
55.880        13
55.890        53
55.900        27
55.910         0
55.920         0
55.930         0
55.940        13
55.950        27
55.960        13
55.970         0
55.980        13
55.990        53
56.000         0
56.010        13
56.020        27
56.030        27
56.040         0
56.050         0
56.060        27
56.070        27
56.080        40
56.090        13
56.100        13
56.110        13
56.120         0
56.130        13
56.140        13
56.150        27
56.160        13
56.170        40
56.180         0
56.190         0
56.200        13
56.210        27
56.220        27
56.230        13
56.240        27
56.250         0
56.260        27
56.270        13
56.280        40
56.290        13
56.300        40
56.310        40
56.320        13
56.330        27
56.340        27
56.350         0
56.360        13
56.370         0
56.380        27
56.390        27
56.400        13
56.410        27
56.420        27
56.430        13
56.440        27
56.450        13
56.460        27
56.470         0
56.480        13
56.490        40
56.500        13
56.510        40
56.520        27
56.530         0
56.540        27
56.550        40
56.560        40
56.570        13
56.580        13
56.590        13
56.600        27
56.610        13
56.620        53
56.630        13
56.640         0
56.650        27
56.660        27
56.670        67
56.680        13
56.690        13
56.700        27
56.710        27
56.720         0
56.730        27
56.740        13
56.750         0
56.760        40
56.770        27
56.780        13
56.790         0
56.800        27
56.810        27
56.820        13
56.830        13
56.840        27
56.850        40
56.860        13
56.870        53
56.880        13
56.890        40
56.900        13
56.910        13
56.920        27
56.930        13
56.940        13
56.950        27
56.960        13
56.970        27
56.980        67
56.990         0
57.000        13
57.010         0
57.020        40
57.030         0
57.040        27
57.050        13
57.060        13
57.070        27
57.080         0
57.090        53
57.100         0
57.110         0
57.120        13
57.130        13
57.140         0
57.150        13
57.160         0
57.170        40
57.180        40
57.190        27
57.200         0
57.210        27
57.220        40
57.230        13
57.240        13
57.250        27
57.260        40
57.270        53
57.280        40
57.290         0
57.300        53
57.310        27
57.320        13
57.330        40
57.340        53
57.350        13
57.360        53
57.370        27
57.380        40
57.390        53
57.400        67
57.410        13
57.420        40
57.430        13
57.440        80
57.450        67
57.460        53
57.470        53
57.480       120
57.490        53
57.500        53
57.510        40
57.520        80
57.530        80
57.540       147
57.550        93
57.560        40
57.570        93
57.580        67
57.590        40
57.600        53
57.610        13
57.620        40
57.630        80
57.640        80
57.650        40
57.660        80
57.670        53
57.680        80
57.690        40
57.700        53
57.710        53
57.720        67
57.730        67
57.740       120
57.750        80
57.760        27
57.770         0
57.780        53
57.790        40
57.800        80
57.810        27
57.820       107
57.830        67
57.840       107
57.850        80
57.860        67
57.870        93
57.880       120
57.890        67
57.900        53
57.910        67
57.920       107
57.930        80
57.940        53
57.950        80
57.960        53
57.970        40
57.980        27
57.990       120
58.000        67
58.010        80
58.020        67
58.030        67
58.040        67
58.050        53
58.060        27
58.070        93
58.080        13
58.090        67
58.100        27
58.110         0
58.120        27
58.130        13
58.140        27
58.150        53
58.160        27
58.170        53
58.180        13
58.190        27
58.200        40
58.210         0
58.220         0
58.230        53
58.240        13
58.250        40
58.260        27
58.270        27
58.280         0
58.290        13
58.300        27
58.310        27
58.320        13
58.330        27
58.340        13
58.350        13
58.360        27
58.370        13
58.380         0
58.390         0
58.400         0
58.410        40
58.420        13
58.430         0
58.440        27
58.450        40
58.460        27
58.470        40
58.480        40
58.490        27
58.500        13
58.510        40
58.520        53
58.530        40
58.540         0
58.550         0
58.560         0
58.570        67
58.580        67
58.590        13
58.600        53
58.610        40
58.620        27
58.630         0
58.640        13
58.650        40
58.660         0
58.670        40
58.680        53
58.690        40
58.700        13
58.710        27
58.720        13
58.730        27
58.740        13
58.750        67
58.760        13
58.770         0
58.780        27
58.790        13
58.800        27
58.810        13
58.820        13
58.830        13
58.840         0
58.850        27
58.860         0
58.870        13
58.880        13
58.890        13
58.900        13
58.910        13
58.920         0
58.930        13
58.940        27
58.950        27
58.960        13
58.970        13
58.980        13
58.990        13
59.000         0
59.010        13
59.020        67
59.030        13
59.040        27
59.050         0
59.060        40
59.070       107
59.080         0
59.090        27
59.100        40
59.110        27
59.120        13
59.130        13
59.140         0
59.150        13
59.160        13
59.170        27
59.180        27
59.190        27
59.200         0
59.210        13
59.220        27
59.230        13
59.240        27
59.250        13
59.260        13
59.270        13
59.280        40
59.290        13
59.300        40
59.310        13
59.320         0
59.330        13
59.340        13
59.350        27
59.360         0
59.370        13
59.380        27
59.390        53
59.400         0
59.410        53
59.420        40
59.430        67
59.440        27
59.450        40
59.460        27
59.470         0
59.480        27
59.490        13
59.500        13
59.510        13
59.520        13
59.530        27
59.540        13
59.550        13
59.560         0
59.570        13
59.580        27
59.590        40
59.600         0
59.610        40
59.620        13
59.630         0
59.640        67
59.650        13
59.660        40
59.670        13
59.680        40
59.690        13
59.700        27
59.710        27
59.720        13
59.730        27
59.740        13
59.750        40
59.760        40
59.770        27
59.780        53
59.790        40
59.800        53
59.810         0
59.820        40
59.830        27
59.840        13
59.850        13
59.860         0
59.870        27
59.880        27
59.890        27
59.900        67
59.910        13
59.920        67
59.930         0
59.940        40
59.950         0
59.960        13
59.970        13
59.980        27
59.990        13
60.000         0
