20.000       107
20.010        93
20.020        93
20.030       107
20.040       107
20.050        80
20.060        53
20.070       107
20.080       120
20.090       133
20.100       120
20.110       120
20.120        53
20.130        67
20.140        80
20.150        67
20.160        80
20.170       120
20.180        80
20.190        67
20.200        80
20.210        93
20.220        67
20.230       107
20.240        93
20.250       107
20.260        93
20.270        67
20.280        40
20.290        93
20.300        40
20.310        27
20.320        80
20.330        67
20.340       120
20.350       120
20.360       160
20.370       133
20.380       187
20.390        80
20.400        67
20.410       133
20.420       160
20.430        53
20.440        80
20.450        93
20.460        67
20.470        27
20.480        80
20.490        80
20.500        40
20.510        67
20.520       107
20.530       133
20.540       120
20.550       107
20.560        93
20.570        13
20.580        80
20.590       107
20.600        40
20.610        40
20.620        67
20.630        40
20.640        40
20.650        67
20.660        93
20.670       120
20.680        53
20.690        53
20.700        67
20.710        53
20.720        80
20.730        93
20.740        67
20.750       133
20.760       107
20.770        93
20.780       120
20.790        93
20.800       120
20.810        40
20.820        93
20.830        93
20.840        93
20.850        93
20.860        93
20.870        93
20.880        80
20.890       133
20.900       120
20.910       107
20.920        53
20.930       133
20.940        27
20.950        80
20.960        93
20.970        93
20.980        80
20.990        93
21.000       107
21.010       107
21.020       147
21.030        27
21.040       147
21.050        67
21.060       120
21.070       107
21.080       133
21.090        93
21.100        93
21.110        80
21.120       133
21.130        80
21.140        53
21.150        80
21.160       107
21.170        93
21.180        80
21.190        67
21.200       107
21.210       120
21.220        67
21.230        93
21.240        27
21.250        53
21.260       107
21.270        53
21.280       120
21.290        67
21.300        67
21.310        67
21.320        53
21.330        40
21.340       133
21.350        40
21.360        80
21.370        80
21.380        93
21.390       107
21.400        80
21.410        93
21.420        93
21.430       120
21.440       120
21.450       187
21.460        80
21.470       107
21.480        40
21.490        80
21.500       147
21.510        93
21.520        67
21.530        67
21.540        53
21.550        67
21.560       107
21.570        53
21.580        93
21.590       133
21.600       173
21.610       147
21.620        93
21.630       147
21.640       133
21.650       133
21.660       147
21.670        93
21.680        93
21.690        93
21.700        53
21.710        53
21.720       107
21.730       107
21.740       147
21.750        93
21.760       133
21.770       107
21.780        80
21.790       147
21.800       133
21.810       120
21.820        67
21.830       160
21.840       147
21.850       133
21.860        93
21.870       107
21.880       120
21.890       107
21.900       173
21.910        93
21.920       120
21.930       147
21.940        80
21.950       120
21.960       107
21.970       133
21.980        93
21.990       147
22.000        53
22.010       147
22.020        80
22.030       160
22.040       147
22.050        93
22.060       133
22.070       107
22.080       200
22.090        93
22.100       107
22.110       160
22.120       147
22.130       147
22.140        53
22.150       107
22.160        80
22.170       107
22.180       200
22.190       133
22.200       107
22.210        67
22.220       173
22.230       120
22.240       107
22.250        80
22.260        67
22.270       227
22.280        93
22.290       213
22.300       133
22.310       253
22.320        67
22.330       173
22.340       213
22.350       160
22.360       213
22.370       133
22.380       120
22.390        93
22.400        93
22.410       107
22.420       133
22.430       107
22.440       120
22.450       213
22.460       107
22.470       120
22.480       147
22.490       120
22.500       160
22.510       147
22.520       187
22.530       133
22.540       173
22.550        93
22.560       107
22.570        93
22.580       133
22.590       293
22.600       107
22.610       213
22.620       133
22.630       160
22.640       120
22.650       133
22.660       160
22.670       187
22.680       173
22.690        93
22.700       173
22.710       120
22.720       120
22.730       187
22.740       147
22.750       133
22.760       147
22.770       173
22.780       120
22.790       147
22.800       173
22.810       120
22.820       187
22.830       213
22.840       240
22.850       200
22.860       187
22.870       293
22.880       160
22.890       267
22.900       320
22.910       147
22.920       213
22.930       173
22.940       173
22.950       426
22.960       267
22.970       187
22.980       213
22.990       347
23.000       320
23.010       453
23.020       733
23.030       906
23.040      1439
23.050      1160
23.060      1506
23.070      1893
23.080      1933
23.090      1426
23.100      1080
23.110       826
23.120       520
23.130       373
23.140       253
23.150       240
23.160       200
23.170       293
23.180       280
23.190       200
23.200       160
23.210       227
23.220       293
23.230       200
23.240       253
23.250       160
23.260       147
23.270       227
23.280       187
23.290       133
23.300       120
23.310       240
23.320       147
23.330       173
23.340       147
23.350        53
23.360       147
23.370        80
23.380       200
23.390       160
23.400       227
23.410       187
23.420       160
23.430       187
23.440        93
23.450       120
23.460       307
23.470       120
23.480       160
23.490       213
23.500       200
23.510       293
23.520       147
23.530       160
23.540       240
23.550       173
23.560       120
23.570       213
23.580       133
23.590       200
23.600       107
23.610       160
23.620       213
23.630       120
23.640       107
23.650       240
23.660       160
23.670       267
23.680       213
23.690       133
23.700       200
23.710       173
23.720       213
23.730       173
23.740        93
23.750       320
23.760       253
23.770       107
23.780       200
23.790       213
23.800       107
23.810       200
23.820       147
23.830       133
23.840       107
23.850       187
23.860       160
23.870       173
23.880       173
23.890       200
23.900       293
23.910       240
23.920       107
23.930       133
23.940       240
23.950       160
23.960       120
23.970       147
23.980       267
23.990       173
24.000       160
24.010       160
24.020       187
24.030       187
24.040       200
24.050       120
24.060       253
24.070       133
24.080       173
24.090        93
24.100       187
24.110       147
24.120       280
24.130       200
24.140       147
24.150       160
24.160       133
24.170       160
24.180       253
24.190       227
24.200       120
24.210       147
24.220       160
24.230       253
24.240       173
24.250       187
24.260       213
24.270       173
24.280       173
24.290       240
24.300       200
24.310        80
24.320       187
24.330       133
24.340       200
24.350       200
24.360       280
24.370       173
24.380       160
24.390       147
24.400       187
24.410       147
24.420       240
24.430       147
24.440       133
24.450       147
24.460       147
24.470       107
24.480       187
24.490       173
24.500       227
24.510       187
24.520       147
24.530       187
24.540       173
24.550       200
24.560       307
24.570       187
24.580       240
24.590       280
24.600       187
24.610       120
24.620       213
24.630       227
24.640       280
24.650       293
24.660       267
24.670       533
24.680       493
24.690       480
24.700       626
24.710       733
24.720       640
24.730       933
24.740       680
24.750       573
24.760       613
24.770       613
24.780       760
24.790       746
24.800       786
24.810       920
24.820       706
24.830       866
24.840       746
24.850       600
24.860       733
24.870       760
24.880       760
24.890       906
24.900       666
24.910       893
24.920       600
24.930       760
24.940       800
24.950       906
24.960      1013
24.970       800
24.980       760
24.990       613
25.000       933
25.010       760
25.020       840
25.030       800
25.040       666
25.050       906
25.060       880
25.070       826
25.080       893
25.090       880
25.100       906
25.110       786
25.120       733
25.130       826
25.140       946
25.150       853
25.160      1013
25.170       773
25.180       866
25.190       986
25.200       626
25.210       840
25.220       760
25.230       986
25.240       960
25.250      1106
25.260       960
25.270       866
25.280      1000
25.290      1146
25.300      1066
25.310      1120
25.320      1839
25.330      1853
25.340      2199
25.350      2439
25.360      3185
25.370      3719
25.380      4625
25.390      5145
25.400      5798
25.410      7210
25.420      7943
25.430      8850
25.440      9410
25.450     10329
25.460     10849
25.470     12488
25.480     12275
25.490     13501
25.500     15740
25.510     21298
25.520     38824
25.530     68466
25.540    107077
25.550    135039
25.560    148327
25.570    158350
25.580    163081
25.590    164361
25.600    160123
25.610    146022
25.620    123284
25.630    105811
25.640    101226
25.650     93629
25.660     87232
25.670     70452
25.680     48594
25.690     27709
25.700     16553
25.710     12155
25.720      9889
25.730      8077
25.740      7410
25.750      6104
25.760      4985
25.770      3878
25.780      3758
25.790      3092
25.800      2466
25.810      2386
25.820      1946
25.830      1746
25.840      1813
25.850      1160
25.860      1519
25.870      1186
25.880      1346
25.890      1200
25.900      1373
25.910      1013
25.920      1120
25.930      1080
25.940       853
25.950      1146
25.960      1000
25.970      1040
25.980       880
25.990       840
26.000       773
26.010       946
26.020       680
26.030       880
26.040      1026
26.050       680
26.060       786
26.070       826
26.080       693
26.090       720
26.100       800
26.110       680
26.120       880
26.130       626
26.140       680
26.150       653
26.160       786
26.170       560
26.180       800
26.190       773
26.200       613
26.210       746
26.220       573
26.230       720
26.240       680
26.250       800
26.260       680
26.270       666
26.280       533
26.290       746
26.300       680
26.310       546
26.320       733
26.330       720
26.340       560
26.350       680
26.360       760
26.370       733
26.380       706
26.390       560
26.400       400
26.410       626
26.420       613
26.430       573
26.440       706
26.450       826
26.460       573
26.470       560
26.480       573
26.490       480
26.500       640
26.510       586
26.520       613
26.530       466
26.540       586
26.550       653
26.560       546
26.570       453
26.580       653
26.590       706
26.600       546
26.610       560
26.620       600
26.630       466
26.640       426
26.650       453
26.660       413
26.670       493
26.680       387
26.690       746
26.700       520
26.710       600
26.720       506
26.730       520
26.740       560
26.750       586
26.760       640
26.770       640
26.780       693
26.790       640
26.800       533
26.810       546
26.820       546
26.830       600
26.840       466
26.850       480
26.860       573
26.870       613
26.880       653
26.890       560
26.900       493
26.910       360
26.920       560
26.930       560
26.940       520
26.950       613
26.960       573
26.970       546
26.980       560
26.990       560
27.000       760
27.010       426
27.020       586
27.030       466
27.040       586
27.050       653
27.060       426
27.070       653
27.080       426
27.090       573
27.100       573
27.110       533
27.120       520
27.130       533
27.140       533
27.150       533
27.160       480
27.170       506
27.180       546
27.190       520
27.200       573
27.210       440
27.220       480
27.230       413
27.240       586
27.250       520
27.260       440
27.270       493
27.280       400
27.290       466
27.300       373
27.310       493
27.320       613
27.330       493
27.340       466
27.350       360
27.360       347
27.370       307
27.380       466
27.390       613
27.400       413
27.410       426
27.420       520
27.430       387
27.440       453
27.450       466
27.460       600
27.470       413
27.480       520
27.490       600
27.500       426
27.510       613
27.520       426
27.530       426
27.540       373
27.550       413
27.560       373
27.570       426
27.580       573
27.590       400
27.600       493
27.610       347
27.620       373
27.630       600
27.640       480
27.650       373
27.660       453
27.670       493
27.680       640
27.690       360
27.700       413
27.710       480
27.720       426
27.730       440
27.740       560
27.750       573
27.760       626
27.770       426
27.780       440
27.790       400
27.800       466
27.810       426
27.820       466
27.830       506
27.840       426
27.850       493
27.860       533
27.870       453
27.880       333
27.890       413
27.900       400
27.910       480
27.920       480
27.930       453
27.940       440
27.950       373
27.960       413
27.970       520
27.980       413
27.990       413
28.000       573
28.010       240
28.020       387
28.030       400
28.040       453
28.050       426
28.060       280
28.070       400
28.080       360
28.090       520
28.100       373
28.110       466
28.120       387
28.130       533
28.140       493
28.150       453
28.160       546
28.170       400
28.180       480
28.190       493
28.200       520
28.210       493
28.220       426
28.230       307
28.240       560
28.250       360
28.260       480
28.270       506
28.280       520
28.290       373
28.300       307
28.310       453
28.320       413
28.330       586
28.340       347
28.350       440
28.360       426
28.370       440
28.380       320
28.390       307
28.400       320
28.410       360
28.420       347
28.430       387
28.440       347
28.450       413
28.460       400
28.470       373
28.480       400
28.490       586
28.500       333
28.510       320
28.520       453
28.530       426
28.540       387
28.550       347
28.560       347
28.570       293
28.580       293
28.590       320
28.600       373
28.610       413
28.620       466
28.630       426
28.640       440
28.650       480
28.660       413
28.670       307
28.680       227
28.690       387
28.700       373
28.710       320
28.720       280
28.730       387
28.740       387
28.750       400
28.760       453
28.770       560
28.780       387
28.790       373
28.800       373
28.810       387
28.820       387
28.830       626
28.840       373
28.850       347
28.860       426
28.870       413
28.880       320
28.890       466
28.900       506
28.910       560
28.920       413
28.930       506
28.940       387
28.950       586
28.960       706
28.970       480
28.980       546
28.990       533
29.000       520
29.010       573
29.020       493
29.030       453
29.040       493
29.050       573
29.060       440
29.070       480
29.080       466
29.090       453
29.100       400
29.110       466
29.120       426
29.130       333
29.140       426
29.150       387
29.160       440
29.170       253
29.180       400
29.190       320
29.200       360
29.210       360
29.220       413
29.230       440
29.240       373
29.250       453
29.260       360
29.270       440
29.280       320
29.290       466
29.300       413
29.310       360
29.320       333
29.330       373
29.340       213
29.350       440
29.360       506
29.370       253
29.380       333
29.390       506
29.400       333
29.410       333
29.420       293
29.430       347
29.440       387
29.450       387
29.460       267
29.470       253
29.480       307
29.490       293
29.500       413
29.510       347
29.520       333
29.530       347
29.540       293
29.550       400
29.560       333
29.570       360
29.580       400
29.590       293
29.600       320
29.610       360
29.620       347
29.630       293
29.640       387
29.650       347
29.660       293
29.670       453
29.680       400
29.690       347
29.700       280
29.710       240
29.720       426
29.730       480
29.740       333
29.750       200
29.760       453
29.770       426
29.780       360
29.790       400
29.800       280
29.810       173
29.820       480
29.830       333
29.840       227
29.850       400
29.860       426
29.870       373
29.880       253
29.890       267
29.900       293
29.910       307
29.920       307
29.930       280
29.940       280
29.950       373
29.960       373
29.970       267
29.980       333
29.990       360
30.000       267
30.010       333
30.020       360
30.030       280
30.040       373
30.050       280
30.060       213
30.070       253
30.080       267
30.090       307
30.100       293
30.110       280
30.120       293
30.130       307
30.140       400
30.150       240
30.160       267
30.170       413
30.180       347
30.190       147
30.200       387
30.210       213
30.220       320
30.230       293
30.240       333
30.250       320
30.260       333
30.270       333
30.280       333
30.290       267
30.300       360
30.310       347
30.320       413
30.330       280
30.340       253
30.350       307
30.360       373
30.370       213
30.380       293
30.390       267
30.400       320
30.410       253
30.420       320
30.430       360
30.440       333
30.450       333
30.460       293
30.470       360
30.480       347
30.490       293
30.500       387
30.510       347
30.520       320
30.530       347
30.540       240
30.550       466
30.560       333
30.570       347
30.580       280
30.590       280
30.600       280
30.610       187
30.620       293
30.630       320
30.640       267
30.650       200
30.660       200
30.670       307
30.680       466
30.690       240
30.700       187
30.710       373
30.720       373
30.730       333
30.740       173
30.750       267
30.760       213
30.770       320
30.780       373
30.790       227
30.800       253
30.810       293
30.820       187
30.830       387
30.840       280
30.850       293
30.860       360
30.870       293
30.880       267
30.890       307
30.900       280
30.910       267
30.920       253
30.930       280
30.940       280
30.950       267
30.960       213
30.970       280
30.980       360
30.990       187
31.000       213
31.010       147
31.020       320
31.030       240
31.040       373
31.050       293
31.060       307
31.070       320
31.080       293
31.090       307
31.100       160
31.110       107
31.120       280
31.130       240
31.140       200
31.150       466
31.160       293
31.170       253
31.180       293
31.190       187
31.200       253
31.210       267
31.220       280
31.230       387
31.240       213
31.250       320
31.260       280
31.270       280
31.280       280
31.290       280
31.300       187
31.310       240
31.320       307
31.330       240
31.340       293
31.350       466
31.360       360
31.370       293
31.380       213
31.390       413
31.400       293
31.410       360
31.420       347
31.430       213
31.440       440
31.450       213
31.460       347
31.470       400
31.480       307
31.490       280
31.500       347
31.510       200
31.520       240
31.530       280
31.540       173
31.550       213
31.560       253
31.570       280
31.580       333
31.590       307
31.600       280
31.610       213
31.620       227
31.630       333
31.640       280
31.650       227
31.660       293
31.670       147
31.680       200
31.690       320
31.700       133
31.710       200
31.720       293
31.730       267
31.740       173
31.750       240
31.760       240
31.770       280
31.780       253
31.790       213
31.800       280
31.810       200
31.820       280
31.830       200
31.840       200
31.850       227
31.860       213
31.870       227
31.880       227
31.890       267
31.900       240
31.910       200
31.920       147
31.930       333
31.940       280
31.950       307
31.960       200
31.970       240
31.980       213
31.990       147
32.000       280
32.010       227
32.020       160
32.030       267
32.040       227
32.050       267
32.060       160
32.070       253
32.080       133
32.090       227
32.100       173
32.110       307
32.120       227
32.130       240
32.140       200
32.150       253
32.160       360
32.170       240
32.180       267
32.190       293
32.200       280
32.210       240
32.220       173
32.230       213
32.240       320
32.250       280
32.260       333
32.270       227
32.280       280
32.290       280
32.300       227
32.310       173
32.320       187
32.330       333
32.340       280
32.350       227
32.360       213
32.370       280
32.380       213
32.390       213
32.400       253
32.410       147
32.420       240
32.430       213
32.440       293
32.450       147
32.460       147
32.470       160
32.480       200
32.490       187
32.500       227
32.510       200
32.520       280
32.530       240
32.540       227
32.550       160
32.560       173
32.570       133
32.580       187
32.590       133
32.600       333
32.610       173
32.620       187
32.630       187
32.640       293
32.650       200
32.660       147
32.670       173
32.680       267
32.690       187
32.700       147
32.710       160
32.720       187
32.730       173
32.740       173
32.750       133
32.760       227
32.770       173
32.780       213
32.790       347
32.800       227
32.810       173
32.820       253
32.830       147
32.840       147
32.850       133
32.860       133
32.870       213
32.880       147
32.890       240
32.900       200
32.910       187
32.920       227
32.930       293
32.940       187
32.950       333
32.960       200
32.970       240
32.980       160
32.990       187
33.000       213
33.010       107
33.020       173
33.030       147
33.040       213
33.050       280
33.060       200
33.070       147
33.080       200
33.090       187
33.100       173
33.110       227
33.120       187
33.130        93
33.140        93
33.150       173
33.160        93
33.170       187
33.180       173
33.190        67
33.200       120
33.210       213
33.220       147
33.230       213
33.240       173
33.250       253
33.260       147
33.270       187
33.280       160
33.290       107
33.300       213
33.310       213
33.320       227
33.330       160
33.340       120
33.350       173
33.360       133
33.370        93
33.380       160
33.390       213
33.400       267
33.410       200
33.420       160
33.430       173
33.440       160
33.450       120
33.460        93
33.470       120
33.480       133
33.490       227
33.500       147
33.510       133
33.520       173
33.530       133
33.540       120
33.550       213
33.560        93
33.570       147
33.580       173
33.590       200
33.600       160
33.610       200
33.620       173
33.630       173
33.640        93
33.650       160
33.660       213
33.670       107
33.680       120
33.690       173
33.700       133
33.710       107
33.720       133
33.730       160
33.740        93
33.750       173
33.760       147
33.770        80
33.780       120
33.790        80
33.800       187
33.810       133
33.820       133
33.830        93
33.840       160
33.850       120
33.860       173
33.870       107
33.880       200
33.890       187
33.900       160
33.910       133
33.920       133
33.930       107
33.940       213
33.950       120
33.960       200
33.970       187
33.980        93
33.990       147
34.000       173
34.010       200
34.020       120
34.030       160
34.040       120
34.050       200
34.060       120
34.070       133
34.080       213
34.090        67
34.100       213
34.110       133
34.120       147
34.130       187
34.140       187
34.150       200
34.160       120
34.170       147
34.180       133
34.190       133
34.200       160
34.210       160
34.220       147
34.230       160
34.240        67
34.250        93
34.260       120
34.270       160
34.280       200
34.290       107
34.300       187
34.310       187
34.320        80
34.330       107
34.340        93
34.350       147
34.360       133
34.370       213
34.380        80
34.390       187
34.400       120
34.410       133
34.420       133
34.430       240
34.440       173
34.450       253
34.460       213
34.470        67
34.480       213
34.490       133
34.500       173
34.510       173
34.520        93
34.530       120
34.540       120
34.550       133
34.560        93
34.570        93
34.580       227
34.590       200
34.600        67
34.610       133
34.620        80
34.630        80
34.640        67
34.650       120
34.660       173
34.670       133
34.680       107
34.690        80
34.700       173
34.710       133
34.720        80
34.730       173
34.740       160
34.750       160
34.760       160
34.770       213
34.780       120
34.790        80
34.800       133
34.810       120
34.820        93
34.830       160
34.840        93
34.850        93
34.860        80
34.870       120
34.880       120
34.890       160
34.900       147
34.910        93
34.920       147
34.930       173
34.940       147
34.950       133
34.960       147
34.970       160
34.980       133
34.990       107
35.000       213
35.010       187
35.020        93
35.030        80
35.040        53
35.050        67
35.060       107
35.070       160
35.080        80
35.090        40
35.100       107
35.110       147
35.120       133
35.130       160
35.140       187
35.150       253
35.160       133
35.170       107
35.180       187
35.190       160
35.200        80
35.210       120
35.220       120
35.230       107
35.240       147
35.250        93
35.260       107
35.270        93
35.280       187
35.290        93
35.300       120
35.310        67
35.320       187
35.330       107
35.340       147
35.350       147
35.360       133
35.370        80
35.380       120
35.390       133
35.400        93
35.410        93
35.420        93
35.430       147
35.440       147
35.450        67
35.460       133
35.470        93
35.480       133
35.490        93
35.500        80
35.510       133
35.520        80
35.530        67
35.540       120
35.550        53
35.560        53
35.570       147
35.580        67
35.590       133
35.600       133
35.610       107
35.620       120
35.630       120
35.640        93
35.650        93
35.660       120
35.670       160
35.680       107
35.690       120
35.700        80
35.710       133
35.720       213
35.730       107
35.740        80
35.750       107
35.760        80
35.770       147
35.780       160
35.790       133
35.800       173
35.810        93
35.820       160
35.830       133
35.840       120
35.850        67
35.860       187
35.870       120
35.880       120
35.890        93
35.900       120
35.910       107
35.920       133
35.930        93
35.940        93
35.950       187
35.960       120
35.970       133
35.980       133
35.990        93
36.000       120
36.010        53
36.020       120
36.030       160
36.040        80
36.050        80
36.060        93
36.070       107
36.080       120
36.090       173
36.100       160
36.110        53
36.120       133
36.130       133
36.140       147
36.150       173
36.160        27
36.170       147
36.180        93
36.190        67
36.200       160
36.210       120
36.220        67
36.230        93
36.240        80
36.250       187
36.260       133
36.270        93
36.280       120
36.290       107
36.300        80
36.310       120
36.320        80
36.330        67
36.340       133
36.350       120
36.360        40
36.370        80
36.380        53
36.390        80
36.400        80
36.410        67
36.420       160
36.430        93
36.440        80
36.450       147
36.460       187
36.470        53
36.480       147
36.490        80
36.500        67
36.510        40
36.520        80
36.530        40
36.540       160
36.550       120
36.560        53
36.570        80
36.580       107
36.590       133
36.600       107
36.610        93
36.620       133
36.630        93
36.640        80
36.650        53
36.660       133
36.670        53
36.680        53
36.690       107
36.700        80
36.710        67
36.720       120
36.730        93
36.740        53
36.750        67
36.760       120
36.770       107
36.780        80
36.790        80
36.800        80
36.810        93
36.820        67
36.830        80
36.840       133
36.850       107
36.860        80
36.870       160
36.880       107
36.890        53
36.900        67
36.910        80
36.920        93
36.930        53
36.940        53
36.950        93
36.960       120
36.970        40
36.980       133
36.990        67
37.000        93
37.010       160
37.020        93
37.030        53
37.040       147
37.050        53
37.060        80
37.070        93
37.080        53
37.090       133
37.100       107
37.110       120
37.120        40
37.130        53
37.140       133
37.150        53
37.160       120
37.170        93
37.180        53
37.190        67
37.200        93
37.210        80
37.220        93
37.230       147
37.240        80
37.250        53
37.260        53
37.270       120
37.280       147
37.290        27
37.300        93
37.310        80
37.320        67
37.330        93
37.340       147
37.350        53
37.360        67
37.370        80
37.380       107
37.390        93
37.400        53
37.410        67
37.420        93
37.430        67
37.440        67
37.450        80
37.460        80
37.470        53
37.480        80
37.490        40
37.500        80
37.510        40
37.520        53
37.530        93
37.540        80
37.550        93
37.560        67
37.570        40
37.580        27
37.590        53
37.600        93
37.610        80
37.620        67
37.630        53
37.640        67
37.650        53
37.660        93
37.670        80
37.680        53
37.690        67
37.700       133
37.710       107
37.720        80
37.730        80
37.740        67
37.750        80
37.760       107
37.770       120
37.780        67
37.790       107
37.800        53
37.810        80
37.820        93
37.830        13
37.840        53
37.850        53
37.860        80
37.870       147
37.880        93
37.890        67
37.900        67
37.910        27
37.920        53
37.930        93
37.940        27
37.950        80
37.960        13
37.970        67
37.980        67
37.990        93
38.000        80
38.010        67
38.020       133
38.030        27
38.040       120
38.050        67
38.060       107
38.070        93
38.080        80
38.090        67
38.100        93
38.110        80
38.120        93
38.130        80
38.140        67
38.150       133
38.160        40
38.170        53
38.180        53
38.190        80
38.200       173
38.210        53
38.220       107
38.230        40
38.240        13
38.250        40
38.260        67
38.270       107
38.280        67
38.290       107
38.300        80
38.310        93
38.320         0
38.330       107
38.340       107
38.350        80
38.360        27
38.370        27
38.380        40
38.390        53
38.400        27
38.410        93
38.420        53
38.430        80
38.440        27
38.450        40
38.460       107
38.470       107
38.480        93
38.490        80
38.500        27
38.510        53
38.520        53
38.530       120
38.540        67
38.550        27
38.560        13
38.570        67
38.580        67
38.590        93
38.600        93
38.610        53
38.620        13
38.630        40
38.640        67
38.650        67
38.660        67
38.670        93
38.680        93
38.690        93
38.700        93
38.710        67
38.720        67
38.730        53
38.740        40
38.750        67
38.760        80
38.770        80
38.780        80
38.790        67
38.800        80
38.810        27
38.820        67
38.830        67
38.840        53
38.850        13
38.860       147
38.870        67
38.880        40
38.890        67
38.900       107
38.910        93
38.920        93
38.930        40
38.940       120
38.950        53
38.960        80
38.970        40
38.980        80
38.990        53
39.000        27
39.010        67
39.020        53
39.030       107
39.040        13
39.050        27
39.060        93
39.070       120
39.080        80
39.090        67
39.100        53
39.110        27
39.120        80
39.130        53
39.140       120
39.150        40
39.160        53
39.170        80
39.180        80
39.190        40
39.200        40
39.210        40
39.220        67
39.230        27
39.240        53
39.250        40
39.260        40
39.270        67
39.280        53
39.290        93
39.300        93
39.310        80
39.320        53
39.330        80
39.340        67
39.350        13
39.360        80
39.370        27
39.380        53
39.390        27
39.400       120
39.410        93
39.420        53
39.430        67
39.440        53
39.450        27
39.460        53
39.470        40
39.480        80
39.490        67
39.500        40
39.510        53
39.520        67
39.530        93
39.540        27
39.550        27
39.560        67
39.570        13
39.580        40
39.590        53
39.600        13
39.610        27
39.620        67
39.630        27
39.640        53
39.650        53
39.660        80
39.670       107
39.680        53
39.690       107
39.700        27
39.710        53
39.720       107
39.730        67
39.740        27
39.750        53
39.760        27
39.770        13
39.780        53
39.790        53
39.800        27
39.810        53
39.820        67
39.830        80
39.840        53
39.850        13
39.860        27
39.870        53
39.880       107
39.890        80
39.900        27
39.910        40
39.920        53
39.930        53
39.940        40
39.950        27
39.960        67
39.970        13
39.980        53
39.990        80
40.000        40
40.010        40
40.020        53
40.030        67
40.040        80
40.050        93
40.060       120
40.070        53
40.080        93
40.090        53
40.100        40
40.110        80
40.120        40
40.130        40
40.140        67
40.150        80
40.160        67
40.170        67
40.180        27
40.190        53
40.200        67
40.210        80
40.220        27
40.230        67
40.240       147
40.250       107
40.260        67
40.270        53
40.280        40
40.290        67
40.300        40
40.310        93
40.320        53
40.330        67
40.340        27
40.350        53
40.360        67
40.370        53
40.380        80
40.390        67
40.400        40
40.410        40
40.420        80
40.430        27
40.440        27
40.450        80
40.460        53
40.470        40
40.480        40
40.490        27
40.500        53
40.510        27
40.520        67
40.530        67
40.540        27
40.550        53
40.560        53
40.570        67
40.580        27
40.590        40
40.600        53
40.610        80
40.620        80
40.630        27
40.640         0
40.650       107
40.660        80
40.670        67
40.680        53
40.690        80
40.700        13
40.710        40
40.720        27
40.730        13
40.740        80
40.750        40
40.760        53
40.770        40
40.780         0
40.790        93
40.800        80
40.810        53
40.820        53
40.830        40
40.840        67
40.850        53
40.860        27
40.870        80
40.880        40
40.890        93
40.900        93
40.910        53
40.920        67
40.930        27
40.940        80
40.950        40
40.960        53
40.970        53
40.980        27
40.990        40
41.000        67
41.010        67
41.020        93
41.030        40
41.040        40
41.050        40
41.060        80
41.070        53
41.080        53
41.090        13
41.100        80
41.110        40
41.120        40
41.130        80
41.140        27
41.150        13
41.160        93
41.170        27
41.180        27
41.190        27
41.200        53
41.210        40
41.220        53
41.230         0
41.240        27
41.250        80
41.260        53
41.270        27
41.280        53
41.290        53
41.300        27
41.310        40
41.320        13
41.330        40
41.340        80
41.350        27
41.360        80
41.370        53
41.380        40
41.390        13
41.400        53
41.410        13
41.420        53
41.430        80
41.440        40
41.450        27
41.460        27
41.470       107
41.480        40
41.490        67
41.500        80
41.510        53
41.520        80
41.530        40
41.540         0
41.550        27
41.560        53
41.570        27
41.580        93
41.590        53
41.600        13
41.610        67
41.620        67
41.630        67
41.640        40
41.650        80
41.660        27
41.670        53
41.680       107
41.690        53
41.700        40
41.710        67
41.720        13
41.730        13
41.740        40
41.750       107
41.760        40
41.770        67
41.780        80
41.790        27
41.800        13
41.810        13
41.820        80
41.830        53
41.840        93
41.850        67
41.860        40
41.870        27
41.880        53
41.890        80
41.900        40
41.910        27
41.920        53
41.930        40
41.940        27
41.950        13
41.960        40
41.970        27
41.980        27
41.990        80
42.000        67
42.010         0
42.020        27
42.030        13
42.040        80
42.050        53
42.060        67
42.070        53
42.080        53
42.090        67
42.100        13
42.110        53
42.120        53
42.130        27
42.140        27
42.150        53
42.160        13
42.170        40
42.180        53
42.190        40
42.200        40
42.210        40
42.220        13
42.230        53
42.240        67
42.250        40
42.260        40
42.270         0
42.280        27
42.290        40
42.300        27
42.310        40
42.320        53
42.330        40
42.340        27
42.350        53
42.360        40
42.370        27
42.380        53
42.390        13
42.400        27
42.410        13
42.420        40
42.430         0
42.440        40
42.450        80
42.460        53
42.470        40
42.480        67
42.490        67
42.500        27
42.510        27
42.520        67
42.530        27
42.540        53
42.550        67
42.560        53
42.570        53
42.580        93
42.590        80
42.600        80
42.610        27
42.620       133
42.630        80
42.640        67
42.650        67
42.660        53
42.670        40
42.680        53
42.690        27
42.700        67
42.710        80
42.720        27
42.730        40
42.740        53
42.750        53
42.760        80
42.770        67
42.780       120
42.790        93
42.800        67
42.810        67
42.820        67
42.830        13
42.840        93
42.850        67
42.860        53
42.870        53
42.880        93
42.890        53
42.900        67
42.910        27
42.920       107
42.930        40
42.940        27
42.950        93
42.960        67
42.970        67
42.980        93
42.990         0
43.000        40
43.010        53
43.020        93
43.030        40
43.040        27
43.050        93
43.060        53
43.070        13
43.080        27
43.090        67
43.100        27
43.110        40
43.120        80
43.130        53
43.140        40
43.150        13
43.160        27
43.170        27
43.180        40
43.190        27
43.200        40
43.210        27
43.220        67
43.230        27
43.240        13
43.250        40
43.260        53
43.270        53
43.280        27
43.290        40
43.300        40
43.310        40
43.320        27
43.330        40
43.340        13
43.350        53
43.360        53
43.370        27
43.380        40
43.390        13
43.400        93
43.410        27
43.420        93
43.430        67
43.440        40
43.450         0
43.460        53
43.470        27
43.480        53
43.490        67
43.500        67
43.510        40
43.520        67
43.530        53
43.540        13
43.550        53
43.560        40
43.570        53
43.580        27
43.590        27
43.600        93
43.610        53
43.620        40
43.630        13
43.640        13
43.650        40
43.660        27
43.670        27
43.680         0
43.690        40
43.700        40
43.710        27
43.720        13
43.730        27
43.740        27
43.750        40
43.760        27
43.770         0
43.780        27
43.790        40
43.800         0
43.810        27
43.820        40
43.830        40
43.840        13
43.850        67
43.860        40
43.870        40
43.880        40
43.890        27
43.900        53
43.910        40
43.920        53
43.930        27
43.940        40
43.950        27
43.960        53
43.970        27
43.980        40
43.990        27
44.000        40
44.010        40
44.020        27
44.030        93
44.040        93
44.050        27
44.060        40
44.070        27
44.080        53
44.090        27
44.100        27
44.110        27
44.120        13
44.130        80
44.140        27
44.150        27
44.160         0
44.170        80
44.180        27
44.190        27
44.200        80
44.210        40
44.220        67
44.230        53
44.240        40
44.250        27
44.260        27
44.270        27
44.280        27
44.290        40
44.300        53
44.310        53
44.320        53
44.330        53
44.340        80
44.350        27
44.360        40
44.370        27
44.380        13
44.390        40
44.400        53
44.410        93
44.420         0
44.430        53
44.440        40
44.450        67
44.460        40
44.470        40
44.480        80
44.490        53
44.500        27
44.510        67
44.520        13
44.530        80
44.540        13
44.550        67
44.560        67
44.570        27
44.580        13
44.590        53
44.600        53
44.610        53
44.620        40
44.630        27
44.640        13
44.650        53
44.660         0
44.670        13
44.680        27
44.690        40
44.700        13
44.710        93
44.720        53
44.730        67
44.740       107
44.750        53
44.760        40
44.770        27
44.780        13
44.790        13
44.800        13
44.810        40
44.820        40
44.830        40
44.840         0
44.850        40
44.860        40
44.870        27
44.880        40
44.890        13
44.900        53
44.910        80
44.920        80
44.930        67
44.940        40
44.950        13
44.960        13
44.970        40
44.980        27
44.990        40
45.000        80
45.010        27
45.020        13
45.030        27
45.040        93
45.050        53
45.060        13
45.070        27
45.080         0
45.090        27
45.100        13
45.110        40
45.120        13
45.130        27
45.140        40
45.150        80
45.160         0
45.170        40
45.180        27
45.190        53
45.200        27
45.210        27
45.220        27
45.230        67
45.240        13
45.250        67
45.260        13
45.270        53
45.280        53
45.290        40
45.300        67
45.310        53
45.320        27
45.330        40
45.340        27
45.350        27
45.360        27
45.370        67
45.380        53
45.390        27
45.400         0
45.410        53
45.420        53
45.430        27
45.440        27
45.450        13
45.460         0
45.470        40
45.480        53
45.490        40
45.500        13
45.510        27
45.520        40
45.530        13
45.540        13
45.550        27
45.560        27
45.570        40
45.580         0
45.590         0
45.600        13
45.610        40
45.620        80
45.630        13
45.640        27
45.650        53
45.660        27
45.670        40
45.680        40
45.690        80
45.700        13
45.710        40
45.720        40
45.730        53
45.740        27
45.750        67
45.760        27
45.770        27
45.780        27
45.790        40
45.800        67
45.810        53
45.820        27
45.830        27
45.840        53
45.850        13
45.860        53
45.870        40
45.880        80
45.890        67
45.900        40
45.910        40
45.920        13
45.930        27
45.940        80
45.950        93
45.960        27
45.970        67
45.980        13
45.990        27
46.000        27
46.010        27
46.020        27
46.030        67
46.040        27
46.050        53
46.060        27
46.070        40
46.080        40
46.090        40
46.100        53
46.110        40
46.120        93
46.130        53
46.140        13
46.150        80
46.160        40
46.170        40
46.180        53
46.190        53
46.200        67
46.210        53
46.220        27
46.230        13
46.240        40
46.250        53
46.260        67
46.270        53
46.280        53
46.290        40
46.300        27
46.310        53
46.320        40
46.330        27
46.340        27
46.350        40
46.360        13
46.370        53
46.380        13
46.390        93
46.400        27
46.410        27
46.420        40
46.430        40
46.440        40
46.450        27
46.460        53
46.470        27
46.480        67
46.490        13
46.500        40
46.510        40
46.520        40
46.530        53
46.540        27
46.550        13
46.560        13
46.570        53
46.580        27
46.590        13
46.600        27
46.610        67
46.620        40
46.630        27
46.640       107
46.650        53
46.660        27
46.670        53
46.680        93
46.690        93
46.700         0
46.710        80
46.720        80
46.730        67
46.740        80
46.750        53
46.760        53
46.770        93
46.780        80
46.790        93
46.800       120
46.810       120
46.820       107
46.830       160
46.840       107
46.850        40
46.860        53
46.870        67
46.880       133
46.890        27
46.900        53
46.910        93
46.920        53
46.930        80
46.940        27
46.950        67
46.960       107
46.970        53
46.980        80
46.990        67
47.000       120
47.010        67
47.020        93
47.030       187
47.040       187
47.050       120
47.060        93
47.070       120
47.080       160
47.090       187
47.100       173
47.110       307
47.120       307
47.130       466
47.140       773
47.150       653
47.160      1013
47.170      1293
47.180      1559
47.190      1453
47.200      1906
47.210      1719
47.220      1586
47.230      1146
47.240       853
47.250       680
47.260       506
47.270       373
47.280       320
47.290       267
47.300       213
47.310       107
47.320       133
47.330       173
47.340       160
47.350       133
47.360       120
47.370       133
47.380        80
47.390        80
47.400        53
47.410       120
47.420        80
47.430        53
47.440        80
47.450       107
47.460        93
47.470        40
47.480       147
47.490       133
47.500        27
47.510        80
47.520       120
47.530        93
47.540        67
47.550        53
47.560        80
47.570        80
47.580       160
47.590        27
47.600        13
47.610        13
47.620        80
47.630        40
47.640        93
47.650        93
47.660        27
47.670        27
47.680        53
47.690        40
47.700        27
47.710        80
47.720        67
47.730        13
47.740        93
47.750       107
47.760        53
47.770        67
47.780        27
47.790        67
47.800        80
47.810        67
47.820        67
47.830        40
47.840        80
47.850        67
47.860        27
47.870        67
47.880        53
47.890        40
47.900        53
47.910        67
47.920        67
47.930        53
47.940        67
47.950        67
47.960        13
47.970        67
47.980        27
47.990        53
48.000        40
48.010        40
48.020        27
48.030        80
48.040        67
48.050        53
48.060        53
48.070        53
48.080        40
48.090         0
48.100        67
48.110        13
48.120        40
48.130        27
48.140        13
48.150        40
48.160        27
48.170        27
48.180        40
48.190        53
48.200        53
48.210        67
48.220         0
48.230        53
48.240         0
48.250        67
48.260        67
48.270        53
48.280        67
48.290        67
48.300        53
48.310        67
48.320        40
48.330        53
48.340        13
48.350        27
48.360        13
48.370        53
48.380        40
48.390        53
48.400        67
48.410        27
48.420        27
48.430        40
48.440        13
48.450        27
48.460        13
48.470        80
48.480        53
48.490        40
48.500        67
48.510        53
48.520        80
48.530        27
48.540        40
48.550        80
48.560        53
48.570        40
48.580        27
48.590        67
48.600        53
48.610        67
48.620        40
48.630        13
48.640        27
48.650        40
48.660        40
48.670        40
48.680        53
48.690        53
48.700        27
48.710        80
48.720        67
48.730        27
48.740        27
48.750        40
48.760        40
48.770        27
48.780        13
48.790        53
48.800        40
48.810        67
48.820        13
48.830        40
48.840        53
48.850        27
48.860        13
48.870        67
48.880        40
48.890        27
48.900        80
48.910        67
48.920        53
48.930        27
48.940        13
48.950        40
48.960        27
48.970        67
48.980        27
48.990        53
49.000        67
49.010        53
49.020        27
49.030        53
49.040        27
49.050        53
49.060        53
49.070        53
49.080        40
49.090        27
49.100        27
49.110        13
49.120        67
49.130        40
49.140        13
49.150        53
49.160        13
49.170        27
49.180        27
49.190         0
49.200        27
49.210        27
49.220        13
49.230        13
49.240        27
49.250        27
49.260        27
49.270        53
49.280        40
49.290        40
49.300        53
49.310        40
49.320        40
49.330        80
49.340        40
49.350        27
49.360        27
49.370         0
49.380        27
49.390        53
49.400        40
49.410        27
49.420        40
49.430        27
49.440        40
49.450        80
49.460        13
49.470        13
49.480        40
49.490        27
49.500         0
49.510        40
49.520         0
49.530        40
49.540        27
49.550        27
49.560        40
49.570        93
49.580        40
49.590        27
49.600        27
49.610        53
49.620        67
49.630        80
49.640        40
49.650        27
49.660        40
49.670        53
49.680        67
49.690        53
49.700        53
49.710        40
49.720       107
49.730        93
49.740        53
49.750        13
49.760        67
49.770        40
49.780        53
49.790        53
49.800        40
49.810        67
49.820        27
49.830        13
49.840        80
49.850        40
49.860        40
49.870         0
49.880        93
49.890        53
49.900        67
49.910        40
49.920        13
49.930        67
49.940        27
49.950         0
49.960        67
49.970        13
49.980        13
49.990        53
50.000        67
50.010        27
50.020        40
50.030        93
50.040        53
50.050        13
50.060        40
50.070        40
50.080        93
50.090        67
50.100        53
50.110        80
50.120        27
50.130        27
50.140        27
50.150        27
50.160        40
50.170        53
50.180        53
50.190        80
50.200        27
50.210        67
50.220        53
50.230        80
50.240        13
50.250        40
50.260        53
50.270         0
50.280        53
50.290        67
50.300        40
50.310        67
50.320        67
50.330        27
50.340        40
50.350        27
50.360        40
50.370        27
50.380        13
50.390        40
50.400        13
50.410        40
50.420        67
50.430        80
50.440        93
50.450        13
50.460        93
50.470        53
50.480        13
50.490        27
50.500        40
50.510        53
50.520        13
50.530        67
50.540        67
50.550        40
50.560        53
50.570        67
50.580        53
50.590        40
50.600       120
50.610        67
50.620       107
50.630       120
50.640       160
50.650       120
50.660       293
50.670       227
50.680       293
50.690       373
50.700       387
50.710       320
50.720       413
50.730       453
50.740       227
50.750       307
50.760       426
50.770       387
50.780       440
50.790       480
50.800       307
50.810       400
50.820       546
50.830       506
50.840       387
50.850       413
50.860       533
50.870       533
50.880       426
50.890       400
50.900       453
50.910       493
50.920       480
50.930       360
50.940       480
50.950       360
50.960       426
50.970       586
50.980       426
50.990       360
51.000       320
51.010       387
51.020       493
51.030       466
51.040       347
51.050       413
51.060       400
51.070       347
51.080       400
51.090       560
51.100       466
51.110       293
51.120       440
51.130       413
51.140       466
51.150       440
51.160       466
51.170       426
51.180       413
51.190       387
51.200       440
51.210       426
51.220       493
51.230       253
51.240       333
51.250       373
51.260       520
51.270       560
51.280       413
51.290       533
51.300       426
51.310       267
51.320       440
51.330       413
51.340       533
51.350       333
51.360       493
51.370       426
51.380       347
51.390       320
51.400       506
51.410       426
51.420       373
51.430       413
51.440       453
51.450       466
51.460       426
51.470       440
51.480       426
51.490       533
51.500       387
51.510       506
51.520       440
51.530       413
51.540       573
51.550       573
51.560       600
51.570       506
51.580       347
51.590       613
51.600       360
51.610       347
51.620       573
51.630       573
51.640       360
51.650       506
51.660       520
51.670       520
51.680       480
51.690       493
51.700       600
51.710       586
51.720       586
51.730       480
51.740       573
51.750       453
51.760       586
51.770       640
51.780       520
51.790       440
51.800       666
51.810       680
51.820       586
51.830       680
51.840       466
51.850       426
51.860       533
51.870       320
51.880       586
51.890       680
51.900       493
51.910       666
51.920       560
51.930       533
51.940       600
51.950       640
51.960       733
51.970       786
51.980       653
51.990       733
52.000       720
52.010       640
52.020       786
52.030       693
52.040       760
52.050       666
52.060       666
52.070       773
52.080       826
52.090       600
52.100       840
52.110       613
52.120       840
52.130       813
52.140       893
52.150       786
52.160      1146
52.170       946
52.180       746
52.190       853
52.200      1200
52.210      1253
52.220      1266
52.230      1133
52.240      1373
52.250      1160
52.260      1546
52.270      1439
52.280      1839
52.290      2199
52.300      2572
52.310      2439
52.320      2906
52.330      3345
52.340      3572
52.350      4238
52.360      4358
52.370      5251
52.380      5451
52.390      6384
52.400      7304
52.410      8063
52.420      9130
52.430      9303
52.440      9543
52.450     10796
52.460      2439
52.470     12928
52.480     13874
52.490     15820
52.500     18299
52.510     23671
52.520     29908
52.530     41517
52.540     62455
52.550     93163
52.560    126776
52.570    154898
52.580    172051
52.590    181661
52.600    183260
52.610    175676
52.620    160176
52.630    130601
52.640     96481
52.650     69919
52.660     53192
52.670     47848
52.680     52846
52.690     62975
52.700     79448
52.710     94349
52.720    102319
52.730    107850
52.740    110156
52.750    105158
52.760     90510
52.770     73237
52.780     51406
52.790     36359
52.800     25283
52.810     17513
52.820     13888
52.830     11622
52.840      9436
52.850      8250
52.860      7717
52.870      6198
52.880      5438
52.890      4505
52.900      4078
52.910      3412
52.920      2919
52.930      2746
52.940      2319
52.950      2092
52.960      2252
52.970      1799
52.980      1786
52.990      1613
53.000      1693
53.010      1493
53.020      1333
53.030      1426
53.040      1200
53.050      1200
53.060      1306
53.070       960
53.080      1000
53.090       986
53.100       986
53.110       973
53.120       826
53.130      1013
53.140      1053
53.150       840
53.160       666
53.170       853
53.180       626
53.190       800
53.200       813
53.210       786
53.220       733
53.230       760
53.240       680
53.250       786
53.260       760
53.270       746
53.280       626
53.290       800
53.300       573
53.310       666
53.320       786
53.330       693
53.340       746
53.350       626
53.360       440
53.370       573
53.380       493
53.390       586
53.400       546
53.410       440
53.420       493
53.430       586
53.440       720
53.450       520
53.460       520
53.470       626
53.480       466
53.490       586
53.500       440
53.510       453
53.520       573
53.530       426
53.540       560
53.550       413
53.560       506
53.570       347
53.580       466
53.590       546
53.600       387
53.610       520
53.620       600
53.630       440
53.640       480
53.650       546
53.660       387
53.670       400
53.680       387
53.690       307
53.700       280
53.710       480
53.720       466
53.730       653
53.740       480
53.750       387
53.760       333
53.770       466
53.780       413
53.790       413
53.800       440
53.810       466
53.820       387
53.830       360
53.840       360
53.850       360
53.860       333
53.870       413
53.880       440
53.890       373
53.900       466
53.910       400
53.920       373
53.930       333
53.940       413
53.950       333
53.960       426
53.970       387
53.980       426
53.990       333
54.000       280
54.010       387
54.020       347
54.030       373
54.040       360
54.050       280
54.060       373
54.070       387
54.080       307
54.090       360
54.100       387
54.110       320
54.120       387
54.130       240
54.140       307
54.150       440
54.160       280
54.170       440
54.180       293
54.190       453
54.200       413
54.210       493
54.220       360
54.230       387
54.240       360
54.250       360
54.260       347
54.270       307
54.280       347
54.290       307
54.300       240
54.310       360
54.320       360
54.330       307
54.340       253
54.350       387
54.360       293
54.370       307
54.380       347
54.390       387
54.400       253
54.410       320
54.420       240
54.430       267
54.440       347
54.450       253
54.460       307
54.470       347
54.480       280
54.490       267
54.500       333
54.510       267
54.520       280
54.530       293
54.540       160
54.550       280
54.560       280
54.570       227
54.580       280
54.590       400
54.600       320
54.610       347
54.620       267
54.630       280
54.640       267
54.650       253
54.660       280
54.670       307
54.680       267
54.690       387
54.700       253
54.710       413
54.720       426
54.730       240
54.740       227
54.750       267
54.760       347
54.770       280
54.780       267
54.790       267
54.800       213
54.810       413
54.820       320
54.830       347
54.840       147
54.850       320
54.860       320
54.870       307
54.880       213
54.890       307
54.900       227
54.910       280
54.920       373
54.930       227
54.940       267
54.950       280
54.960       333
54.970       267
54.980       187
54.990       227
55.000       213
55.010       307
55.020       240
55.030       293
55.040       253
55.050       293
55.060       133
55.070       213
55.080       187
55.090       267
55.100       360
55.110       267
55.120       307
55.130       267
55.140       280
55.150       200
55.160       347
55.170       213
55.180       293
55.190       173
55.200       133
55.210       200
55.220       213
55.230       293
55.240       293
55.250       333
55.260       253
55.270       213
55.280       227
55.290       187
55.300       307
55.310       227
55.320       253
55.330       280
55.340       240
55.350       267
55.360       240
55.370       227
55.380       320
55.390       320
55.400       240
55.410       253
55.420       253
55.430       160
55.440       333
55.450       307
55.460       267
55.470       267
55.480       280
55.490       293
55.500       240
55.510       240
55.520       253
55.530       360
55.540       293
55.550       213
55.560       253
55.570       320
55.580       173
55.590       133
55.600       280
55.610       187
55.620       227
55.630       227
55.640       160
55.650       160
55.660       253
55.670       320
55.680       213
55.690       280
55.700       107
55.710       200
55.720       253
55.730       227
55.740       267
55.750       213
55.760       227
55.770       187
55.780       133
55.790       280
55.800       293
55.810       307
55.820       240
55.830       187
55.840       227
55.850       240
55.860       213
55.870       227
55.880       347
55.890       267
55.900       267
55.910       200
55.920       200
55.930       160
55.940       347
55.950       333
55.960       347
55.970       280
55.980       200
55.990       200
56.000       227
56.010       227
56.020       280
56.030       147
56.040       253
56.050       240
56.060       267
56.070       466
56.080       253
56.090       187
56.100       240
56.110       173
56.120       160
56.130       120
56.140       307
56.150       253
56.160       227
56.170       187
56.180       293
56.190       173
56.200       240
56.210       333
56.220       173
56.230       280
56.240       213
56.250       227
56.260       240
56.270       253
56.280       160
56.290       253
56.300       293
56.310       240
56.320       347
56.330       147
56.340       240
56.350       173
56.360       160
56.370       213
56.380       213
56.390       360
56.400       227
56.410       387
56.420       160
56.430       213
56.440       240
56.450       267
56.460       187
56.470       240
56.480       187
56.490       280
56.500       280
56.510       280
56.520       333
56.530       147
56.540       320
56.550       240
56.560       173
56.570       320
56.580       333
56.590       240
56.600       120
56.610       147
56.620       227
56.630       320
56.640       227
56.650       267
56.660       280
56.670       160
56.680       227
56.690       147
56.700       280
56.710       307
56.720       133
56.730       160
56.740       267
56.750       227
56.760       253
56.770       160
56.780       213
56.790       173
56.800       187
56.810       133
56.820       213
56.830       227
56.840       147
56.850       187
56.860       320
56.870       253
56.880       133
56.890       133
56.900       120
56.910       200
56.920       280
56.930       173
56.940       240
56.950       227
56.960       160
56.970       307
56.980       213
56.990       293
57.000       133
57.010       173
57.020       173
57.030       173
57.040        93
57.050       173
57.060       187
57.070       213
57.080       147
57.090       267
57.100       173
57.110       200
57.120       213
57.130       173
57.140       293
57.150       173
57.160       160
57.170       227
57.180       187
57.190       187
57.200       187
57.210       187
57.220       213
57.230       133
57.240       120
57.250       173
57.260       267
57.270       160
57.280       187
57.290       160
57.300       107
57.310       147
57.320       253
57.330       107
57.340       200
57.350       147
57.360       147
57.370       240
57.380       173
57.390       240
57.400        93
57.410       160
57.420       267
57.430       147
57.440       227
57.450       253
57.460        93
57.470       293
57.480       240
57.490       213
57.500       200
57.510       200
57.520       200
57.530       200
57.540       147
57.550       173
57.560       173
57.570       307
57.580       120
57.590       173
57.600       200
57.610       240
57.620       187
57.630       200
57.640       187
57.650       160
57.660       213
57.670       240
57.680       147
57.690       253
57.700       200
57.710       133
57.720       293
57.730       120
57.740       187
57.750       293
57.760       173
57.770       187
57.780       173
57.790       173
57.800       120
57.810        93
57.820       253
57.830        93
57.840       107
57.850       120
57.860       107
57.870       147
57.880       200
57.890       213
57.900       227
57.910       120
57.920       173
57.930       173
57.940       133
57.950       160
57.960       133
57.970       133
57.980       133
57.990       213
58.000       187
58.010       160
58.020       200
58.030       187
58.040       147
58.050       160
58.060        67
58.070       173
58.080       173
58.090       133
58.100       133
58.110       173
58.120       133
58.130       160
58.140       187
58.150       213
58.160       213
58.170       200
58.180       173
58.190       173
58.200       227
58.210       213
58.220       227
58.230       240
58.240       227
58.250       187
58.260       107
58.270       253
58.280       187
58.290       173
58.300       173
58.310       120
58.320       133
58.330       107
58.340       147
58.350       227
58.360       147
58.370       200
58.380       133
58.390       173
58.400       187
58.410       160
58.420       107
58.430       227
58.440       133
58.450        93
58.460       120
58.470       133
58.480       213
58.490       213
58.500       133
58.510       173
58.520       187
58.530       107
58.540       120
58.550       160
58.560       267
58.570       133
58.580       133
58.590       120
58.600       160
58.610       253
58.620       267
58.630        93
58.640       213
58.650       120
58.660       187
58.670        93
58.680       160
58.690       147
58.700       120
58.710        80
58.720       187
58.730       133
58.740       107
58.750       187
58.760        80
58.770       213
58.780       187
58.790       133
58.800       160
58.810       147
58.820       107
58.830       107
58.840       107
58.850       147
58.860       133
58.870       107
58.880        80
58.890       200
58.900       107
58.910       147
58.920        93
58.930       227
58.940       253
58.950       120
58.960        93
58.970       240
58.980       253
58.990       147
59.000       120
59.010       133
59.020       133
59.030        53
59.040        93
59.050       173
59.060        93
59.070       120
59.080       187
59.090       213
59.100       107
59.110       160
59.120       173
59.130       160
59.140       133
59.150       107
59.160        93
59.170       240
59.180       160
59.190        53
59.200       200
59.210       107
59.220       107
59.230       173
59.240       213
59.250       107
59.260       173
59.270        93
59.280       160
59.290       133
59.300        93
59.310       160
59.320       120
59.330       160
59.340       147
59.350       147
59.360       120
59.370        67
59.380       173
59.390       160
59.400       147
59.410        93
59.420        93
59.430       160
59.440       173
59.450       160
59.460       133
59.470        67
59.480        80
59.490       200
59.500       120
59.510       107
59.520       107
59.530        67
59.540       173
59.550       120
59.560       133
59.570       187
59.580       147
59.590       120
59.600        53
59.610        67
59.620       133
59.630       120
59.640       120
59.650        93
59.660       200
59.670        67
59.680       253
59.690       173
59.700        93
59.710       107
59.720       187
59.730       107
59.740       173
59.750       133
59.760       173
59.770       213
59.780        80
59.790       227
59.800       133
59.810        80
59.820        80
59.830        93
59.840       147
59.850        40
59.860       107
59.870        67
59.880       133
59.890       107
59.900       107
59.910       133
59.920        80
59.930       107
59.940        80
59.950       147
59.960       147
59.970        40
59.980        80
59.990         0
60.000         0
