20.000        27
20.010        33
20.020        53
20.030        40
20.040        33
20.050        73
20.060        40
20.070        67
20.080        73
20.090       100
20.100       107
20.110        73
20.120        40
20.130        60
20.140        60
20.150       107
20.160        33
20.170        27
20.180        60
20.190        67
20.200        27
20.210        40
20.220        47
20.230        20
20.240        33
20.250        47
20.260        67
20.270        40
20.280        80
20.290        67
20.300        73
20.310        80
20.320        40
20.330        20
20.340        47
20.350        33
20.360        40
20.370        53
20.380        27
20.390        87
20.400        47
20.410        47
20.420        20
20.430        60
20.440        53
20.450        27
20.460        40
20.470        60
20.480        33
20.490        40
20.500        33
20.510        60
20.520        60
20.530        27
20.540        47
20.550        53
20.560        40
20.570        47
20.580        33
20.590        47
20.600        67
20.610        40
20.620        27
20.630        53
20.640        53
20.650        53
20.660        47
20.670        27
20.680        40
20.690        53
20.700        33
20.710        40
20.720        33
20.730        60
20.740        47
20.750        47
20.760        67
20.770        40
20.780        73
20.790        33
20.800        73
20.810        53
20.820        40
20.830        60
20.840        33
20.850        73
20.860        73
20.870        67
20.880        73
20.890        33
20.900        20
20.910        53
20.920        60
20.930        20
20.940        60
20.950        47
20.960        47
20.970        27
20.980        47
20.990        60
21.000        27
21.010        73
21.020        80
21.030        27
21.040        33
21.050        27
21.060        20
21.070        40
21.080        33
21.090        47
21.100        20
21.110        33
21.120        87
21.130        47
21.140        13
21.150        33
21.160        33
21.170        47
21.180        20
21.190        73
21.200        27
21.210        67
21.220        60
21.230        33
21.240        33
21.250        47
21.260        33
21.270        33
21.280        33
21.290        40
21.300        20
21.310        40
21.320        33
21.330        67
21.340        73
21.350        47
21.360        47
21.370        27
21.380        27
21.390        27
21.400        27
21.410        40
21.420        60
21.430        27
21.440        13
21.450        40
21.460        40
21.470        40
21.480        53
21.490        33
21.500        47
21.510        27
21.520        47
21.530        33
21.540        27
21.550        33
21.560        53
21.570        27
21.580        33
21.590        27
21.600        73
21.610        67
21.620        27
21.630        47
21.640        60
21.650        27
21.660        33
21.670        47
21.680        20
21.690        40
21.700        20
21.710        53
21.720        53
21.730        53
21.740        53
21.750        47
21.760        27
21.770        80
21.780        47
21.790        40
21.800        33
21.810        27
21.820        40
21.830        20
21.840        60
21.850        40
21.860        40
21.870        40
21.880        47
21.890        73
21.900        20
21.910        20
21.920         7
21.930        53
21.940        33
21.950        20
21.960        47
21.970        40
21.980        40
21.990        40
22.000        60
22.010        27
22.020        13
22.030        53
22.040        27
22.050        27
22.060        27
22.070        27
22.080        13
22.090        33
22.100        27
22.110        27
22.120        73
22.130        40
22.140        67
22.150        67
22.160        47
22.170        53
22.180        40
22.190        40
22.200        93
22.210        60
22.220        40
22.230       113
22.240        47
22.250        80
22.260        87
22.270        53
22.280       133
22.290       133
22.300       120
22.310        73
22.320       133
22.330       113
22.340       120
22.350       207
22.360       187
22.370       133
22.380       167
22.390       200
22.400       233
22.410       240
22.420       227
22.430       340
22.440       360
22.450       300
22.460       446
22.470       380
22.480       500
22.490       506
22.500       400
22.510       353
22.520       440
22.530       473
22.540       353
22.550       367
22.560       300
22.570       287
22.580       260
22.590       220
22.600       253
22.610       200
22.620       207
22.630       173
22.640       107
22.650        47
22.660       100
22.670        67
22.680       100
22.690       153
22.700        47
22.710        53
22.720        60
22.730        67
22.740        20
22.750        33
22.760        60
22.770        60
22.780        40
22.790        80
22.800        53
22.810        60
22.820        93
22.830        33
22.840        60
22.850        40
22.860        80
22.870        53
22.880        33
22.890        80
22.900        67
22.910        73
22.920        33
22.930        53
22.940        20
22.950        67
22.960        33
22.970        33
22.980        60
22.990        67
23.000        80
23.010        47
23.020        47
23.030        47
23.040        47
23.050        40
23.060        27
23.070        60
23.080        33
23.090        33
23.100        80
23.110        53
23.120        80
23.130        53
23.140        47
23.150        13
23.160        40
23.170        40
23.180        33
23.190        47
23.200        27
23.210        40
23.220        27
23.230        47
23.240        20
23.250        33
23.260        27
23.270        20
23.280        47
23.290        40
23.300        87
23.310        47
23.320         7
23.330        40
23.340        13
23.350        27
23.360        33
23.370        67
23.380        60
23.390        27
23.400        40
23.410        67
23.420        53
23.430        47
23.440        27
23.450        53
23.460        47
23.470        33
23.480        40
23.490        67
23.500        33
23.510        53
23.520        13
23.530        40
23.540        33
23.550        33
23.560        13
23.570        60
23.580        33
23.590        13
23.600        20
23.610        67
23.620        27
23.630        20
23.640        40
23.650        27
23.660        47
23.670        20
23.680        93
23.690        40
23.700        27
23.710        27
23.720        73
23.730        60
23.740        27
23.750        27
23.760        27
23.770        27
23.780        27
23.790        47
23.800        27
23.810        40
23.820        33
23.830        60
23.840        40
23.850        27
23.860        20
23.870        40
23.880        33
23.890        33
23.900        47
23.910        13
23.920        27
23.930        20
23.940        53
23.950        27
23.960        20
23.970        13
23.980        47
23.990        33
24.000        53
24.010        13
24.020         0
24.030        20
24.040        20
24.050        27
24.060        13
24.070        53
24.080        13
24.090         7
24.100        47
24.110        33
24.120        40
24.130        40
24.140        27
24.150        47
24.160        13
24.170        60
24.180        33
24.190        33
24.200        40
24.210        27
24.220        47
24.230        27
24.240        27
24.250        33
24.260        20
24.270        40
24.280        60
24.290        20
24.300         7
24.310        47
24.320        40
24.330        33
24.340        20
24.350        40
24.360        13
24.370        20
24.380        33
24.390        27
24.400         7
24.410        40
24.420        27
24.430        27
24.440         7
24.450        40
24.460        47
24.470        33
24.480        40
24.490        20
24.500        60
24.510        27
24.520        33
24.530        40
24.540        27
24.550         7
24.560        20
24.570        13
24.580        20
24.590        13
24.600        73
24.610        53
24.620        40
24.630        33
24.640        13
24.650        13
24.660        27
24.670        53
24.680        27
24.690        60
24.700        33
24.710        27
24.720        27
24.730        33
24.740        60
24.750        60
24.760        53
24.770        40
24.780        47
24.790        27
24.800        60
24.810        60
24.820        47
24.830        60
24.840        33
24.850        40
24.860        33
24.870        27
24.880        47
24.890        40
24.900        73
24.910         7
24.920        60
24.930        60
24.940        20
24.950        53
24.960        47
24.970        13
24.980        13
24.990        20
25.000        13
25.010        27
25.020        67
25.030        47
25.040        67
25.050        40
25.060        20
25.070        33
25.080        47
25.090        40
25.100        47
25.110        47
25.120        67
25.130        33
25.140        87
25.150        33
25.160        53
25.170        60
25.180        73
25.190        27
25.200        47
25.210       113
25.220        40
25.230        27
25.240        40
25.250        33
25.260        53
25.270        73
25.280        53
25.290        40
25.300        67
25.310        40
25.320        20
25.330        40
25.340        27
25.350        20
25.360        33
25.370        20
25.380        73
25.390        60
25.400        60
25.410        33
25.420        20
25.430        53
25.440        33
25.450        60
25.460        33
25.470        27
25.480        27
25.490        73
25.500        53
25.510        73
25.520        53
25.530        93
25.540        80
25.550        67
25.560        87
25.570        60
25.580        80
25.590        93
25.600        67
25.610        87
25.620       113
25.630       153
25.640       120
25.650       167
25.660       240
25.670       173
25.680       153
25.690       347
25.700       247
25.710       280
25.720       273
25.730       220
25.740       313
25.750       253
25.760       220
25.770       240
25.780       167
25.790       207
25.800       187
25.810       227
25.820       120
25.830       100
25.840       160
25.850       100
25.860       107
25.870        67
25.880        93
25.890        47
25.900        60
25.910        53
25.920        33
25.930        60
25.940        47
25.950        80
25.960        33
25.970        60
25.980        27
25.990        13
26.000        47
26.010        67
26.020        40
26.030        20
26.040        33
26.050        20
26.060        33
26.070        40
26.080        33
26.090        27
26.100        47
26.110        47
26.120        13
26.130        27
26.140        47
26.150        47
26.160        27
26.170        40
26.180         7
26.190         7
26.200        13
26.210        60
26.220        20
26.230        27
26.240        47
26.250         7
26.260        20
26.270        13
26.280        47
26.290        40
26.300        40
26.310        40
26.320        13
26.330        33
26.340        20
26.350        27
26.360        47
26.370        47
26.380        33
26.390         7
26.400        20
26.410        47
26.420        53
26.430        33
26.440        13
26.450        47
26.460        33
26.470        40
26.480        33
26.490         7
26.500        27
26.510        40
26.520        20
26.530        13
26.540        33
26.550        33
26.560        53
26.570        13
26.580        13
26.590        60
26.600        27
26.610        13
26.620        13
26.630        20
26.640        53
26.650        47
26.660        33
26.670        47
26.680        27
26.690        47
26.700        20
26.710        20
26.720        33
26.730        40
26.740        20
26.750        33
26.760        47
26.770        13
26.780        20
26.790        53
26.800        13
26.810        20
26.820        40
26.830        20
26.840        13
26.850        33
26.860        33
26.870        13
26.880        40
26.890        53
26.900        13
26.910        33
26.920        40
26.930         7
26.940        20
26.950        20
26.960        20
26.970        20
26.980        40
26.990        40
27.000        40
27.010        20
27.020        27
27.030        13
27.040        33
27.050        33
27.060        27
27.070        20
27.080        27
27.090        13
27.100        47
27.110        33
27.120        20
27.130        27
27.140        20
27.150        20
27.160        13
27.170        20
27.180        13
27.190        27
27.200        13
27.210        40
27.220        27
27.230        13
27.240        13
27.250         7
27.260        27
27.270        47
27.280        20
27.290        27
27.300        27
27.310        60
27.320        40
27.330        20
27.340        60
27.350        27
27.360        40
27.370        27
27.380        40
27.390        60
27.400        27
27.410        53
27.420        40
27.430        47
27.440        53
27.450        33
27.460        33
27.470        33
27.480        13
27.490         7
27.500        53
27.510        27
27.520        20
27.530        27
27.540        67
27.550        27
27.560        27
27.570         7
27.580        60
27.590        20
27.600        40
27.610        33
27.620        47
27.630        67
27.640        27
27.650        33
27.660        33
27.670        40
27.680        20
27.690        33
27.700        33
27.710        20
27.720         0
27.730        33
27.740        27
27.750        13
27.760        53
27.770        20
27.780        53
27.790        40
27.800        33
27.810        33
27.820        33
27.830        27
27.840        40
27.850        47
27.860        33
27.870        13
27.880        20
27.890        13
27.900        33
27.910        20
27.920         0
27.930         7
27.940        13
27.950        33
27.960        27
27.970        20
27.980        33
27.990        33
28.000        13
28.010        47
28.020        60
28.030        20
28.040        13
28.050        27
28.060        40
28.070        27
28.080        73
28.090        47
28.100        20
28.110        20
28.120        53
28.130        20
28.140        27
28.150        47
28.160        40
28.170        40
28.180        53
28.190        20
28.200        60
28.210        47
28.220        27
28.230        40
28.240        13
28.250        33
28.260        53
28.270        40
28.280        60
28.290        27
28.300        60
28.310        33
28.320        47
28.330        33
28.340        27
28.350        27
28.360        67
28.370        33
28.380        20
28.390        27
28.400        33
28.410        27
28.420        27
28.430        20
28.440        33
28.450         0
28.460        13
28.470        40
28.480        33
28.490        53
28.500        60
28.510        13
28.520        33
28.530        20
28.540        20
28.550        47
28.560        60
28.570        53
28.580        40
28.590        40
28.600        60
28.610        47
28.620        67
28.630        40
28.640        73
28.650        60
28.660        67
28.670        93
28.680        27
28.690        67
28.700        40
28.710        53
28.720        67
28.730        53
28.740        47
28.750        47
28.760        87
28.770        47
28.780        73
28.790        80
28.800        60
28.810        47
28.820        60
28.830        33
28.840        47
28.850        47
28.860        80
28.870       120
28.880        93
28.890       113
28.900       133
28.910       160
28.920       133
28.930       113
28.940       127
28.950       140
28.960       193
28.970       220
28.980       180
28.990       207
29.000       233
29.010       200
29.020       300
29.030       287
29.040       327
29.050       333
29.060       347
29.070       407
29.080       347
29.090       500
29.100       380
29.110       460
29.120       440
29.130       407
29.140       380
29.150       440
29.160       466
29.170       307
29.180       340
29.190       400
29.200       287
29.210       280
29.220       193
29.230       267
29.240       207
29.250       213
29.260       173
29.270       133
29.280       133
29.290       120
29.300       107
29.310       100
29.320       113
29.330        93
29.340        80
29.350       113
29.360       120
29.370       140
29.380        80
29.390        80
29.400       127
29.410       153
29.420       120
29.430       113
29.440       160
29.450       160
29.460       193
29.470       200
29.480       193
29.490       193
29.500       167
29.510       207
29.520       353
29.530       233
29.540       280
29.550       260
29.560       353
29.570       333
29.580       273
29.590       300
29.600       227
29.610       360
29.620       207
29.630       200
29.640       227
29.650       180
29.660       133
29.670       193
29.680       127
29.690       120
29.700        93
29.710        80
29.720       113
29.730       107
29.740       120
29.750       100
29.760       107
29.770        80
29.780        60
29.790        47
29.800        47
29.810         0
29.820        53
29.830        47
29.840        27
29.850        27
29.860        33
29.870        27
29.880        40
29.890        27
29.900        20
29.910        27
29.920        13
29.930        27
29.940        47
29.950        33
29.960        67
29.970        33
29.980        27
29.990        40
30.000        53
30.010        33
30.020        27
30.030        40
30.040         7
30.050        47
30.060        13
30.070        13
30.080        27
30.090        53
30.100        40
30.110        33
30.120        13
30.130        73
30.140        40
30.150        47
30.160        40
30.170        73
30.180        73
30.190        80
30.200        60
30.210        47
30.220        73
30.230       107
30.240        80
30.250       127
30.260       127
30.270       113
30.280       120
30.290       160
30.300       213
30.310       133
30.320       147
30.330       233
30.340       253
30.350       207
30.360       127
30.370       253
30.380       233
30.390       160
30.400       300
30.410       253
30.420       140
30.430       193
30.440       153
30.450       100
30.460       147
30.470        80
30.480       100
30.490       107
30.500       113
30.510        73
30.520        73
30.530       107
30.540        67
30.550       107
30.560        47
30.570        47
30.580        27
30.590        20
30.600        40
30.610        33
30.620        47
30.630        27
30.640        67
30.650        40
30.660        27
30.670        40
30.680        40
30.690        27
30.700        20
30.710        27
30.720        27
30.730        40
30.740         0
30.750         7
30.760        13
30.770        40
30.780        40
30.790        20
30.800        13
30.810        53
30.820        47
30.830        27
30.840        33
30.850        20
30.860        27
30.870        20
30.880        13
30.890        20
30.900        33
30.910        33
30.920        27
30.930        33
30.940        20
30.950        33
30.960        40
30.970        33
30.980         7
30.990        13
31.000        20
31.010        33
31.020        47
31.030        40
31.040        27
31.050        53
31.060        40
31.070        33
31.080        20
31.090         7
31.100         7
31.110        33
31.120        20
31.130        27
31.140        27
31.150        73
31.160        40
31.170        67
31.180        33
31.190        40
31.200        60
31.210        47
31.220        33
31.230        47
31.240        33
31.250        53
31.260        20
31.270        47
31.280        53
31.290        40
31.300        47
31.310        47
31.320        20
31.330        53
31.340        20
31.350        40
31.360        53
31.370        20
31.380        53
31.390        60
31.400        53
31.410        60
31.420        53
31.430        13
31.440        73
31.450        60
31.460        80
31.470        53
31.480        60
31.490       107
31.500       100
31.510        87
31.520        40
31.530       120
31.540        80
31.550       133
31.560        93
31.570        80
31.580       173
31.590        87
31.600        73
31.610       120
31.620       140
31.630        87
31.640        93
31.650       113
31.660        73
31.670       120
31.680       120
31.690        87
31.700        53
31.710       120
31.720       100
31.730        80
31.740        93
31.750        73
31.760        60
31.770       100
31.780       107
31.790        73
31.800        33
31.810        53
31.820       100
31.830        27
31.840        60
31.850        67
31.860        60
31.870        73
31.880        47
31.890        47
31.900        47
31.910        47
31.920        47
31.930        93
31.940        20
31.950        47
31.960        47
31.970        80
31.980        87
31.990        87
32.000        87
32.010        67
32.020       113
32.030        53
32.040       127
32.050       107
32.060       120
32.070       127
32.080       167
32.090       127
32.100       113
32.110       120
32.120       167
32.130       107
32.140       100
32.150       120
32.160       100
32.170       173
32.180       160
32.190        73
32.200        60
32.210        93
32.220        67
32.230        40
32.240       100
32.250        53
32.260        40
32.270        40
32.280        53
32.290        60
32.300        53
32.310        47
32.320        27
32.330        40
32.340        33
32.350        33
32.360        20
32.370        27
32.380        27
32.390        33
32.400        60
32.410         7
32.420        33
32.430        33
32.440        27
32.450        27
32.460        27
32.470        20
32.480        27
32.490        20
32.500        40
32.510        13
32.520        33
32.530        20
32.540        27
32.550        40
32.560        60
32.570        20
32.580        47
32.590        27
32.600        47
32.610        53
32.620        40
32.630        33
32.640        47
32.650        27
32.660        47
32.670        40
32.680        27
32.690        67
32.700        47
32.710        47
32.720        60
32.730        13
32.740        47
32.750        20
32.760        93
32.770        60
32.780        53
32.790        60
32.800        40
32.810        47
32.820        33
32.830        40
32.840        47
32.850        33
32.860        20
32.870        13
32.880        20
32.890        20
32.900        33
32.910        40
32.920        27
32.930        53
32.940        20
32.950        20
32.960        20
32.970        20
32.980        40
32.990         7
33.000        13
33.010        27
33.020        33
33.030        27
33.040        20
33.050         7
33.060        27
33.070        20
33.080         7
33.090        27
33.100         7
33.110        20
33.120        20
33.130        13
33.140         7
33.150        27
33.160        13
33.170        33
33.180        20
33.190        13
33.200        20
33.210        27
33.220         7
33.230        20
33.240        40
33.250        27
33.260        13
33.270        40
33.280        20
33.290        60
33.300        33
33.310        13
33.320        20
33.330         0
33.340        27
33.350        33
33.360         7
33.370        27
33.380        20
33.390        27
33.400        20
33.410        13
33.420        13
33.430        20
33.440        20
33.450        20
33.460        20
33.470        13
33.480        20
33.490        13
33.500        27
33.510        20
33.520        27
33.530        20
33.540        27
33.550        40
33.560        27
33.570         0
33.580        13
33.590        13
33.600        27
33.610        13
33.620         7
33.630         7
33.640         7
33.650        13
33.660         7
33.670        13
33.680         7
33.690        27
33.700        20
33.710        47
33.720        20
33.730        27
33.740        20
33.750         7
33.760        27
33.770         0
33.780         0
33.790        20
33.800        33
33.810         7
33.820        40
33.830        20
33.840         7
33.850        20
33.860        33
33.870        33
33.880        53
33.890        33
33.900        27
33.910         0
33.920        20
33.930        27
33.940        20
33.950        13
33.960        27
33.970        33
33.980         7
33.990        20
34.000        20
34.010        27
34.020        20
34.030        20
34.040        20
34.050        13
34.060        20
34.070         7
34.080         7
34.090        33
34.100        20
34.110        20
34.120        27
34.130         7
34.140        13
34.150        53
34.160        27
34.170        27
34.180        13
34.190        27
34.200        20
34.210        27
34.220        27
34.230        27
34.240        13
34.250         7
34.260         7
34.270        13
34.280         0
34.290        20
34.300        13
34.310        27
34.320        27
34.330        27
34.340        20
34.350        20
34.360        27
34.370        33
34.380        40
34.390        20
34.400         7
34.410        20
34.420        67
34.430        53
34.440         7
34.450        33
34.460        53
34.470        27
34.480        40
34.490        13
34.500        13
34.510         7
34.520        27
34.530        27
34.540        27
34.550        20
34.560        40
34.570        27
34.580        33
34.590        20
34.600        33
34.610        33
34.620        40
34.630        33
34.640        20
34.650        27
34.660        27
34.670         7
34.680         7
34.690        13
34.700        27
34.710        40
34.720        13
34.730        20
34.740         7
34.750        20
34.760        27
34.770        27
34.780        33
34.790        40
34.800        20
34.810        13
34.820         7
34.830        27
34.840         0
34.850        13
34.860        33
34.870        13
34.880         7
34.890        13
34.900         7
34.910        13
34.920        13
34.930        33
34.940         7
34.950        13
34.960        27
34.970        13
34.980        13
34.990        27
35.000         7
35.010        47
35.020        27
35.030        40
35.040        20
35.050        20
35.060        13
35.070        13
35.080        13
35.090        27
35.100         0
35.110        20
35.120        13
35.130        27
35.140        13
35.150        20
35.160        13
35.170        33
35.180         7
35.190        20
35.200        27
35.210        33
35.220         7
35.230        27
35.240        47
35.250        13
35.260         7
35.270        20
35.280        27
35.290        20
35.300         7
35.310        20
35.320        27
35.330        33
35.340        13
35.350         0
35.360        20
35.370        20
35.380        40
35.390        13
35.400        33
35.410        20
35.420        27
35.430        20
35.440        13
35.450         0
35.460        20
35.470        33
35.480        20
35.490        33
35.500        27
35.510         7
35.520        33
35.530        27
35.540        13
35.550        27
35.560        47
35.570        20
35.580        20
35.590        27
35.600        47
35.610        20
35.620        33
35.630        27
35.640        33
35.650         7
35.660        27
35.670        47
35.680        20
35.690        13
35.700        27
35.710        13
35.720         7
35.730        40
35.740        20
35.750         7
35.760        40
35.770        20
35.780        13
35.790         7
35.800        27
35.810        13
35.820        20
35.830        33
35.840        27
35.850        13
35.860        27
35.870        27
35.880        13
35.890        27
35.900        13
35.910        27
35.920        33
35.930         0
35.940        27
35.950        27
35.960        13
35.970        13
35.980        60
35.990        27
36.000         7
36.010        13
36.020        33
36.030        40
36.040        40
36.050        60
36.060         7
36.070        47
36.080        33
36.090        27
36.100        33
36.110        27
36.120        33
36.130        13
36.140        33
36.150        13
36.160        20
36.170        20
36.180         7
36.190        13
36.200        13
36.210        40
36.220        20
36.230         7
36.240        33
36.250        40
36.260        13
36.270        20
36.280        20
36.290        13
36.300        20
36.310        13
36.320        27
36.330        33
36.340        33
36.350        40
36.360        27
36.370        13
36.380        13
36.390        47
36.400        47
36.410        20
36.420        47
36.430        27
36.440        73
36.450        47
36.460        47
36.470        60
36.480        47
36.490        27
36.500        33
36.510        33
36.520        40
36.530        20
36.540        20
36.550         7
36.560        53
36.570        13
36.580         7
36.590        60
36.600        20
36.610         7
36.620        13
36.630        20
36.640        27
36.650        20
36.660        20
36.670        33
36.680        53
36.690        20
36.700         0
36.710        27
36.720        13
36.730        27
36.740        27
36.750        33
36.760        27
36.770        33
36.780        40
36.790        13
36.800         0
36.810        40
36.820        33
36.830        33
36.840         0
36.850        33
36.860         7
36.870        40
36.880         7
36.890        20
36.900        13
36.910        20
36.920        27
36.930        13
36.940        20
36.950        27
36.960        27
36.970         0
36.980        20
36.990         7
37.000        27
37.010        13
37.020        20
37.030        20
37.040        40
37.050        13
37.060        33
37.070        13
37.080        20
37.090         0
37.100        27
37.110        13
37.120        27
37.130         7
37.140         7
37.150        20
37.160        33
37.170         7
37.180        13
37.190         7
37.200        20
37.210        40
37.220        27
37.230        20
37.240        20
37.250        27
37.260         0
37.270        20
37.280        20
37.290        27
37.300        27
37.310        13
37.320        27
37.330        13
37.340         7
37.350        20
37.360        20
37.370        13
37.380        20
37.390        13
37.400        33
37.410        27
37.420         7
37.430        20
37.440        20
37.450        27
37.460        13
37.470        33
37.480        13
37.490        40
37.500        13
37.510        13
37.520        13
37.530        20
37.540        20
37.550        33
37.560        13
37.570        13
37.580        13
37.590         7
37.600        40
37.610         7
37.620        13
37.630        13
37.640        40
37.650        27
37.660        20
37.670        27
37.680         7
37.690        40
37.700       100
37.710         7
37.720        13
37.730        13
37.740        27
37.750        33
37.760        13
37.770        13
37.780         7
37.790        33
37.800        20
37.810         7
37.820        27
37.830        20
37.840        20
37.850        47
37.860        13
37.870        40
37.880        13
37.890        27
37.900        40
37.910        13
37.920        13
37.930        13
37.940        13
37.950         7
37.960        40
37.970        27
37.980        20
37.990         7
38.000        13
38.010        33
38.020        40
38.030        27
38.040        27
38.050         7
38.060         7
38.070         7
38.080        27
38.090        13
38.100        33
38.110        20
38.120         7
38.130        13
38.140        33
38.150        13
38.160        40
38.170        33
38.180        33
38.190        13
38.200        27
38.210        20
38.220         0
38.230        33
38.240        27
38.250         7
38.260        20
38.270         7
38.280         7
38.290        60
38.300        20
38.310         7
38.320        47
38.330        27
38.340         7
38.350        13
38.360        20
38.370        20
38.380        20
38.390         7
38.400        27
38.410        13
38.420        40
38.430        20
38.440        20
38.450        27
38.460        27
38.470        33
38.480        47
38.490        47
38.500        13
38.510        13
38.520        13
38.530        20
38.540        33
38.550        13
38.560        13
38.570        20
38.580        27
38.590        13
38.600        13
38.610        20
38.620        13
38.630        47
38.640        20
38.650        40
38.660        27
38.670        53
38.680         7
38.690         7
38.700        33
38.710        27
38.720        27
38.730        33
38.740         7
38.750         7
38.760        13
38.770         7
38.780        13
38.790        40
38.800        20
38.810        20
38.820        27
38.830        40
38.840        33
38.850        47
38.860        20
38.870        20
38.880        20
38.890        13
38.900        27
38.910        47
38.920        20
38.930        20
38.940        27
38.950        40
38.960        27
38.970        40
38.980        20
38.990        33
39.000        33
39.010        40
39.020         7
39.030        47
39.040        33
39.050        20
39.060        27
39.070        27
39.080        47
39.090        40
39.100        27
39.110        33
39.120        13
39.130        13
39.140        33
39.150        40
39.160         7
39.170         7
39.180        13
39.190        60
39.200        33
39.210         0
39.220        13
39.230        20
39.240         0
39.250        13
39.260        27
39.270        27
39.280        33
39.290        33
39.300        20
39.310        13
39.320        20
39.330        47
39.340        27
39.350        13
39.360        20
39.370        33
39.380        20
39.390        13
39.400        40
39.410         0
39.420        13
39.430        20
39.440        13
39.450        27
39.460        13
39.470        33
39.480         7
39.490        13
39.500         7
39.510         0
39.520         7
39.530         7
39.540        13
39.550        40
39.560         7
39.570        13
39.580         7
39.590        20
39.600         7
39.610        20
39.620        13
39.630        27
39.640        33
39.650        27
39.660        13
39.670        40
39.680        20
39.690        13
39.700        20
39.710         7
39.720        33
39.730        47
39.740        13
39.750        13
39.760        20
39.770        20
39.780        27
39.790        20
39.800        13
39.810        13
39.820        13
39.830        27
39.840        20
39.850         7
39.860        27
39.870        53
39.880        20
39.890        13
39.900         7
39.910        27
39.920        20
39.930        20
39.940        27
39.950        13
39.960        20
39.970        33
39.980        13
39.990        27
40.000        13
40.010        40
40.020        27
40.030        20
40.040        13
40.050        33
40.060        13
40.070         7
40.080        20
40.090        13
40.100        27
40.110        27
40.120        20
40.130         7
40.140        13
40.150        27
40.160        20
40.170        20
40.180        33
40.190        27
40.200        27
40.210        20
40.220        20
40.230        20
40.240        60
40.250        40
40.260        20
40.270        40
40.280        13
40.290        33
40.300        20
40.310        20
40.320        47
40.330        47
40.340        27
40.350        20
40.360        27
40.370        33
40.380        13
40.390        33
40.400        53
40.410        47
40.420        47
40.430        40
40.440        20
40.450        33
40.460         7
40.470        33
40.480        13
40.490        20
40.500        27
40.510        27
40.520        40
40.530        27
40.540         7
40.550        33
40.560        27
40.570        20
40.580        33
40.590        27
40.600         7
40.610        40
40.620        13
40.630        27
40.640        40
40.650        13
40.660         7
40.670        13
40.680         7
40.690        27
40.700         7
40.710        20
40.720        13
40.730         0
40.740        20
40.750        20
40.760         7
40.770        47
40.780        13
40.790         7
40.800        33
40.810        20
40.820        20
40.830        27
40.840        27
40.850        27
40.860        13
40.870        20
40.880        33
40.890        27
40.900        20
40.910        20
40.920        20
40.930        27
40.940        40
40.950        40
40.960        47
40.970        13
40.980         0
40.990        13
41.000        40
41.010        20
41.020        13
41.030         0
41.040        40
41.050        40
41.060        13
41.070         7
41.080        13
41.090        20
41.100        27
41.110        13
41.120        13
41.130        20
41.140        47
41.150         7
41.160        13
41.170        40
41.180        13
41.190        27
41.200         7
41.210        20
41.220        40
41.230        13
41.240        20
41.250        33
41.260        27
41.270        13
41.280        47
41.290        20
41.300        33
41.310        27
41.320         7
41.330        13
41.340        13
41.350        33
41.360        13
41.370        27
41.380        13
41.390        27
41.400        13
41.410        27
41.420        27
41.430        20
41.440        13
41.450        40
41.460        13
41.470        33
41.480        13
41.490         0
41.500         7
41.510        13
41.520        20
41.530        13
41.540        33
41.550        20
41.560        33
41.570         7
41.580        53
41.590         7
41.600        40
41.610         0
41.620         0
41.630        20
41.640         7
41.650         7
41.660        33
41.670        13
41.680        27
41.690        13
41.700        20
41.710        13
41.720        13
41.730        27
41.740         7
41.750         7
41.760        13
41.770         7
41.780         7
41.790        40
41.800        27
41.810        27
41.820        13
41.830         7
41.840         7
41.850         7
41.860        20
41.870        40
41.880        13
41.890        27
41.900        53
41.910        13
41.920        20
41.930        13
41.940        20
41.950        20
41.960        27
41.970        13
41.980        27
41.990        20
42.000        27
42.010        33
42.020        13
42.030        33
42.040        27
42.050        33
42.060        20
42.070        40
42.080        27
42.090        53
42.100        27
42.110        20
42.120        40
42.130        53
42.140        47
42.150        47
42.160        73
42.170        60
42.180        87
42.190       107
42.200        73
42.210       107
42.220        87
42.230        73
42.240        93
42.250        80
42.260       100
42.270        33
42.280        67
42.290        33
42.300        80
42.310        73
42.320        73
42.330        53
42.340        47
42.350        67
42.360        47
42.370        27
42.380        47
42.390        27
42.400        33
42.410        40
42.420        53
42.430        40
42.440        20
42.450        73
42.460        13
42.470        13
42.480        40
42.490        53
42.500        13
42.510        33
42.520        33
42.530        20
42.540        20
42.550         7
42.560        20
42.570        13
42.580        40
42.590        33
42.600        20
42.610        33
42.620        40
42.630         7
42.640        40
42.650        33
42.660        20
42.670        40
42.680        13
42.690        27
42.700        20
42.710        33
42.720        13
42.730        60
42.740        33
42.750        13
42.760        27
42.770        20
42.780        20
42.790        27
42.800        53
42.810        20
42.820        20
42.830        20
42.840        20
42.850        13
42.860        27
42.870         7
42.880         7
42.890        20
42.900        20
42.910        13
42.920        40
42.930        33
42.940        27
42.950        27
42.960        20
42.970        20
42.980        27
42.990        47
43.000        53
43.010        13
43.020        40
43.030        20
43.040        60
43.050        27
43.060        27
43.070        27
43.080        27
43.090        40
43.100        40
43.110        40
43.120        27
43.130         7
43.140        47
43.150        20
43.160        33
43.170        20
43.180        20
43.190         7
43.200         7
43.210        40
43.220        13
43.230        40
43.240        20
43.250        20
43.260        20
43.270        27
43.280        20
43.290        20
43.300         0
43.310        20
43.320        13
43.330        20
43.340        27
43.350         7
43.360        33
43.370        13
43.380        33
43.390        40
43.400        40
43.410        27
43.420        13
43.430         0
43.440         0
43.450        27
43.460        60
43.470         7
43.480         0
43.490        20
43.500        13
43.510         7
43.520         7
43.530        13
43.540        33
43.550        13
43.560        27
43.570        20
43.580        27
43.590        27
43.600        53
43.610        20
43.620         0
43.630        53
43.640        20
43.650        27
43.660        13
43.670        40
43.680        20
43.690        27
43.700        13
43.710        27
43.720        33
43.730         7
43.740        27
43.750        13
43.760        20
43.770        13
43.780        20
43.790        13
43.800        20
43.810        27
43.820         7
43.830        13
43.840        27
43.850        27
43.860        20
43.870        13
43.880        27
43.890         0
43.900        13
43.910        13
43.920         7
43.930        13
43.940        20
43.950        53
43.960         7
43.970        27
43.980        13
43.990        40
44.000        27
44.010        33
44.020         0
44.030        20
44.040        40
44.050        13
44.060        27
44.070        13
44.080         7
44.090        40
44.100        13
44.110        47
44.120        20
44.130        20
44.140        33
44.150        20
44.160        13
44.170        20
44.180        13
44.190        20
44.200        27
44.210        20
44.220        20
44.230        27
44.240        33
44.250        27
44.260        33
44.270        20
44.280        33
44.290        13
44.300        33
44.310        67
44.320        13
44.330        47
44.340        40
44.350        20
44.360        27
44.370        47
44.380        33
44.390        33
44.400        20
44.410        40
44.420        20
44.430        20
44.440        33
44.450        53
44.460        53
44.470        33
44.480        53
44.490        27
44.500        40
44.510        27
44.520        53
44.530        40
44.540        27
44.550        13
44.560        20
44.570        27
44.580        33
44.590        33
44.600        67
44.610        33
44.620        13
44.630         7
44.640        13
44.650         7
44.660         7
44.670        20
44.680        27
44.690        53
44.700        20
44.710        27
44.720        20
44.730        20
44.740        27
44.750        33
44.760         0
44.770        20
44.780        13
44.790        33
44.800        40
44.810        27
44.820        33
44.830        13
44.840        27
44.850        27
44.860         0
44.870        13
44.880        33
44.890        40
44.900        27
44.910        27
44.920        13
44.930        33
44.940        13
44.950         7
44.960        13
44.970        20
44.980        20
44.990        13
45.000        27
45.010        33
45.020        20
45.030        13
45.040        27
45.050        20
45.060        33
45.070        13
45.080        20
45.090        27
45.100        27
45.110        20
45.120        40
45.130        33
45.140        20
45.150        33
45.160        33
45.170        20
45.180        33
45.190        13
45.200        20
45.210        27
45.220        20
45.230        60
45.240        20
45.250         7
45.260        20
45.270        40
45.280         0
45.290        20
45.300        27
45.310        20
45.320        13
45.330         7
45.340        27
45.350        27
45.360        13
45.370        20
45.380         7
45.390        20
45.400        20
45.410        13
45.420        33
45.430        13
45.440        20
45.450        20
45.460        20
45.470        20
45.480        13
45.490        27
45.500        13
45.510        13
45.520        33
45.530        20
45.540        53
45.550        27
45.560        40
45.570        13
45.580        20
45.590        13
45.600        27
45.610        20
45.620         0
45.630        27
45.640        33
45.650        27
45.660        13
45.670        13
45.680        27
45.690        20
45.700        27
45.710        60
45.720        27
45.730        33
45.740        40
45.750        53
45.760        73
45.770        60
45.780        47
45.790        93
45.800       113
45.810        73
45.820       100
45.830        53
45.840       107
45.850        73
45.860       107
45.870       207
45.880       113
45.890       133
45.900       153
45.910       120
45.920       227
45.930       187
45.940       167
45.950       127
45.960       140
45.970       120
45.980       180
45.990       193
46.000       147
46.010       193
46.020       127
46.030       200
46.040       133
46.050       207
46.060       207
46.070       113
46.080       113
46.090        93
46.100       107
46.110       120
46.120       133
46.130        80
46.140       173
46.150       133
46.160       127
46.170       107
46.180        93
46.190       120
46.200       107
46.210       107
46.220       107
46.230        73
46.240        60
46.250        47
46.260        60
46.270       107
46.280        53
46.290        67
46.300        73
46.310        40
46.320        67
46.330        87
46.340        53
46.350        27
46.360        33
46.370        73
46.380        47
46.390        33
46.400        27
46.410        33
46.420        27
46.430        20
46.440        53
46.450        47
46.460        27
46.470        27
46.480        33
46.490        20
46.500        33
46.510        60
46.520        13
46.530        13
46.540        20
46.550        13
46.560        53
46.570        40
46.580        40
46.590        33
46.600         7
46.610        27
46.620        27
46.630        27
46.640        40
46.650        53
46.660        47
46.670        20
46.680        40
46.690        13
46.700        13
46.710        73
46.720        40
46.730        13
46.740        53
46.750        27
46.760        33
46.770        13
46.780        47
46.790        20
46.800         7
46.810        20
46.820        27
46.830        40
46.840        20
46.850        47
46.860         0
46.870        27
46.880        20
46.890        33
46.900        13
46.910        33
46.920        13
46.930        20
46.940         7
46.950        20
46.960         7
46.970        13
46.980        33
46.990        20
47.000         7
47.010        13
47.020        13
47.030        13
47.040        20
47.050        13
47.060        20
47.070        47
47.080        20
47.090        40
47.100        40
47.110        40
47.120        27
47.130        53
47.140        33
47.150         7
47.160        40
47.170        27
47.180        33
47.190       107
47.200        13
47.210        33
47.220         0
47.230         7
47.240         7
47.250        40
47.260        13
47.270        27
47.280        40
47.290        33
47.300        27
47.310        20
47.320        40
47.330         0
47.340        33
47.350         7
47.360        47
47.370         0
47.380        27
47.390        27
47.400        33
47.410         0
47.420        13
47.430        20
47.440        53
47.450        27
47.460        27
47.470         7
47.480        53
47.490        33
47.500        27
47.510        33
47.520        13
47.530        33
47.540        47
47.550        40
47.560        13
47.570        53
47.580        33
47.590        13
47.600        40
47.610        27
47.620         7
47.630        20
47.640        20
47.650        27
47.660        27
47.670        47
47.680        40
47.690        13
47.700         7
47.710        33
47.720        13
47.730        20
47.740        27
47.750        27
47.760        27
47.770         7
47.780        20
47.790        20
47.800        13
47.810        27
47.820         0
47.830        27
47.840        27
47.850        20
47.860        13
47.870        13
47.880        20
47.890         7
47.900        40
47.910        33
47.920         0
47.930        13
47.940        20
47.950        20
47.960        33
47.970         0
47.980        13
47.990         0
48.000         0
48.010        33
48.020         0
48.030        33
48.040        27
48.050        13
48.060        20
48.070        27
48.080        13
48.090        20
48.100        27
48.110        40
48.120        27
48.130        20
48.140        20
48.150        40
48.160        20
48.170        20
48.180        20
48.190        40
48.200        27
48.210        47
48.220        47
48.230        40
48.240        13
48.250        13
48.260        20
48.270        20
48.280        47
48.290         7
48.300        27
48.310         0
48.320        20
48.330        33
48.340         7
48.350        13
48.360         7
48.370        13
48.380        47
48.390        27
48.400        53
48.410        13
48.420        33
48.430        27
48.440        13
48.450        27
48.460         0
48.470        67
48.480        33
48.490        53
48.500        27
48.510        20
48.520        13
48.530        40
48.540         7
48.550        33
48.560        20
48.570        40
48.580        33
48.590        20
48.600        40
48.610        27
48.620        33
48.630         7
48.640        27
48.650        27
48.660        27
48.670        40
48.680         7
48.690        27
48.700        27
48.710        33
48.720        47
48.730        33
48.740         7
48.750        20
48.760        40
48.770        27
48.780        20
48.790        20
48.800        33
48.810        33
48.820        20
48.830        73
48.840        13
48.850        53
48.860        60
48.870        87
48.880        53
48.890        53
48.900        73
48.910        73
48.920        73
48.930        53
48.940        33
48.950        60
48.960        73
48.970        80
48.980        73
48.990       100
49.000        80
49.010        93
49.020        47
49.030        53
49.040        87
49.050        67
49.060        87
49.070        73
49.080        93
49.090        73
49.100        73
49.110        33
49.120        60
49.130        27
49.140        40
49.150        67
49.160        60
49.170        60
49.180        53
49.190        27
49.200        67
49.210        13
49.220        20
49.230        40
49.240        27
49.250        20
49.260        53
49.270        53
49.280        13
49.290        20
49.300        33
49.310        40
49.320        53
49.330         7
49.340        13
49.350        13
49.360        20
49.370         0
49.380        33
49.390        20
49.400        27
49.410        47
49.420        33
49.430        20
49.440        27
49.450        13
49.460         7
49.470        13
49.480        27
49.490         7
49.500        20
49.510        20
49.520        13
49.530        13
49.540        40
49.550        47
49.560        20
49.570        13
49.580        13
49.590        40
49.600        13
49.610        20
49.620        33
49.630        20
49.640        27
49.650        13
49.660        27
49.670        47
49.680        20
49.690        13
49.700         0
49.710        13
49.720        20
49.730        20
49.740        13
49.750        27
49.760         0
49.770        47
49.780        20
49.790        40
49.800        27
49.810         0
49.820        13
49.830        20
49.840        13
49.850        40
49.860        20
49.870        40
49.880        20
49.890        47
49.900        53
49.910        33
49.920        40
49.930        67
49.940        33
49.950        27
49.960        33
49.970        67
49.980        33
49.990         7
50.000        33
50.010        40
50.020        40
50.030        33
50.040        33
50.050        33
50.060        33
50.070        27
50.080        67
50.090        53
50.100        67
50.110        53
50.120        60
50.130        27
50.140        47
50.150        40
50.160        13
50.170        20
50.180        27
50.190        27
50.200        40
50.210        27
50.220        33
50.230        13
50.240        20
50.250         7
50.260        13
50.270        13
50.280        20
50.290        13
50.300        27
50.310         7
50.320        47
50.330        13
50.340        27
50.350        33
50.360        27
50.370         0
50.380        20
50.390        40
50.400         7
50.410         7
50.420        40
50.430        33
50.440        27
50.450        13
50.460        13
50.470        40
50.480        27
50.490        20
50.500        73
50.510        27
50.520        27
50.530        33
50.540        20
50.550        27
50.560        27
50.570        13
50.580        13
50.590        33
50.600        27
50.610        20
50.620        13
50.630        20
50.640        13
50.650        27
50.660         0
50.670        40
50.680        20
50.690        13
50.700        20
50.710        13
50.720        13
50.730        27
50.740        13
50.750        33
50.760        33
50.770        33
50.780        33
50.790        13
50.800        27
50.810        13
50.820         0
50.830        33
50.840         7
50.850        33
50.860        27
50.870        20
50.880        27
50.890        20
50.900        20
50.910        20
50.920        40
50.930        33
50.940        27
50.950         0
50.960        33
50.970        13
50.980        33
50.990        20
51.000        13
51.010        20
51.020        33
51.030        20
51.040        20
51.050        40
51.060        20
51.070         7
51.080        27
51.090        20
51.100        13
51.110        27
51.120        27
51.130        20
51.140        47
51.150        20
51.160        13
51.170        20
51.180        27
51.190        27
51.200        47
51.210        20
51.220        13
51.230        47
51.240        20
51.250        13
51.260        67
51.270        20
51.280        33
51.290        20
51.300        40
51.310        13
51.320        13
51.330        27
51.340        33
51.350        40
51.360        27
51.370        33
51.380        20
51.390        40
51.400        20
51.410        27
51.420        13
51.430        53
51.440        60
51.450        27
51.460        47
51.470        53
51.480        60
51.490        27
51.500        27
51.510        53
51.520        47
51.530        40
51.540        27
51.550        20
51.560        53
51.570        20
51.580        33
51.590        53
51.600        40
51.610        73
51.620        60
51.630        60
51.640        47
51.650        80
51.660        53
51.670        53
51.680        93
51.690        53
51.700        47
51.710        93
51.720       100
51.730       100
51.740        73
51.750       147
51.760       100
51.770       120
51.780       127
51.790       140
51.800       133
51.810       147
51.820       127
51.830       133
51.840       113
51.850        87
51.860       147
51.870       193
51.880       107
51.890        93
51.900       140
51.910       127
51.920       147
51.930       147
51.940       173
51.950       113
51.960        87
51.970       100
51.980        67
51.990       153
52.000       147
52.010       100
52.020       120
52.030        67
52.040        80
52.050       100
52.060        60
52.070        87
52.080        60
52.090        53
52.100        67
52.110        67
52.120       107
52.130        40
52.140        67
52.150       100
52.160        47
52.170       100
52.180        27
52.190        47
52.200        73
52.210        60
52.220        53
52.230        60
52.240        27
52.250        13
52.260        80
52.270        53
52.280        40
52.290        33
52.300        53
52.310        33
52.320        40
52.330        33
52.340        40
52.350        33
52.360        47
52.370        33
52.380        27
52.390        53
52.400        40
52.410        53
52.420        27
52.430        33
52.440        27
52.450        27
52.460        33
52.470        20
52.480        33
52.490        20
52.500        53
52.510        40
52.520        33
52.530        27
52.540        33
52.550        33
52.560        33
52.570        40
52.580        53
52.590        40
52.600        33
52.610        67
52.620        67
52.630        60
52.640        33
52.650        47
52.660        27
52.670        60
52.680        27
52.690        93
52.700        53
52.710        47
52.720        27
52.730        27
52.740        87
52.750        47
52.760        60
52.770        33
52.780        33
52.790        27
52.800        27
52.810        33
52.820        27
52.830        67
52.840        60
52.850        40
52.860        73
52.870        80
52.880        53
52.890        33
52.900        33
52.910        47
52.920        20
52.930        40
52.940        27
52.950        27
52.960        40
52.970        27
52.980        27
52.990         7
53.000        13
53.010        40
53.020        33
53.030        47
53.040        53
53.050        13
53.060        60
53.070        33
53.080        33
53.090        13
53.100        47
53.110        13
53.120        27
53.130        27
53.140        20
53.150        20
53.160        27
53.170        27
53.180        20
53.190        33
53.200         7
53.210        13
53.220         7
53.230        13
53.240        27
53.250        47
53.260        20
53.270        40
53.280        27
53.290        13
53.300        27
53.310        20
53.320        33
53.330        27
53.340        47
53.350        47
53.360        33
53.370        33
53.380        13
53.390        27
53.400        13
53.410        40
53.420        33
53.430        20
53.440        27
53.450        13
53.460        20
53.470        40
53.480        27
53.490        33
53.500        13
53.510        80
53.520        40
53.530        20
53.540        33
53.550        13
53.560        53
53.570        33
53.580        33
53.590        40
53.600        27
53.610        60
53.620        13
53.630        27
53.640        27
53.650        20
53.660        27
53.670        20
53.680        60
53.690        20
53.700        13
53.710         7
53.720        13
53.730        20
53.740        33
53.750        33
53.760        47
53.770         0
53.780        13
53.790        27
53.800        13
53.810        33
53.820        67
53.830        47
53.840         7
53.850        33
53.860        40
53.870         0
53.880        13
53.890        53
53.900        27
53.910        13
53.920        27
53.930        20
53.940        13
53.950        20
53.960        27
53.970        13
53.980        33
53.990        33
54.000        40
54.010        27
54.020         7
54.030         7
54.040        20
54.050        13
54.060        33
54.070        20
54.080        40
54.090        33
54.100         7
54.110        20
54.120        53
54.130         0
54.140        13
54.150        33
54.160        27
54.170        20
54.180        20
54.190        47
54.200        40
54.210        27
54.220        13
54.230        47
54.240        47
54.250        40
54.260        47
54.270         7
54.280        20
54.290        33
54.300        20
54.310        40
54.320        27
54.330        13
54.340        27
54.350         7
54.360        33
54.370         0
54.380        53
54.390        33
54.400        47
54.410        27
54.420        27
54.430        33
54.440        20
54.450        20
54.460        40
54.470        33
54.480        33
54.490        13
54.500        47
54.510        53
54.520         0
54.530        33
54.540        13
54.550        33
54.560        33
54.570        27
54.580        13
54.590        33
54.600        27
54.610        27
54.620        40
54.630        27
54.640        40
54.650        47
54.660        20
54.670        20
54.680        67
54.690        80
54.700        53
54.710        60
54.720        67
54.730        33
54.740        87
54.750        53
54.760        67
54.770        33
54.780        27
54.790        73
54.800        67
54.810        60
54.820        60
54.830        33
54.840        27
54.850        73
54.860        73
54.870         7
54.880        60
54.890        47
54.900        53
54.910        47
54.920        33
54.930        53
54.940        73
54.950        60
54.960        47
54.970        33
54.980        40
54.990        27
55.000        27
55.010        20
55.020        53
55.030        73
55.040        13
55.050        67
55.060        73
55.070        40
55.080        47
55.090        60
55.100        33
55.110        40
55.120        13
55.130        20
55.140        40
55.150        33
55.160         0
55.170        60
55.180        40
55.190        27
55.200        33
55.210        27
55.220        27
55.230         0
55.240        27
55.250        20
55.260        20
55.270        27
55.280        27
55.290        13
55.300        27
55.310        20
55.320        13
55.330        13
55.340        13
55.350        20
55.360        27
55.370        20
55.380        13
55.390        20
55.400         7
55.410        20
55.420        20
55.430        20
55.440         7
55.450        20
55.460         7
55.470        27
55.480        13
55.490        40
55.500        13
55.510         7
55.520        27
55.530        40
55.540        20
55.550         7
55.560        27
55.570        20
55.580        47
55.590        33
55.600        27
55.610        27
55.620        13
55.630        33
55.640        13
55.650        40
55.660         0
55.670        13
55.680        27
55.690        13
55.700        13
55.710        47
55.720        13
55.730        33
55.740        20
55.750        20
55.760        13
55.770         7
55.780        40
55.790         0
55.800        13
55.810        13
55.820        13
55.830        47
55.840        27
55.850         7
55.860        20
55.870        20
55.880        27
55.890        40
55.900         7
55.910        20
55.920        13
55.930        27
55.940        33
55.950        20
55.960        20
55.970        47
55.980        40
55.990         7
56.000        13
56.010        13
56.020        33
56.030        20
56.040        47
56.050        20
56.060        33
56.070        40
56.080        40
56.090         7
56.100        40
56.110        27
56.120        33
56.130        27
56.140        20
56.150        40
56.160        40
56.170        40
56.180        33
56.190        53
56.200        33
56.210        27
56.220        33
56.230        33
56.240        47
56.250        60
56.260        33
56.270        20
56.280        53
56.290        40
56.300        33
56.310        40
56.320        27
56.330        47
56.340        40
56.350        20
56.360        27
56.370        27
56.380        20
56.390        13
56.400        47
56.410        20
56.420        27
56.430        47
56.440        27
56.450        40
56.460        20
56.470        40
56.480        20
56.490        20
56.500        33
56.510        33
56.520        40
56.530        13
56.540        67
56.550        27
56.560        47
56.570        40
56.580        27
56.590        13
56.600        20
56.610         0
56.620        40
56.630        20
56.640         7
56.650        47
56.660        33
56.670        13
56.680         7
56.690         7
56.700        13
56.710         7
56.720        13
56.730        20
56.740        20
56.750        33
56.760        13
56.770         7
56.780        33
56.790        20
56.800        27
56.810         7
56.820         7
56.830        27
56.840        20
56.850        27
56.860        20
56.870        20
56.880        13
56.890        20
56.900        27
56.910        13
56.920        20
56.930        27
56.940         7
56.950        20
56.960        13
56.970        33
56.980        13
56.990        27
57.000        13
57.010        40
57.020        40
57.030         7
57.040         7
57.050        20
57.060         0
57.070         7
57.080        13
57.090        40
57.100        27
57.110        20
57.120        27
57.130        33
57.140        13
57.150        47
57.160        27
57.170        20
57.180        27
57.190         7
57.200        13
57.210        27
57.220         7
57.230        47
57.240        20
57.250         0
57.260         0
57.270        13
57.280         7
57.290        13
57.300        60
57.310        40
57.320        13
57.330         7
57.340        13
57.350        13
57.360        27
57.370        40
57.380        27
57.390        40
57.400        13
57.410        20
57.420        13
57.430        47
57.440         7
57.450        20
57.460        20
57.470        33
57.480        13
57.490        27
57.500        33
57.510        27
57.520        13
57.530        27
57.540        20
57.550        27
57.560        20
57.570        33
57.580        20
57.590         7
57.600        13
57.610        20
57.620        20
57.630        20
57.640        13
57.650         7
57.660         0
57.670        27
57.680         7
57.690        27
57.700        53
57.710        20
57.720        20
57.730        20
57.740        27
57.750         7
57.760        20
57.770        13
57.780        53
57.790         0
57.800        20
57.810        33
57.820        27
57.830        13
57.840        27
57.850        33
57.860        13
57.870        20
57.880        13
57.890        13
57.900        20
57.910        20
57.920        13
57.930         7
57.940        13
57.950         0
57.960        27
57.970        20
57.980        33
57.990         7
58.000        20
58.010        13
58.020        33
58.030        13
58.040        13
58.050         0
58.060        13
58.070         7
58.080        20
58.090        20
58.100         7
58.110        27
58.120        13
58.130        20
58.140        13
58.150        20
58.160        20
58.170        13
58.180         7
58.190        27
58.200         7
58.210        13
58.220         7
58.230        13
58.240        33
58.250        40
58.260        13
58.270        33
58.280        13
58.290        27
58.300        13
58.310        27
58.320        13
58.330        27
58.340        20
58.350        20
58.360        13
58.370        13
58.380        27
58.390         0
58.400        13
58.410        13
58.420        40
58.430        20
58.440        20
58.450         7
58.460         0
58.470        27
58.480         7
58.490        13
58.500         7
58.510         7
58.520        20
58.530        20
58.540         0
58.550        60
58.560        27
58.570        40
58.580         7
58.590        13
58.600        20
58.610        13
58.620        13
58.630        40
58.640        20
58.650         0
58.660        13
58.670         7
58.680         7
58.690        27
58.700         7
58.710         7
58.720        13
58.730         7
58.740        20
58.750        20
58.760        13
58.770        20
58.780        13
58.790        40
58.800        20
58.810        27
58.820        33
58.830        13
58.840        33
58.850        33
58.860         7
58.870        20
58.880        27
58.890        27
58.900         7
58.910        13
58.920         7
58.930        20
58.940         0
58.950         0
58.960        13
58.970        20
58.980         0
58.990        27
59.000        33
59.010        27
59.020        27
59.030        27
59.040         7
59.050         0
59.060        27
59.070         7
59.080         7
59.090         7
59.100        27
59.110        20
59.120         7
59.130        27
59.140        27
59.150        13
59.160        27
59.170         0
59.180        20
59.190        13
59.200        60
59.210         7
59.220        13
59.230        27
59.240        27
59.250        33
59.260        13
59.270        27
59.280        20
59.290         0
59.300        13
59.310        20
59.320        13
59.330        27
59.340        13
59.350         7
59.360        13
59.370        20
59.380        40
59.390         7
59.400        33
59.410        33
59.420        13
59.430        20
59.440        40
59.450        13
59.460        13
59.470        20
59.480         7
59.490        33
59.500        13
59.510         0
59.520        40
59.530        20
59.540         7
59.550        33
59.560        27
59.570        47
59.580        13
59.590        20
59.600        13
59.610        33
59.620        27
59.630        20
59.640        20
59.650        33
59.660        20
59.670        33
59.680        20
59.690        53
59.700        13
59.710        47
59.720        40
59.730        27
59.740        40
59.750        40
59.760        33
59.770        20
59.780        13
59.790        47
59.800        27
59.810        40
59.820        40
59.830        47
59.840        20
59.850        13
59.860        27
59.870        40
59.880         7
59.890        13
59.900        13
59.910        33
59.920        40
59.930        27
59.940        20
59.950        40
59.960        20
59.970        40
59.980        27
59.990        27
60.000        27
