20.000        53
20.010        53
20.020        67
20.030        47
20.040       100
20.050        67
20.060        27
20.070        47
20.080        87
20.090        40
20.100        40
20.110        60
20.120        40
20.130        47
20.140        40
20.150        13
20.160        53
20.170        80
20.180        53
20.190        47
20.200        40
20.210        33
20.220        53
20.230        40
20.240        40
20.250        60
20.260        47
20.270        40
20.280        53
20.290        73
20.300        20
20.310        53
20.320        33
20.330        40
20.340        47
20.350        13
20.360        27
20.370        40
20.380        40
20.390        53
20.400        33
20.410        20
20.420        33
20.430        40
20.440        53
20.450        47
20.460        60
20.470        40
20.480        27
20.490        53
20.500        20
20.510        60
20.520        40
20.530        40
20.540        33
20.550        40
20.560        53
20.570        27
20.580        27
20.590        80
20.600        60
20.610        73
20.620        13
20.630        53
20.640        80
20.650        13
20.660        67
20.670        67
20.680        40
20.690        40
20.700        20
20.710        53
20.720        53
20.730        40
20.740        20
20.750        40
20.760        40
20.770        40
20.780        67
20.790        33
20.800        60
20.810        33
20.820        13
20.830        53
20.840        53
20.850        33
20.860        47
20.870        40
20.880        27
20.890        20
20.900        47
20.910        47
20.920        33
20.930        27
20.940        93
20.950        20
20.960        53
20.970        27
20.980        20
20.990        27
21.000        27
21.010        67
21.020        47
21.030        20
21.040        40
21.050        33
21.060        27
21.070        47
21.080        47
21.090        40
21.100        33
21.110        20
21.120        53
21.130        13
21.140        40
21.150        33
21.160        53
21.170        53
21.180        20
21.190        60
21.200        33
21.210        60
21.220        40
21.230        33
21.240        40
21.250        33
21.260        27
21.270        73
21.280        40
21.290        13
21.300        53
21.310        47
21.320        27
21.330        47
21.340        27
21.350        47
21.360        33
21.370        53
21.380        20
21.390        40
21.400        33
21.410        53
21.420        27
21.430        53
21.440        27
21.450        80
21.460        40
21.470        27
21.480        53
21.490        53
21.500        40
21.510        33
21.520        27
21.530        13
21.540        67
21.550        53
21.560        27
21.570        67
21.580        27
21.590        20
21.600        40
21.610        33
21.620        33
21.630        47
21.640        67
21.650        47
21.660        27
21.670        40
21.680        40
21.690        67
21.700        40
21.710        80
21.720        80
21.730        20
21.740        33
21.750        20
21.760        27
21.770        27
21.780        27
21.790        53
21.800        13
21.810        33
21.820        33
21.830        27
21.840        20
21.850         7
21.860        40
21.870        47
21.880        33
21.890        47
21.900        40
21.910        53
21.920        40
21.930        27
21.940         0
21.950        40
21.960        27
21.970        27
21.980        40
21.990        27
22.000        40
22.010        40
22.020        13
22.030        27
22.040        67
22.050        47
22.060        47
22.070        20
22.080        53
22.090        27
22.100        33
22.110        20
22.120        60
22.130        53
22.140        33
22.150        53
22.160        27
22.170        60
22.180        27
22.190        53
22.200        47
22.210        47
22.220        60
22.230        33
22.240        20
22.250        33
22.260        33
22.270        40
22.280        60
22.290        13
22.300        20
22.310        33
22.320        53
22.330        33
22.340        27
22.350        13
22.360        40
22.370        40
22.380        33
22.390        53
22.400        40
22.410        40
22.420        27
22.430        27
22.440        27
22.450        13
22.460        47
22.470        60
22.480        20
22.490        40
22.500        53
22.510        60
22.520        27
22.530        60
22.540        67
22.550        27
22.560        47
22.570        33
22.580        33
22.590        87
22.600        53
22.610        67
22.620        27
22.630        33
22.640        80
22.650        80
22.660        73
22.670        53
22.680        67
22.690        67
22.700        60
22.710        60
22.720        33
22.730        67
22.740        80
22.750        20
22.760        73
22.770        67
22.780        20
22.790        60
22.800        73
22.810        67
22.820        73
22.830        80
22.840        80
22.850        93
22.860       113
22.870        93
22.880        87
22.890       120
22.900       100
22.910       173
22.920        93
22.930       133
22.940       127
22.950       120
22.960       140
22.970       120
22.980       113
22.990       167
23.000        73
23.010       127
23.020       140
23.030        73
23.040       113
23.050        40
23.060        20
23.070        60
23.080        60
23.090       100
23.100        47
23.110        27
23.120        80
23.130        40
23.140        60
23.150        40
23.160        67
23.170        40
23.180        27
23.190        40
23.200        47
23.210        67
23.220        40
23.230        40
23.240        33
23.250        47
23.260        60
23.270        40
23.280        33
23.290        27
23.300        27
23.310        40
23.320        27
23.330        27
23.340        27
23.350        60
23.360         7
23.370        33
23.380        53
23.390        27
23.400        20
23.410        40
23.420        33
23.430        33
23.440         7
23.450        27
23.460         7
23.470        60
23.480        40
23.490        40
23.500        27
23.510        60
23.520        60
23.530         7
23.540        53
23.550        33
23.560        47
23.570         7
23.580        47
23.590        20
23.600        20
23.610        27
23.620        27
23.630        40
23.640        47
23.650        53
23.660        27
23.670        33
23.680        60
23.690        20
23.700         7
23.710        20
23.720        33
23.730         7
23.740        20
23.750        40
23.760        53
23.770        40
23.780        40
23.790        40
23.800        27
23.810        33
23.820        73
23.830        47
23.840        33
23.850        40
23.860        53
23.870        27
23.880        60
23.890        53
23.900        33
23.910        33
23.920        53
23.930        13
23.940        27
23.950        13
23.960        40
23.970        33
23.980        33
23.990        27
24.000        27
24.010        47
24.020        40
24.030        47
24.040        40
24.050        60
24.060        47
24.070        40
24.080        33
24.090        20
24.100        47
24.110        20
24.120        40
24.130        60
24.140        47
24.150        67
24.160        33
24.170         7
24.180        20
24.190        13
24.200        27
24.210        47
24.220        27
24.230         0
24.240        33
24.250        33
24.260        27
24.270        47
24.280        13
24.290        27
24.300        20
24.310        33
24.320        47
24.330        20
24.340        20
24.350        20
24.360        53
24.370        47
24.380        47
24.390         7
24.400        20
24.410        27
24.420        20
24.430        40
24.440        27
24.450        47
24.460        20
24.470        53
24.480        47
24.490        27
24.500        47
24.510        47
24.520        33
24.530         7
24.540        20
24.550        27
24.560        33
24.570        27
24.580        33
24.590        67
24.600        20
24.610         7
24.620        47
24.630        33
24.640        40
24.650        20
24.660        40
24.670        27
24.680        20
24.690        27
24.700        20
24.710        33
24.720        33
24.730        53
24.740        40
24.750        33
24.760        53
24.770        47
24.780        33
24.790        33
24.800        20
24.810        33
24.820        13
24.830         7
24.840        40
24.850        27
24.860        40
24.870        13
24.880        13
24.890        27
24.900        20
24.910        53
24.920        47
24.930        27
24.940        33
24.950        20
24.960        33
24.970        33
24.980        20
24.990        40
25.000        47
25.010        27
25.020        27
25.030        20
25.040        33
25.050        20
25.060        20
25.070        27
25.080         7
25.090        33
25.100        27
25.110        27
25.120        27
25.130        33
25.140        33
25.150        40
25.160        40
25.170        67
25.180        33
25.190        13
25.200        53
25.210        47
25.220        27
25.230        53
25.240        27
25.250        33
25.260        40
25.270        27
25.280        27
25.290        13
25.300        27
25.310        13
25.320         0
25.330        33
25.340        13
25.350        20
25.360        20
25.370        27
25.380        27
25.390        13
25.400        40
25.410        27
25.420        47
25.430        33
25.440        20
25.450        13
25.460        27
25.470        40
25.480        33
25.490        20
25.500        27
25.510        27
25.520        40
25.530        33
25.540        13
25.550        40
25.560        20
25.570        53
25.580        60
25.590       113
25.600        47
25.610        53
25.620        33
25.630        47
25.640        40
25.650        40
25.660        53
25.670        53
25.680        40
25.690        47
25.700        87
25.710        93
25.720        47
25.730        87
25.740        40
25.750        40
25.760        60
25.770        53
25.780        87
25.790        47
25.800        40
25.810        33
25.820        40
25.830        53
25.840        47
25.850        87
25.860        40
25.870        53
25.880        53
25.890        47
25.900        33
25.910        13
25.920        20
25.930        20
25.940        53
25.950        47
25.960        33
25.970         7
25.980        13
25.990        13
26.000        33
26.010        47
26.020        33
26.030        53
26.040        40
26.050        27
26.060        40
26.070        33
26.080        20
26.090        47
26.100        13
26.110         7
26.120        20
26.130         7
26.140        27
26.150        33
26.160        33
26.170        53
26.180        33
26.190        40
26.200         7
26.210        13
26.220        27
26.230        20
26.240        20
26.250        53
26.260        33
26.270        40
26.280        20
26.290        67
26.300        60
26.310        40
26.320        27
26.330        33
26.340        20
26.350        33
26.360        40
26.370        40
26.380        33
26.390         7
26.400        67
26.410        33
26.420        47
26.430        33
26.440        27
26.450        13
26.460        27
26.470        33
26.480        27
26.490        33
26.500        73
26.510        47
26.520        27
26.530        13
26.540        60
26.550        47
26.560        20
26.570        13
26.580        40
26.590        40
26.600        13
26.610        33
26.620        13
26.630        40
26.640        47
26.650        53
26.660        33
26.670        27
26.680        33
26.690        13
26.700        20
26.710        40
26.720         7
26.730        13
26.740        13
26.750        27
26.760        27
26.770        60
26.780        20
26.790        53
26.800        20
26.810        33
26.820        33
26.830        40
26.840        13
26.850        27
26.860        40
26.870        40
26.880        20
26.890        27
26.900        27
26.910        27
26.920        13
26.930        27
26.940        13
26.950        33
26.960        33
26.970        20
26.980        27
26.990        27
27.000         7
27.010        33
27.020        27
27.030        27
27.040        20
27.050        53
27.060        53
27.070        20
27.080        20
27.090        13
27.100        20
27.110        40
27.120        33
27.130        47
27.140        20
27.150        40
27.160        47
27.170        47
27.180        33
27.190        13
27.200        27
27.210        33
27.220        20
27.230        20
27.240        33
27.250        27
27.260        27
27.270        33
27.280        67
27.290         7
27.300        53
27.310        27
27.320        13
27.330        13
27.340        33
27.350        13
27.360        27
27.370        40
27.380        20
27.390        33
27.400        27
27.410        33
27.420        60
27.430        27
27.440        27
27.450        27
27.460        27
27.470        20
27.480        33
27.490        33
27.500        27
27.510        33
27.520        13
27.530        53
27.540        40
27.550        47
27.560         7
27.570        27
27.580        27
27.590        40
27.600        20
27.610        20
27.620        27
27.630        33
27.640        27
27.650        53
27.660        33
27.670        20
27.680        40
27.690        40
27.700        27
27.710        33
27.720        33
27.730        33
27.740        33
27.750        53
27.760        20
27.770        20
27.780        93
27.790        60
27.800        27
27.810        53
27.820        53
27.830        67
27.840        60
27.850        73
27.860        53
27.870        60
27.880        73
27.890        60
27.900        33
27.910        80
27.920       100
27.930        60
27.940        40
27.950        73
27.960        33
27.970        33
27.980        67
27.990        40
28.000        33
28.010        20
28.020        60
28.030        60
28.040        60
28.050        20
28.060        60
28.070        53
28.080        40
28.090        33
28.100        73
28.110        47
28.120        60
28.130        60
28.140        73
28.150        73
28.160        80
28.170       127
28.180        40
28.190        87
28.200       100
28.210        80
28.220        80
28.230        53
28.240       100
28.250        87
28.260        87
28.270        87
28.280       133
28.290       113
28.300       107
28.310       107
28.320       107
28.330       160
28.340       113
28.350       100
28.360       127
28.370       107
28.380       140
28.390        47
28.400       127
28.410        47
28.420        67
28.430        87
28.440       100
28.450       107
28.460        93
28.470        60
28.480        33
28.490        40
28.500        40
28.510        53
28.520        60
28.530        53
28.540        53
28.550        53
28.560        40
28.570        33
28.580        53
28.590        53
28.600        27
28.610        73
28.620        80
28.630        67
28.640        53
28.650        60
28.660        67
28.670        53
28.680        47
28.690        47
28.700        73
28.710        33
28.720        40
28.730        67
28.740        33
28.750        67
28.760        53
28.770        27
28.780        33
28.790        20
28.800        47
28.810        60
28.820        33
28.830        40
28.840        47
28.850        60
28.860        47
28.870        47
28.880        67
28.890        80
28.900        80
28.910        87
28.920        67
28.930        73
28.940        53
28.950        80
28.960        47
28.970        87
28.980        40
28.990        47
29.000        47
29.010        67
29.020       107
29.030        87
29.040       160
29.050        87
29.060       153
29.070       100
29.080       113
29.090       107
29.100        93
29.110       120
29.120       153
29.130        87
29.140        73
29.150       107
29.160       100
29.170        40
29.180        60
29.190        87
29.200        67
29.210        53
29.220        93
29.230       113
29.240        60
29.250        47
29.260        53
29.270        47
29.280        67
29.290        47
29.300        47
29.310        53
29.320        60
29.330        53
29.340        27
29.350        60
29.360        67
29.370        53
29.380        53
29.390        53
29.400        87
29.410        40
29.420        67
29.430        67
29.440       100
29.450        67
29.460       120
29.470        73
29.480        73
29.490       133
29.500       147
29.510       167
29.520       173
29.530       147
29.540       167
29.550       160
29.560       153
29.570       193
29.580       187
29.590       180
29.600       193
29.610       213
29.620       193
29.630       153
29.640       120
29.650       167
29.660       140
29.670       107
29.680        93
29.690        73
29.700        40
29.710       107
29.720        53
29.730        53
29.740       100
29.750        47
29.760        20
29.770        33
29.780        20
29.790        33
29.800        13
29.810        20
29.820        13
29.830        40
29.840        27
29.850        80
29.860        40
29.870        33
29.880        27
29.890        13
29.900        13
29.910        27
29.920        27
29.930        27
29.940        33
29.950         7
29.960        33
29.970        13
29.980        13
29.990        33
30.000         7
30.010        53
30.020        20
30.030        33
30.040         7
30.050        27
30.060        27
30.070        27
30.080        20
30.090        40
30.100        20
30.110        13
30.120        27
30.130        13
30.140        67
30.150        47
30.160        47
30.170        27
30.180        53
30.190        40
30.200        20
30.210        20
30.220        20
30.230        40
30.240        13
30.250        33
30.260         7
30.270        20
30.280        60
30.290        20
30.300        33
30.310        27
30.320        47
30.330        20
30.340        13
30.350        27
30.360        33
30.370        33
30.380        40
30.390        27
30.400        47
30.410        40
30.420        27
30.430        20
30.440        33
30.450        27
30.460        27
30.470        60
30.480        40
30.490        40
30.500        33
30.510        47
30.520        13
30.530        47
30.540        47
30.550        27
30.560        27
30.570        20
30.580        53
30.590        27
30.600        33
30.610        27
30.620        27
30.630        53
30.640        33
30.650        33
30.660        13
30.670        40
30.680        20
30.690        27
30.700        13
30.710        27
30.720        33
30.730        20
30.740        33
30.750        27
30.760        13
30.770        13
30.780        33
30.790        13
30.800        20
30.810        20
30.820        47
30.830        20
30.840        20
30.850        20
30.860        27
30.870        13
30.880         7
30.890        27
30.900        20
30.910        27
30.920         7
30.930        13
30.940        13
30.950        33
30.960        27
30.970        33
30.980         7
30.990        40
31.000         7
31.010        20
31.020        13
31.030        40
31.040        27
31.050        20
31.060        20
31.070        20
31.080        27
31.090        27
31.100        20
31.110        33
31.120        13
31.130        27
31.140         7
31.150        13
31.160        33
31.170        13
31.180        40
31.190        33
31.200        27
31.210        40
31.220        27
31.230        27
31.240        40
31.250         0
31.260        13
31.270        27
31.280         7
31.290        13
31.300        27
31.310        20
31.320        20
31.330        33
31.340        13
31.350        47
31.360        33
31.370        40
31.380        20
31.390        53
31.400        27
31.410        13
31.420        27
31.430         0
31.440        20
31.450        40
31.460        33
31.470        40
31.480        33
31.490         7
31.500        20
31.510         7
31.520        40
31.530        20
31.540        13
31.550         7
31.560        20
31.570        20
31.580        27
31.590        33
31.600        33
31.610        20
31.620        20
31.630        33
31.640        20
31.650        20
31.660        33
31.670        60
31.680        27
31.690         7
31.700        27
31.710        40
31.720        33
31.730        13
31.740        13
31.750        27
31.760        20
31.770        20
31.780        27
31.790        20
31.800        27
31.810        13
31.820        27
31.830        33
31.840        13
31.850        20
31.860        53
31.870        27
31.880        27
31.890        27
31.900        20
31.910         7
31.920        20
31.930        27
31.940        40
31.950        40
31.960        20
31.970        13
31.980        47
31.990        13
32.000        47
32.010        53
32.020        47
32.030        33
32.040        47
32.050        80
32.060        47
32.070        67
32.080        67
32.090        73
32.100        33
32.110        47
32.120       113
32.130        47
32.140        33
32.150       100
32.160        40
32.170        53
32.180        33
32.190        27
32.200        33
32.210        80
32.220        73
32.230        73
32.240        47
32.250       113
32.260        80
32.270        40
32.280        80
32.290        67
32.300        47
32.310        40
32.320        53
32.330        33
32.340        60
32.350        60
32.360        53
32.370        33
32.380        33
32.390        20
32.400        53
32.410        40
32.420        47
32.430        60
32.440        13
32.450        20
32.460        27
32.470        47
32.480        47
32.490        20
32.500        73
32.510        13
32.520        40
32.530        47
32.540        53
32.550        33
32.560        27
32.570        40
32.580        33
32.590        53
32.600        47
32.610        60
32.620        60
32.630        53
32.640        73
32.650        53
32.660        67
32.670        47
32.680        60
32.690        87
32.700        93
32.710       107
32.720        60
32.730        87
32.740        47
32.750       107
32.760        73
32.770        80
32.780       113
32.790        73
32.800        60
32.810        60
32.820        87
32.830        53
32.840        53
32.850        93
32.860        53
32.870        80
32.880        20
32.890        73
32.900        40
32.910        60
32.920        47
32.930        67
32.940        53
32.950        40
32.960        80
32.970        47
32.980        33
32.990        40
33.000        20
33.010        40
33.020        40
33.030        53
33.040        20
33.050        40
33.060        40
33.070        47
33.080        20
33.090        20
33.100        33
33.110        20
33.120        33
33.130        40
33.140        33
33.150        27
33.160        13
33.170        27
33.180        20
33.190        33
33.200        27
33.210        13
33.220        33
33.230        27
33.240        13
33.250        20
33.260        20
33.270        20
33.280        27
33.290        33
33.300        20
33.310        13
33.320         0
33.330        47
33.340        13
33.350        40
33.360        33
33.370        27
33.380        33
33.390        40
33.400        13
33.410         7
33.420        20
33.430        20
33.440        27
33.450        13
33.460        20
33.470         7
33.480        40
33.490        20
33.500        33
33.510        33
33.520        20
33.530        13
33.540        40
33.550        20
33.560        13
33.570        67
33.580        20
33.590        20
33.600         7
33.610         7
33.620         7
33.630        13
33.640         7
33.650        20
33.660        27
33.670        27
33.680        40
33.690         7
33.700        20
33.710        27
33.720        20
33.730        33
33.740        13
33.750        13
33.760        20
33.770        13
33.780        40
33.790        13
33.800        13
33.810        13
33.820        27
33.830        27
33.840        40
33.850        27
33.860        27
33.870        20
33.880        60
33.890        27
33.900        27
33.910         7
33.920        20
33.930        33
33.940        33
33.950        33
33.960         7
33.970        20
33.980        13
33.990        20
34.000        20
34.010        13
34.020        27
34.030        13
34.040        40
34.050         7
34.060        33
34.070        13
34.080        33
34.090        27
34.100        40
34.110        20
34.120        20
34.130        20
34.140        33
34.150        20
34.160        13
34.170        13
34.180        13
34.190        27
34.200        13
34.210        20
34.220        13
34.230        20
34.240        53
34.250        13
34.260        20
34.270         7
34.280        27
34.290        27
34.300        27
34.310         0
34.320        27
34.330        27
34.340        20
34.350        13
34.360        20
34.370        20
34.380        20
34.390        27
34.400         7
34.410        13
34.420        40
34.430        27
34.440        20
34.450        27
34.460        33
34.470        20
34.480        20
34.490        13
34.500        47
34.510        33
34.520         7
34.530        33
34.540        33
34.550        33
34.560        40
34.570        27
34.580        27
34.590        40
34.600        20
34.610        20
34.620        47
34.630        60
34.640         7
34.650        40
34.660        40
34.670        40
34.680        40
34.690        60
34.700        27
34.710        13
34.720        47
34.730        13
34.740        27
34.750        47
34.760        73
34.770        20
34.780        67
34.790        27
34.800        27
34.810        27
34.820        53
34.830        67
34.840        40
34.850        33
34.860        40
34.870        47
34.880        13
34.890        53
34.900        47
34.910        27
34.920        40
34.930        27
34.940        33
34.950        40
34.960        20
34.970        47
34.980        40
34.990        40
35.000        40
35.010        47
35.020        40
35.030        13
35.040        47
35.050        40
35.060        33
35.070        33
35.080         7
35.090        33
35.100        40
35.110         0
35.120        53
35.130        40
35.140        60
35.150        33
35.160        47
35.170        73
35.180        60
35.190       133
35.200       127
35.210       100
35.220       127
35.230       153
35.240        93
35.250        67
35.260        67
35.270        73
35.280        33
35.290        87
35.300        60
35.310        80
35.320        60
35.330        60
35.340        47
35.350        20
35.360        20
35.370        20
35.380        20
35.390        27
35.400        40
35.410        20
35.420        27
35.430         7
35.440        20
35.450        40
35.460        27
35.470        13
35.480        33
35.490        13
35.500         7
35.510        20
35.520        13
35.530        27
35.540        27
35.550        40
35.560        33
35.570        13
35.580        20
35.590        40
35.600        60
35.610        13
35.620        27
35.630        20
35.640        33
35.650        33
35.660        20
35.670        33
35.680        40
35.690         7
35.700        13
35.710        13
35.720        40
35.730        20
35.740        20
35.750         7
35.760        13
35.770        13
35.780        67
35.790        33
35.800         0
35.810        13
35.820        40
35.830        13
35.840        13
35.850        27
35.860        20
35.870        20
35.880        27
35.890        13
35.900        27
35.910        27
35.920        20
35.930         7
35.940        20
35.950        47
35.960        40
35.970        20
35.980        27
35.990        27
36.000        33
36.010         7
36.020        40
36.030        40
36.040        27
36.050        27
36.060        40
36.070        13
36.080        27
36.090        73
36.100         7
36.110        33
36.120        33
36.130        13
36.140        40
36.150         7
36.160        20
36.170         7
36.180        33
36.190        33
36.200        20
36.210        47
36.220         7
36.230        20
36.240        27
36.250        27
36.260         0
36.270        33
36.280        40
36.290        20
36.300         0
36.310         0
36.320        20
36.330        20
36.340        27
36.350        13
36.360        53
36.370        20
36.380        20
36.390        20
36.400         7
36.410        13
36.420        47
36.430         7
36.440        40
36.450        20
36.460        20
36.470         0
36.480        33
36.490        13
36.500        13
36.510        47
36.520        33
36.530        53
36.540        13
36.550        20
36.560        20
36.570        27
36.580        27
36.590         7
36.600        13
36.610        27
36.620        13
36.630         7
36.640         7
36.650        13
36.660        20
36.670         7
36.680         7
36.690        13
36.700        40
36.710        33
36.720         0
36.730        40
36.740        13
36.750        20
36.760        13
36.770         0
36.780        20
36.790        20
36.800        33
36.810        13
36.820        13
36.830         7
36.840        47
36.850        20
36.860         7
36.870        20
36.880        33
36.890        20
36.900        20
36.910        33
36.920        33
36.930        33
36.940        20
36.950        33
36.960        20
36.970         0
36.980        20
36.990        33
37.000        20
37.010        20
37.020        20
37.030        33
37.040        13
37.050        33
37.060        13
37.070        27
37.080        40
37.090        20
37.100        20
37.110        33
37.120        13
37.130         7
37.140        27
37.150        27
37.160         7
37.170         7
37.180        20
37.190        27
37.200         7
37.210         0
37.220         7
37.230        33
37.240        33
37.250        13
37.260        13
37.270        33
37.280        20
37.290         0
37.300        20
37.310        33
37.320        20
37.330        20
37.340        40
37.350        27
37.360        33
37.370         7
37.380        20
37.390        33
37.400        20
37.410        20
37.420         7
37.430        47
37.440        20
37.450        33
37.460        20
37.470        13
37.480        20
37.490         7
37.500        20
37.510        20
37.520        40
37.530        13
37.540         7
37.550        20
37.560        20
37.570        13
37.580        13
37.590        20
37.600        53
37.610        33
37.620        20
37.630        20
37.640        20
37.650        20
37.660        20
37.670        13
37.680         7
37.690        40
37.700        33
37.710        33
37.720        27
37.730        20
37.740        27
37.750        40
37.760        40
37.770        33
37.780        20
37.790        33
37.800        27
37.810        27
37.820        53
37.830        20
37.840        33
37.850        40
37.860        20
37.870        27
37.880        13
37.890        27
37.900        53
37.910        40
37.920         7
37.930        33
37.940        33
37.950        27
37.960        20
37.970        27
37.980         7
37.990        13
38.000        47
38.010        20
38.020         7
38.030        20
38.040        27
38.050        20
38.060        27
38.070        13
38.080        20
38.090        13
38.100        33
38.110         7
38.120        20
38.130        20
38.140         7
38.150        47
38.160        20
38.170        33
38.180         7
38.190        27
38.200         7
38.210        20
38.220        40
38.230         7
38.240         0
38.250         7
38.260        27
38.270        27
38.280        13
38.290        13
38.300        20
38.310        13
38.320         7
38.330        40
38.340         7
38.350        27
38.360        20
38.370         7
38.380        33
38.390        20
38.400        27
38.410        20
38.420         0
38.430        13
38.440        20
38.450        20
38.460        20
38.470         7
38.480        20
38.490        27
38.500        20
38.510        13
38.520        27
38.530        13
38.540        20
38.550        33
38.560        20
38.570        13
38.580        13
38.590        53
38.600        33
38.610        20
38.620        27
38.630         7
38.640        20
38.650        20
38.660        13
38.670        40
38.680        40
38.690        27
38.700        33
38.710        20
38.720        27
38.730         7
38.740         7
38.750        40
38.760        27
38.770        47
38.780        20
38.790        40
38.800        27
38.810        20
38.820        27
38.830        27
38.840        33
38.850        47
38.860        40
38.870        20
38.880         7
38.890        40
38.900        33
38.910         7
38.920        27
38.930        47
38.940        27
38.950        60
38.960        20
38.970        20
38.980         7
38.990        33
39.000        47
39.010        20
39.020         0
39.030        47
39.040        67
39.050        60
39.060         7
39.070        53
39.080        13
39.090        13
39.100        20
39.110        27
39.120        20
39.130         7
39.140        27
39.150        33
39.160        60
39.170        20
39.180        40
39.190        27
39.200        60
39.210         7
39.220        47
39.230        13
39.240        33
39.250        20
39.260        13
39.270        27
39.280        27
39.290        13
39.300        20
39.310        40
39.320        33
39.330        20
39.340        20
39.350         0
39.360        47
39.370        20
39.380        20
39.390        13
39.400        13
39.410         0
39.420        27
39.430        40
39.440        40
39.450         7
39.460        13
39.470        27
39.480        20
39.490         7
39.500        27
39.510        20
39.520        13
39.530         7
39.540        47
39.550        20
39.560        33
39.570         7
39.580        20
39.590        13
39.600        27
39.610        13
39.620        33
39.630        20
39.640        27
39.650        40
39.660        13
39.670         7
39.680        27
39.690        20
39.700        20
39.710        33
39.720        27
39.730        20
39.740        47
39.750        13
39.760         7
39.770        27
39.780        27
39.790        13
39.800        20
39.810        20
39.820        27
39.830         7
39.840        20
39.850        20
39.860        33
39.870        20
39.880        40
39.890        53
39.900        60
39.910        27
39.920        13
39.930        13
39.940         0
39.950        40
39.960        20
39.970        27
39.980        47
39.990        33
40.000        60
40.010        33
40.020        80
40.030        33
40.040        80
40.050        27
40.060        47
40.070        60
40.080        80
40.090       153
40.100       107
40.110       113
40.120       120
40.130       167
40.140       173
40.150       180
40.160       133
40.170       180
40.180       193
40.190       193
40.200       200
40.210       173
40.220       133
40.230       167
40.240       193
40.250       140
40.260       207
40.270       187
40.280       227
40.290       173
40.300       180
40.310       133
40.320       180
40.330       147
40.340       160
40.350       187
40.360       120
40.370       100
40.380        93
40.390       107
40.400       120
40.410       160
40.420       120
40.430       133
40.440       120
40.450       140
40.460       133
40.470       167
40.480       160
40.490       120
40.500        53
40.510       100
40.520        53
40.530        80
40.540        87
40.550       100
40.560        87
40.570       100
40.580        60
40.590        67
40.600        73
40.610        87
40.620        60
40.630        53
40.640        27
40.650        33
40.660        73
40.670        73
40.680        67
40.690        47
40.700        27
40.710        60
40.720        40
40.730        27
40.740        27
40.750        33
40.760        53
40.770        40
40.780        20
40.790        33
40.800        33
40.810        27
40.820        13
40.830         0
40.840        33
40.850        33
40.860        33
40.870         7
40.880        47
40.890        33
40.900        33
40.910        20
40.920        13
40.930        13
40.940        13
40.950        13
40.960        20
40.970        20
40.980        33
40.990         0
41.000         0
41.010        47
41.020        20
41.030        33
41.040        20
41.050        20
41.060        20
41.070        13
41.080        33
41.090        60
41.100        13
41.110        33
41.120        20
41.130         7
41.140        20
41.150        27
41.160        40
41.170        20
41.180        33
41.190        27
41.200        13
41.210        13
41.220        33
41.230         7
41.240        40
41.250        27
41.260        33
41.270        27
41.280        27
41.290        20
41.300        13
41.310        20
41.320        33
41.330        20
41.340        13
41.350        33
41.360        27
41.370        20
41.380         7
41.390        27
41.400        27
41.410        27
41.420         7
41.430        20
41.440        40
41.450        33
41.460        20
41.470         7
41.480        20
41.490        27
41.500        40
41.510        27
41.520        20
41.530        20
41.540        13
41.550        27
41.560        20
41.570        40
41.580        53
41.590        67
41.600        27
41.610        20
41.620        67
41.630        53
41.640        67
41.650        47
41.660        87
41.670        60
41.680        73
41.690       120
41.700       180
41.710       113
41.720       120
41.730        93
41.740       133
41.750       127
41.760       113
41.770       147
41.780       107
41.790        53
41.800        80
41.810       127
41.820        87
41.830        60
41.840        93
41.850        60
41.860        67
41.870        13
41.880        73
41.890        47
41.900        47
41.910        27
41.920        33
41.930        20
41.940        13
41.950        33
41.960        20
41.970        33
41.980        27
41.990        13
42.000        20
42.010        67
42.020        60
42.030        13
42.040        27
42.050         7
42.060        53
42.070        33
42.080         7
42.090        13
42.100        20
42.110        13
42.120        47
42.130        13
42.140        27
42.150        53
42.160        20
42.170        13
42.180        13
42.190        20
42.200        27
42.210         7
42.220         7
42.230        60
42.240        20
42.250        27
42.260        13
42.270        47
42.280        13
42.290        13
42.300        13
42.310        27
42.320        53
42.330        40
42.340        27
42.350        53
42.360        20
42.370        47
42.380         7
42.390        13
42.400        13
42.410        20
42.420        13
42.430         7
42.440        33
42.450        40
42.460        27
42.470        13
42.480        33
42.490        20
42.500        27
42.510        20
42.520        13
42.530        33
42.540        27
42.550        20
42.560         0
42.570        27
42.580        20
42.590         7
42.600        27
42.610        13
42.620        13
42.630        20
42.640        27
42.650        13
42.660        33
42.670        20
42.680         7
42.690        20
42.700        20
42.710         7
42.720         0
42.730        47
42.740         7
42.750        47
42.760        27
42.770        13
42.780         7
42.790        20
42.800        40
42.810        40
42.820        13
42.830        13
42.840        13
42.850        20
42.860        27
42.870        20
42.880        20
42.890         7
42.900        27
42.910        47
42.920        27
42.930        20
42.940        47
42.950        13
42.960         7
42.970        20
42.980        20
42.990        13
43.000        33
43.010         0
43.020         0
43.030        33
43.040        20
43.050        13
43.060        13
43.070        13
43.080         7
43.090         0
43.100        33
43.110        27
43.120        27
43.130        40
43.140        20
43.150        40
43.160        33
43.170        20
43.180        27
43.190        20
43.200        20
43.210        27
43.220        13
43.230        33
43.240        40
43.250        47
43.260        13
43.270        20
43.280         7
43.290        27
43.300        33
43.310        53
43.320        33
43.330        47
43.340        60
43.350        47
43.360        53
43.370        47
43.380        73
43.390        73
43.400        60
43.410        60
43.420        60
43.430        20
43.440        60
43.450        27
43.460        47
43.470        40
43.480        87
43.490        60
43.500        53
43.510        47
43.520        60
43.530        20
43.540        33
43.550        13
43.560        33
43.570        40
43.580        33
43.590        40
43.600        20
43.610        27
43.620        20
43.630        13
43.640        27
43.650        27
43.660        33
43.670        27
43.680        60
43.690        27
43.700        33
43.710        33
43.720        53
43.730        33
43.740        27
43.750        20
43.760         7
43.770         7
43.780         7
43.790        27
43.800        40
43.810        33
43.820        20
43.830        13
43.840        20
43.850        20
43.860        13
43.870        27
43.880        33
43.890         0
43.900        27
43.910        20
43.920        20
43.930        27
43.940        33
43.950         7
43.960        27
43.970        60
43.980         7
43.990         7
44.000        13
44.010        27
44.020        13
44.030        13
44.040        40
44.050        20
44.060        13
44.070        13
44.080         0
44.090        20
44.100        13
44.110        20
44.120        20
44.130        27
44.140        27
44.150        13
44.160        13
44.170        13
44.180        13
44.190        27
44.200        13
44.210        27
44.220        20
44.230        47
44.240        27
44.250        27
44.260         7
44.270        27
44.280        20
44.290        33
44.300        13
44.310        40
44.320        20
44.330        13
44.340        13
44.350        20
44.360         7
44.370        27
44.380        33
44.390        13
44.400         7
44.410        13
44.420        20
44.430         7
44.440        13
44.450        47
44.460        13
44.470         0
44.480        13
44.490        20
44.500        20
44.510        47
44.520        33
44.530        13
44.540        13
44.550         7
44.560        33
44.570        20
44.580        27
44.590        20
44.600        20
44.610        20
44.620        20
44.630        20
44.640        20
44.650        13
44.660        20
44.670        53
44.680        27
44.690        47
44.700        13
44.710        20
44.720        20
44.730        20
44.740        20
44.750        27
44.760        13
44.770         0
44.780        13
44.790        33
44.800        20
44.810        20
44.820        20
44.830        13
44.840        33
44.850        47
44.860         7
44.870        20
44.880        20
44.890        20
44.900        20
44.910        33
44.920        27
44.930        33
44.940        27
44.950        27
44.960        13
44.970        13
44.980        13
44.990         0
45.000        13
45.010        47
45.020        13
45.030         0
45.040        33
45.050         0
45.060        33
45.070        33
45.080         7
45.090        33
45.100        33
45.110         7
45.120        27
45.130        20
45.140        27
45.150        13
45.160        20
45.170        40
45.180        13
45.190         7
45.200         0
45.210        33
45.220        27
45.230        33
45.240        33
45.250        20
45.260         0
45.270        13
45.280        27
45.290        13
45.300        13
45.310        33
45.320        40
45.330        20
45.340        13
45.350        13
45.360        27
45.370        13
45.380        33
45.390        47
45.400        33
45.410        27
45.420        27
45.430        20
45.440         7
45.450        13
45.460         7
45.470        13
45.480        13
45.490        27
45.500        20
45.510         7
45.520        27
45.530        13
45.540        20
45.550        20
45.560        27
45.570         7
45.580         7
45.590        27
45.600        13
45.610        20
45.620         7
45.630         0
45.640        13
45.650        27
45.660        33
45.670        33
45.680         7
45.690        13
45.700        33
45.710        27
45.720        27
45.730        20
45.740        33
45.750        20
45.760         7
45.770        33
45.780         7
45.790        27
45.800        33
45.810        27
45.820         7
45.830        13
45.840        13
45.850        27
45.860        13
45.870         7
45.880         7
45.890         7
45.900        20
45.910        27
45.920        40
45.930        20
45.940        20
45.950        20
45.960        33
45.970        33
45.980        47
45.990        40
46.000        20
46.010        40
46.020        53
46.030        40
46.040        27
46.050        33
46.060        20
46.070        20
46.080        33
46.090        53
46.100        53
46.110        47
46.120        20
46.130        47
46.140        20
46.150        60
46.160        27
46.170        40
46.180        40
46.190        40
46.200        47
46.210        20
46.220        33
46.230        20
46.240        27
46.250        33
46.260        27
46.270        20
46.280        47
46.290        53
46.300        20
46.310        20
46.320        53
46.330        20
46.340        27
46.350        27
46.360        47
46.370        33
46.380        67
46.390        27
46.400        33
46.410        33
46.420        27
46.430        47
46.440        20
46.450        33
46.460        33
46.470        53
46.480        40
46.490        20
46.500        40
46.510        40
46.520        13
46.530        20
46.540        53
46.550        20
46.560        40
46.570         7
46.580        20
46.590         7
46.600        33
46.610        33
46.620        40
46.630        40
46.640        53
46.650        67
46.660        80
46.670        67
46.680       107
46.690        33
46.700        73
46.710        33
46.720        67
46.730        93
46.740        80
46.750        53
46.760        60
46.770        67
46.780        67
46.790        93
46.800        93
46.810       100
46.820        33
46.830        47
46.840        67
46.850        67
46.860       107
46.870        93
46.880        67
46.890        80
46.900        53
46.910        53
46.920        27
46.930        67
46.940        80
46.950        40
46.960       100
46.970        87
46.980        73
46.990        60
47.000        47
47.010        47
47.020        33
47.030        53
47.040        60
47.050        93
47.060        27
47.070        53
47.080        33
47.090        47
47.100         7
47.110        53
47.120        33
47.130        33
47.140        13
47.150        40
47.160        20
47.170        40
47.180        13
47.190        13
47.200        27
47.210        13
47.220        27
47.230        27
47.240        13
47.250        20
47.260        27
47.270        40
47.280         7
47.290        27
47.300        27
47.310        13
47.320        20
47.330        20
47.340        40
47.350        13
47.360        13
47.370        13
47.380        20
47.390        13
47.400        13
47.410        20
47.420         7
47.430        47
47.440        27
47.450        13
47.460        27
47.470        13
47.480        27
47.490        13
47.500         0
47.510        33
47.520        20
47.530         7
47.540         7
47.550        33
47.560        27
47.570         7
47.580        27
47.590        27
47.600        33
47.610        13
47.620        13
47.630        13
47.640        33
47.650         7
47.660         7
47.670         7
47.680         7
47.690        20
47.700        13
47.710        20
47.720        20
47.730        13
47.740        27
47.750        40
47.760         0
47.770        13
47.780        20
47.790         7
47.800         0
47.810        20
47.820        27
47.830         7
47.840        33
47.850        20
47.860        33
47.870         7
47.880        13
47.890        40
47.900         7
47.910         7
47.920         0
47.930        20
47.940        13
47.950        20
47.960         0
47.970        13
47.980         7
47.990        27
48.000        13
48.010        20
48.020        13
48.030         7
48.040        20
48.050        13
48.060        33
48.070        40
48.080        33
48.090        53
48.100        60
48.110        20
48.120         0
48.130        40
48.140        27
48.150        20
48.160        40
48.170        13
48.180        67
48.190        47
48.200        20
48.210        20
48.220        40
48.230        53
48.240        53
48.250        33
48.260        13
48.270        47
48.280        27
48.290        67
48.300        73
48.310        47
48.320        53
48.330        27
48.340        53
48.350        40
48.360        40
48.370        27
48.380        40
48.390        20
48.400        47
48.410        27
48.420        20
48.430        40
48.440        20
48.450        53
48.460        40
48.470        20
48.480        40
48.490        40
48.500        40
48.510        20
48.520        20
48.530         7
48.540        47
48.550        13
48.560        60
48.570        27
48.580         7
48.590        13
48.600        20
48.610        33
48.620        13
48.630        27
48.640        27
48.650        13
48.660        20
48.670        33
48.680        27
48.690        20
48.700        40
48.710        27
48.720        27
48.730        27
48.740        33
48.750        60
48.760        33
48.770        13
48.780        20
48.790        27
48.800         7
48.810        47
48.820         7
48.830        40
48.840        27
48.850        33
48.860        33
48.870        27
48.880        27
48.890        40
48.900        60
48.910        27
48.920        47
48.930        27
48.940        20
48.950        53
48.960        27
48.970        20
48.980        20
48.990        33
49.000         7
49.010        27
49.020        33
49.030        27
49.040        27
49.050        27
49.060        40
49.070        20
49.080        13
49.090        20
49.100        27
49.110        27
49.120        60
49.130        13
49.140        27
49.150        33
49.160        20
49.170        20
49.180        27
49.190        13
49.200        27
49.210        13
49.220         7
49.230        27
49.240         7
49.250        13
49.260        33
49.270         0
49.280        27
49.290        13
49.300        13
49.310         0
49.320        33
49.330        33
49.340        33
49.350         0
49.360         7
49.370        27
49.380         7
49.390         7
49.400        13
49.410        27
49.420         0
49.430        27
49.440        13
49.450         7
49.460         7
49.470        47
49.480        20
49.490        20
49.500        27
49.510        13
49.520        27
49.530         7
49.540         7
49.550        33
49.560        27
49.570        33
49.580        27
49.590        13
49.600        20
49.610        40
49.620        40
49.630         7
49.640        27
49.650        27
49.660        20
49.670        47
49.680        20
49.690        20
49.700        53
49.710         7
49.720        27
49.730        20
49.740        33
49.750        27
49.760        13
49.770        33
49.780        73
49.790        40
49.800        40
49.810        53
49.820        33
49.830        60
49.840        60
49.850        80
49.860        47
49.870        53
49.880        67
49.890        47
49.900        53
49.910        60
49.920        40
49.930        47
49.940        47
49.950        33
49.960        47
49.970        47
49.980        47
49.990        27
50.000        20
50.010        40
50.020        47
50.030        33
50.040        13
50.050        67
50.060        60
50.070        73
50.080        67
50.090        93
50.100        67
50.110        33
50.120        20
50.130        53
50.140        33
50.150        93
50.160        60
50.170       113
50.180        87
50.190        40
50.200        27
50.210        47
50.220        60
50.230        47
50.240        33
50.250        60
50.260        67
50.270        40
50.280        20
50.290        47
50.300        40
50.310        53
50.320        27
50.330        40
50.340        13
50.350        20
50.360        20
50.370        40
50.380        60
50.390        47
50.400        40
50.410        20
50.420        40
50.430        20
50.440        27
50.450        27
50.460         7
50.470        13
50.480         7
50.490        47
50.500         0
50.510        20
50.520        27
50.530        33
50.540        47
50.550         7
50.560        27
50.570        27
50.580        13
50.590        33
50.600        40
50.610        67
50.620        27
50.630        53
50.640        20
50.650        20
50.660        20
50.670         0
50.680        13
50.690         7
50.700        27
50.710         0
50.720        47
50.730        20
50.740        40
50.750        20
50.760        33
50.770         7
50.780        13
50.790        27
50.800        13
50.810        13
50.820        33
50.830        27
50.840        20
50.850        13
50.860        13
50.870        13
50.880        27
50.890         7
50.900        20
50.910        27
50.920         7
50.930        47
50.940        27
50.950        27
50.960        13
50.970        13
50.980        13
50.990        13
51.000         7
51.010        33
51.020         7
51.030         0
51.040        13
51.050         7
51.060        20
51.070        27
51.080        20
51.090        20
51.100         0
51.110         0
51.120        33
51.130         7
51.140         7
51.150        33
51.160         7
51.170        33
51.180        27
51.190        47
51.200         7
51.210        20
51.220        13
51.230         0
51.240        33
51.250        13
51.260        20
51.270        20
51.280        27
51.290        27
51.300        20
51.310        27
51.320         0
51.330        27
51.340        27
51.350        27
51.360        20
51.370        20
51.380        13
51.390        20
51.400        13
51.410        20
51.420        40
51.430        40
51.440        27
51.450         7
51.460        40
51.470        47
51.480        20
51.490        27
51.500        40
51.510        40
51.520        47
51.530        40
51.540        13
51.550        47
51.560        47
51.570        47
51.580        40
51.590        20
51.600        33
51.610         7
51.620        33
51.630         7
51.640        27
51.650        53
51.660        40
51.670        27
51.680        40
51.690        27
51.700        60
51.710        20
51.720        13
51.730        27
51.740        13
51.750        53
51.760        27
51.770        27
51.780        27
51.790        60
51.800        67
51.810        40
51.820        40
51.830        73
51.840        33
51.850        67
51.860        33
51.870        27
51.880        40
51.890        40
51.900        13
51.910        53
51.920        67
51.930        53
51.940        27
51.950        40
51.960        53
51.970        33
51.980        80
51.990        40
52.000        47
52.010         0
52.020        33
52.030        13
52.040        47
52.050        40
52.060        13
52.070         0
52.080        40
52.090        40
52.100        13
52.110        27
52.120        33
52.130        27
52.140        53
52.150        27
52.160        27
52.170        20
52.180        27
52.190        20
52.200        13
52.210        33
52.220        20
52.230        27
52.240        20
52.250         7
52.260        13
52.270        20
52.280        13
52.290         7
52.300        20
52.310         7
52.320        27
52.330        13
52.340        20
52.350        20
52.360         7
52.370        13
52.380        27
52.390        13
52.400         7
52.410        20
52.420        40
52.430        13
52.440        27
52.450        20
52.460         7
52.470        13
52.480        13
52.490        13
52.500        40
52.510        40
52.520        20
52.530        33
52.540        33
52.550        13
52.560        27
52.570        67
52.580        13
52.590         7
52.600        20
52.610         7
52.620        20
52.630         0
52.640        53
52.650         7
52.660        20
52.670        20
52.680        13
52.690        40
52.700         7
52.710        20
52.720        40
52.730         7
52.740        40
52.750        13
52.760        13
52.770         0
52.780        20
52.790        20
52.800        13
52.810        27
52.820        13
52.830        13
52.840         7
52.850        40
52.860         7
52.870         7
52.880        20
52.890        13
52.900         0
52.910        13
52.920        13
52.930         7
52.940        13
52.950         0
52.960         0
52.970        27
52.980         7
52.990         0
53.000         0
53.010        27
53.020         7
53.030        27
53.040         7
53.050         7
53.060        27
53.070         7
53.080         7
53.090        20
53.100        27
53.110        13
53.120         7
53.130         0
53.140         7
53.150        13
53.160         7
53.170        13
53.180        33
53.190        27
53.200        27
53.210        13
53.220        20
53.230         0
53.240        13
53.250        33
53.260        20
53.270        20
53.280        40
53.290        20
53.300         0
53.310         7
53.320        27
53.330        27
53.340         7
53.350        13
53.360        20
53.370        27
53.380        27
53.390         0
53.400         7
53.410        13
53.420        20
53.430        20
53.440        20
53.450        13
53.460        13
53.470         7
53.480        27
53.490        27
53.500        33
53.510        20
53.520        13
53.530        27
53.540        27
53.550        20
53.560        33
53.570        13
53.580        13
53.590        20
53.600        13
53.610         7
53.620         7
53.630        20
53.640        40
53.650        27
53.660         0
53.670         7
53.680        20
53.690        33
53.700        27
53.710        33
53.720        27
53.730         7
53.740        20
53.750        33
53.760         7
53.770        20
53.780        27
53.790        20
53.800        13
53.810        13
53.820        20
53.830        27
53.840        27
53.850        20
53.860        20
53.870        13
53.880         7
53.890         0
53.900        20
53.910        27
53.920        27
53.930        20
53.940        20
53.950        13
53.960        13
53.970        53
53.980        13
53.990         7
54.000        13
54.010         0
54.020        13
54.030        53
54.040        27
54.050         7
54.060         7
54.070         0
54.080        13
54.090        20
54.100        20
54.110        13
54.120         7
54.130        33
54.140         0
54.150        27
54.160        20
54.170        20
54.180        47
54.190        20
54.200        13
54.210        13
54.220        13
54.230         7
54.240         0
54.250        47
54.260        20
54.270         7
54.280        33
54.290         7
54.300         7
54.310         7
54.320         7
54.330         7
54.340        33
54.350        20
54.360        27
54.370        33
54.380         7
54.390         7
54.400         7
54.410        13
54.420         7
54.430        33
54.440         7
54.450        13
54.460        20
54.470        20
54.480        13
54.490        40
54.500        20
54.510        13
54.520        13
54.530         7
54.540        20
54.550        27
54.560        13
54.570        33
54.580         7
54.590        13
54.600        13
54.610        27
54.620        33
54.630        13
54.640        13
54.650        20
54.660        20
54.670         0
54.680        20
54.690        13
54.700         7
54.710        20
54.720        33
54.730         7
54.740        27
54.750         7
54.760        27
54.770        27
54.780        13
54.790        13
54.800        20
54.810        27
54.820         7
54.830        20
54.840        20
54.850         0
54.860         7
54.870        33
54.880         0
54.890         0
54.900        13
54.910        13
54.920        13
54.930        13
54.940        27
54.950        13
54.960        40
54.970         7
54.980         7
54.990         7
55.000         7
55.010        13
55.020        27
55.030        33
55.040        13
55.050        33
55.060        20
55.070         0
55.080         7
55.090         0
55.100        27
55.110        40
55.120        27
55.130        13
55.140        13
55.150        13
55.160        13
55.170        40
55.180        27
55.190        27
55.200        20
55.210        27
55.220        13
55.230        33
55.240        13
55.250        13
55.260        33
55.270        27
55.280         7
55.290        20
55.300         7
55.310        27
55.320        27
55.330        33
55.340        20
55.350         7
55.360         0
55.370        13
55.380         7
55.390        20
55.400        27
55.410        27
55.420         7
55.430        27
55.440        20
55.450        20
55.460        20
55.470        20
55.480        13
55.490        20
55.500        20
55.510         7
55.520        13
55.530        47
55.540        33
55.550        33
55.560        33
55.570        27
55.580         7
55.590        27
55.600        27
55.610        27
55.620         0
55.630        20
55.640        53
55.650        27
55.660        27
55.670        27
55.680        33
55.690         7
55.700        33
55.710        27
55.720        33
55.730        27
55.740        27
55.750        67
55.760        13
55.770        33
55.780        47
55.790        13
55.800        40
55.810        33
55.820        33
55.830        47
55.840        53
55.850        20
55.860        27
55.870        53
55.880        40
55.890        47
55.900        27
55.910        47
55.920        60
55.930        40
55.940        27
55.950        40
55.960        33
55.970        20
55.980        20
55.990        47
56.000        27
56.010        47
56.020        47
56.030        27
56.040        27
56.050        40
56.060        33
56.070        33
56.080        60
56.090         7
56.100        27
56.110        47
56.120        27
56.130        40
56.140        13
56.150        13
56.160        40
56.170        20
56.180         7
56.190        27
56.200         7
56.210        20
56.220        33
56.230        40
56.240        27
56.250         7
56.260        20
56.270        67
56.280        33
56.290        47
56.300         0
56.310        40
56.320        33
56.330         0
56.340        67
56.350        20
56.360        47
56.370        33
56.380        13
56.390        20
56.400         7
56.410        33
56.420        33
56.430        13
56.440        27
56.450         7
56.460        27
56.470        27
56.480        20
56.490        40
56.500         7
56.510        40
56.520        20
56.530        33
56.540        20
56.550        13
56.560        20
56.570        13
56.580        27
56.590         0
56.600        13
56.610        13
56.620        27
56.630        40
56.640        20
56.650        33
56.660        33
56.670        13
56.680        27
56.690        20
56.700        20
56.710        20
56.720         7
56.730        20
56.740         0
56.750         7
56.760        20
56.770        20
56.780        27
56.790         7
56.800        27
56.810        20
56.820         0
56.830        20
56.840        27
56.850        13
56.860        20
56.870        27
56.880         7
56.890        13
56.900        13
56.910         7
56.920        13
56.930        13
56.940        47
56.950        40
56.960        20
56.970        20
56.980        27
56.990        13
57.000         7
57.010        20
57.020         0
57.030        13
57.040        20
57.050        20
57.060        20
57.070        20
57.080        13
57.090         0
57.100        27
57.110        20
57.120        27
57.130         0
57.140        27
57.150        20
57.160        27
57.170        13
57.180        20
57.190        13
57.200        40
57.210        27
57.220        27
57.230        13
57.240        33
57.250        33
57.260        27
57.270        67
57.280        13
57.290        13
57.300        20
57.310        20
57.320         7
57.330        27
57.340        27
57.350        20
57.360        53
57.370        27
57.380         7
57.390        40
57.400        20
57.410        20
57.420        27
57.430        20
57.440        33
57.450        20
57.460        27
57.470        60
57.480        73
57.490        80
57.500        60
57.510       133
57.520       147
57.530       147
57.540       153
57.550       167
57.560       147
57.570       140
57.580       107
57.590       107
57.600        80
57.610        80
57.620        67
57.630        47
57.640        87
57.650        60
57.660        67
57.670        47
57.680        73
57.690        73
57.700        67
57.710        67
57.720        80
57.730        60
57.740        73
57.750        73
57.760        60
57.770        33
57.780        33
57.790        20
57.800        40
57.810         7
57.820        27
57.830        13
57.840        13
57.850        13
57.860        20
57.870        20
57.880         7
57.890        33
57.900        27
57.910        33
57.920        27
57.930        13
57.940        27
57.950         7
57.960        33
57.970        47
57.980        27
57.990        20
58.000         0
58.010        27
58.020        27
58.030         0
58.040        13
58.050        13
58.060        13
58.070        27
58.080        20
58.090        33
58.100        20
58.110        33
58.120        27
58.130        20
58.140        13
58.150        27
58.160        13
58.170         7
58.180        20
58.190        27
58.200         7
58.210        33
58.220        27
58.230        53
58.240        27
58.250        13
58.260        20
58.270         7
58.280         0
58.290         0
58.300        20
58.310        13
58.320        20
58.330         0
58.340         7
58.350        13
58.360         0
58.370        13
58.380        20
58.390        20
58.400         0
58.410        27
58.420        20
58.430        20
58.440        13
58.450        20
58.460        13
58.470         7
58.480        40
58.490        27
58.500        20
58.510        20
58.520        20
58.530        20
58.540        13
58.550         7
58.560         7
58.570        33
58.580        20
58.590        20
58.600         7
58.610        20
58.620         0
58.630        13
58.640        20
58.650        20
58.660         0
58.670        20
58.680        27
58.690        13
58.700        40
58.710        20
58.720        27
58.730         7
58.740         7
58.750        13
58.760         0
58.770         0
58.780        13
58.790         0
58.800        27
58.810        13
58.820        20
58.830        13
58.840        13
58.850        27
58.860        27
58.870        33
58.880        13
58.890        20
58.900         0
58.910        20
58.920         0
58.930        13
58.940        13
58.950         7
58.960        13
58.970        27
58.980        13
58.990        13
59.000        13
59.010        33
59.020        20
59.030        13
59.040         7
59.050        27
59.060        13
59.070        33
59.080        27
59.090        13
59.100         7
59.110        33
59.120         7
59.130        27
59.140        20
59.150        13
59.160         0
59.170         7
59.180        13
59.190        20
59.200        40
59.210        27
59.220        13
59.230        27
59.240         7
59.250        20
59.260         7
59.270         7
59.280        33
59.290        13
59.300        13
59.310        20
59.320        20
59.330        20
59.340        20
59.350        27
59.360        20
59.370         7
59.380        13
59.390        20
59.400        27
59.410        33
59.420        13
59.430        13
59.440        13
59.450        27
59.460        13
59.470        20
59.480        13
59.490         7
59.500         7
59.510        27
59.520        40
59.530        27
59.540         7
59.550        20
59.560        13
59.570        20
59.580        27
59.590         0
59.600         7
59.610        20
59.620        27
59.630         7
59.640        33
59.650         0
59.660        20
59.670        13
59.680        40
59.690        27
59.700         7
59.710         0
59.720        13
59.730        13
59.740        27
59.750        13
59.760        13
59.770         7
59.780         7
59.790        20
59.800        40
59.810        13
59.820        20
59.830        27
59.840        13
59.850        20
59.860        20
59.870         7
59.880        20
59.890        13
59.900        40
59.910         0
59.920        13
59.930         0
59.940        27
59.950         7
59.960         7
59.970        33
59.980         7
59.990         0
60.000        13
