20.000        13
20.010        27
20.020        13
20.030        13
20.040        27
20.050        53
20.060        40
20.070        40
20.080        13
20.090        40
20.100        93
20.110        27
20.120         0
20.130        53
20.140        40
20.150        53
20.160        27
20.170        53
20.180        40
20.190        40
20.200        40
20.210        53
20.220        80
20.230         0
20.240        80
20.250        27
20.260        27
20.270        80
20.280        53
20.290        27
20.300        40
20.310        53
20.320        53
20.330        27
20.340        27
20.350        53
20.360         0
20.370        27
20.380        80
20.390        40
20.400        27
20.410        27
20.420        40
20.430        80
20.440        53
20.450        40
20.460        67
20.470        67
20.480        27
20.490        27
20.500        53
20.510        27
20.520        27
20.530        40
20.540         0
20.550        40
20.560        80
20.570        27
20.580        13
20.590        67
20.600         0
20.610        13
20.620        80
20.630        27
20.640        27
20.650        40
20.660        27
20.670        13
20.680        13
20.690        53
20.700        13
20.710        27
20.720        67
20.730        53
20.740        93
20.750        27
20.760        27
20.770        27
20.780        13
20.790        27
20.800        40
20.810        13
20.820        53
20.830        53
20.840        40
20.850        53
20.860        80
20.870        53
20.880        40
20.890        67
20.900        40
20.910        27
20.920        13
20.930        80
20.940        40
20.950        53
20.960       107
20.970        53
20.980        80
20.990        53
21.000        27
21.010        53
21.020        13
21.030        13
21.040        27
21.050        53
21.060       107
21.070        53
21.080        67
21.090        27
21.100        13
21.110        93
21.120         0
21.130        13
21.140        40
21.150        80
21.160        27
21.170        53
21.180        13
21.190        40
21.200        27
21.210        53
21.220        27
21.230        53
21.240        53
21.250        40
21.260        40
21.270        27
21.280        67
21.290        40
21.300        53
21.310        53
21.320        27
21.330        93
21.340        67
21.350        40
21.360        27
21.370        27
21.380        13
21.390        40
21.400        40
21.410        13
21.420        13
21.430       107
21.440        27
21.450        27
21.460        13
21.470        80
21.480        40
21.490        13
21.500        27
21.510        53
21.520        40
21.530        53
21.540        53
21.550        53
21.560        53
21.570        53
21.580        53
21.590        27
21.600        67
21.610        27
21.620        13
21.630        13
21.640        67
21.650        67
21.660        67
21.670        40
21.680        40
21.690        80
21.700        53
21.710        53
21.720        40
21.730        13
21.740        53
21.750        27
21.760        40
21.770        67
21.780        80
21.790        40
21.800        40
21.810        40
21.820        53
21.830        27
21.840        40
21.850        27
21.860        80
21.870        13
21.880        27
21.890        40
21.900        53
21.910        67
21.920        13
21.930        67
21.940        27
21.950        53
21.960        40
21.970         0
21.980        67
21.990        93
22.000        27
22.010        27
22.020        13
22.030        40
22.040        27
22.050        40
22.060        13
22.070        13
22.080        27
22.090        13
22.100        27
22.110        27
22.120        53
22.130        27
22.140        13
22.150        27
22.160        40
22.170        27
22.180        53
22.190        93
22.200        27
22.210        40
22.220        27
22.230        27
22.240        53
22.250        53
22.260        40
22.270       133
22.280        53
22.290        40
22.300        53
22.310        67
22.320        80
22.330        80
22.340        53
22.350        93
22.360        93
22.370        53
22.380        53
22.390       120
22.400       173
22.410       200
22.420       200
22.430       213
22.440       147
22.450       187
22.460       227
22.470       240
22.480       253
22.490       293
22.500       227
22.510       120
22.520       413
22.530       520
22.540       400
22.550       613
22.560       600
22.570       440
22.580       600
22.590       546
22.600       466
22.610       600
22.620       546
22.630       480
22.640       426
22.650       373
22.660       360
22.670       400
22.680       227
22.690       267
22.700       253
22.710       240
22.720       253
22.730       213
22.740       120
22.750       107
22.760        93
22.770        67
22.780        93
22.790        80
22.800        53
22.810         0
22.820        67
22.830        93
22.840        93
22.850        80
22.860        67
22.870        80
22.880        80
22.890        53
22.900        67
22.910        13
22.920        13
22.930        27
22.940        80
22.950         0
22.960        53
22.970        40
22.980        53
22.990        67
23.000        40
23.010        40
23.020        40
23.030        67
23.040        27
23.050        13
23.060        67
23.070        40
23.080         0
23.090        40
23.100        27
23.110        27
23.120         0
23.130        13
23.140        53
23.150        40
23.160        53
23.170        13
23.180        53
23.190        13
23.200         0
23.210        80
23.220        53
23.230        27
23.240        27
23.250        53
23.260        40
23.270        53
23.280        53
23.290        80
23.300        13
23.310         0
23.320        27
23.330        40
23.340         0
23.350        13
23.360        27
23.370        13
23.380        27
23.390        13
23.400        27
23.410        53
23.420        53
23.430        67
23.440        67
23.450        13
23.460        13
23.470        53
23.480        27
23.490        53
23.500        27
23.510        27
23.520        13
23.530        13
23.540         0
23.550        40
23.560        40
23.570        53
23.580        93
23.590        13
23.600         0
23.610        67
23.620         0
23.630        53
23.640        27
23.650        93
23.660        27
23.670        53
23.680        13
23.690        13
23.700        53
23.710        67
23.720        13
23.730        53
23.740        67
23.750        53
23.760        80
23.770        53
23.780        80
23.790        27
23.800        67
23.810        67
23.820        27
23.830        27
23.840        27
23.850        40
23.860        67
23.870        27
23.880        40
23.890        27
23.900        53
23.910        27
23.920        13
23.930        13
23.940        40
23.950        27
23.960        80
23.970        27
23.980        40
23.990        27
24.000        27
24.010        13
24.020        40
24.030        27
24.040        27
24.050        27
24.060        53
24.070        27
24.080        40
24.090        53
24.100        40
24.110        40
24.120        53
24.130        53
24.140         0
24.150        53
24.160        53
24.170        27
24.180        53
24.190        53
24.200        40
24.210        53
24.220        27
24.230         0
24.240        67
24.250        40
24.260         0
24.270        40
24.280        53
24.290        40
24.300        40
24.310        27
24.320        53
24.330        53
24.340        40
24.350         0
24.360        67
24.370        53
24.380        40
24.390        53
24.400        40
24.410        40
24.420        27
24.430        53
24.440        40
24.450        13
24.460        80
24.470        53
24.480        13
24.490        13
24.500         0
24.510        40
24.520        40
24.530        27
24.540        27
24.550        40
24.560        53
24.570        40
24.580        27
24.590        80
24.600        13
24.610        67
24.620        27
24.630        27
24.640        27
24.650        67
24.660        13
24.670        13
24.680        67
24.690         0
24.700        13
24.710        67
24.720        67
24.730        40
24.740        27
24.750        27
24.760        80
24.770        67
24.780        53
24.790        53
24.800        40
24.810        80
24.820        67
24.830        40
24.840        93
24.850        27
24.860        40
24.870        53
24.880        53
24.890        13
24.900        40
24.910        53
24.920        13
24.930        53
24.940        40
24.950        13
24.960         0
24.970        67
24.980        40
24.990        53
25.000        40
25.010        27
25.020        53
25.030        40
25.040        67
25.050        67
25.060        40
25.070        13
25.080        53
25.090        67
25.100        13
25.110        27
25.120        27
25.130         0
25.140        40
25.150         0
25.160        40
25.170        40
25.180        40
25.190        13
25.200        40
25.210        27
25.220        53
25.230        40
25.240        27
25.250        40
25.260        13
25.270        27
25.280        27
25.290         0
25.300        40
25.310         0
25.320        27
25.330         0
25.340        40
25.350        27
25.360        80
25.370        67
25.380        27
25.390       107
25.400        13
25.410        67
25.420       107
25.430        53
25.440        67
25.450        93
25.460        80
25.470        53
25.480        53
25.490        67
25.500        40
25.510        27
25.520        80
25.530        80
25.540        80
25.550        13
25.560        27
25.570       133
25.580       107
25.590       107
25.600        53
25.610        80
25.620        53
25.630       107
25.640       107
25.650       213
25.660       187
25.670       160
25.680       173
25.690       200
25.700       200
25.710       307
25.720       253
25.730       387
25.740       360
25.750       333
25.760       333
25.770       480
25.780       387
25.790       493
25.800       453
25.810       480
25.820       506
25.830       320
25.840       493
25.850       373
25.860       413
25.870       387
25.880       307
25.890       187
25.900       413
25.910       120
25.920       267
25.930       107
25.940       267
25.950        80
25.960       120
25.970       107
25.980        53
25.990        67
26.000       107
26.010        80
26.020        53
26.030        53
26.040        40
26.050        67
26.060        13
26.070        80
26.080        40
26.090        53
26.100        53
26.110        13
26.120        40
26.130         0
26.140        53
26.150        27
26.160        40
26.170        27
26.180        40
26.190        40
26.200        27
26.210        27
26.220        67
26.230        40
26.240        40
26.250        27
26.260        27
26.270        40
26.280        67
26.290        13
26.300        40
26.310        53
26.320        40
26.330        53
26.340        27
26.350        67
26.360        67
26.370        13
26.380        27
26.390        13
26.400        13
26.410        40
26.420        13
26.430        40
26.440        27
26.450        13
26.460        40
26.470        13
26.480        40
26.490        27
26.500        27
26.510        27
26.520        53
26.530        27
26.540        13
26.550        40
26.560         0
26.570        40
26.580        40
26.590        40
26.600        40
26.610        40
26.620        53
26.630        13
26.640        67
26.650        13
26.660        80
26.670        93
26.680        67
26.690        53
26.700        13
26.710        13
26.720        13
26.730        40
26.740        40
26.750        27
26.760        27
26.770        40
26.780        27
26.790        13
26.800        67
26.810        40
26.820        40
26.830        13
26.840        13
26.850        27
26.860        40
26.870        27
26.880        40
26.890        40
26.900        40
26.910        27
26.920        13
26.930        13
26.940        53
26.950        27
26.960        13
26.970        53
26.980        40
26.990        40
27.000         0
27.010        67
27.020        67
27.030        67
27.040        13
27.050        27
27.060        53
27.070        13
27.080        53
27.090        40
27.100        27
27.110        40
27.120        13
27.130        13
27.140        27
27.150        13
27.160        40
27.170        13
27.180        53
27.190        13
27.200        27
27.210        27
27.220        53
27.230        27
27.240        80
27.250        40
27.260        67
27.270         0
27.280        13
27.290        53
27.300        27
27.310        53
27.320        13
27.330        13
27.340        13
27.350        13
27.360        13
27.370        40
27.380        67
27.390        27
27.400        40
27.410        27
27.420        67
27.430        27
27.440        27
27.450         0
27.460        40
27.470        93
27.480        27
27.490        13
27.500        40
27.510        13
27.520        27
27.530        27
27.540         0
27.550        27
27.560        13
27.570        40
27.580         0
27.590         0
27.600        67
27.610        27
27.620        40
27.630        27
27.640        27
27.650        40
27.660        27
27.670        13
27.680        27
27.690        53
27.700        40
27.710        40
27.720       107
27.730        80
27.740        53
27.750        80
27.760        53
27.770        93
27.780        53
27.790        53
27.800        53
27.810        27
27.820        53
27.830        80
27.840        40
27.850        40
27.860        53
27.870        53
27.880        27
27.890       120
27.900        40
27.910        27
27.920        53
27.930        27
27.940        40
27.950        13
27.960        67
27.970        40
27.980        40
27.990        27
28.000        67
28.010        40
28.020        40
28.030        13
28.040        40
28.050        53
28.060        13
28.070        40
28.080        27
28.090        27
28.100         0
28.110        80
28.120        93
28.130        40
28.140        80
28.150        27
28.160        13
28.170        13
28.180        40
28.190        80
28.200        27
28.210        13
28.220        27
28.230        53
28.240        13
28.250        13
28.260        67
28.270        40
28.280        40
28.290        40
28.300        27
28.310        13
28.320        27
28.330        40
28.340        27
28.350        27
28.360        40
28.370        27
28.380        13
28.390        13
28.400        13
28.410        53
28.420         0
28.430        40
28.440        40
28.450        27
28.460        40
28.470        67
28.480        93
28.490        53
28.500        27
28.510        80
28.520        27
28.530        93
28.540       133
28.550        27
28.560        80
28.570        13
28.580        80
28.590       120
28.600       160
28.610       147
28.620       107
28.630       160
28.640       200
28.650       160
28.660       147
28.670       267
28.680       200
28.690       280
28.700       240
28.710       147
28.720       240
28.730       107
28.740       253
28.750       147
28.760       213
28.770       133
28.780       187
28.790       120
28.800        53
28.810        53
28.820        53
28.830        80
28.840        67
28.850        67
28.860        40
28.870        27
28.880        67
28.890        27
28.900        27
28.910        53
28.920        53
28.930        40
28.940        40
28.950        40
28.960        93
28.970        53
28.980        53
28.990        53
29.000        40
29.010        53
29.020        13
29.030        27
29.040        40
29.050        53
29.060        53
29.070        53
29.080       160
29.090        27
29.100        67
29.110        27
29.120        40
29.130        53
29.140        40
29.150        40
29.160       120
29.170        13
29.180        67
29.190        53
29.200         0
29.210        13
29.220        40
29.230        53
29.240        40
29.250        53
29.260        67
29.270       120
29.280        53
29.290        93
29.300        80
29.310        53
29.320        80
29.330       173
29.340       173
29.350        93
29.360       133
29.370       213
29.380       133
29.390       120
29.400       253
29.410       147
29.420       360
29.430       387
29.440       413
29.450       440
29.460       506
29.470       573
29.480       480
29.490       866
29.500       760
29.510       866
29.520      1133
29.530      1120
29.540      1186
29.550      1599
29.560      1573
29.570      1573
29.580      1626
29.590      1999
29.600      1533
29.610      1559
29.620      1479
29.630      1679
29.640      1413
29.650      1333
29.660      1226
29.670       986
29.680       880
29.690       733
29.700       800
29.710       400
29.720       600
29.730       426
29.740       320
29.750       267
29.760       267
29.770       160
29.780       160
29.790       173
29.800       133
29.810       107
29.820       187
29.830        67
29.840       133
29.850       147
29.860        40
29.870       133
29.880        53
29.890        93
29.900        80
29.910        67
29.920        53
29.930        13
29.940        27
29.950        27
29.960        40
29.970        40
29.980        40
29.990        53
30.000        53
30.010        40
30.020        27
30.030       107
30.040        40
30.050        27
30.060        27
30.070        40
30.080        53
30.090        53
30.100        27
30.110        67
30.120        40
30.130        40
30.140        27
30.150        27
30.160        53
30.170        80
30.180        40
30.190        67
30.200        53
30.210        67
30.220        40
30.230        67
30.240        80
30.250        67
30.260        80
30.270        40
30.280        80
30.290        67
30.300       120
30.310       120
30.320       147
30.330       107
30.340        67
30.350       147
30.360       133
30.370       240
30.380       173
30.390       133
30.400       147
30.410       240
30.420       387
30.430       227
30.440       240
30.450       293
30.460       373
30.470       200
30.480       360
30.490       347
30.500       320
30.510       307
30.520       240
30.530       240
30.540       227
30.550       213
30.560       173
30.570       147
30.580       160
30.590       120
30.600       107
30.610        53
30.620        53
30.630        67
30.640        27
30.650        80
30.660       120
30.670        67
30.680        67
30.690        40
30.700        67
30.710        40
30.720        80
30.730        40
30.740        40
30.750        67
30.760        67
30.770        13
30.780        40
30.790        40
30.800        53
30.810        40
30.820         0
30.830        40
30.840        13
30.850        67
30.860        53
30.870        80
30.880        40
30.890        40
30.900        40
30.910         0
30.920        67
30.930         0
30.940        27
30.950        40
30.960        27
30.970        13
30.980        13
30.990        67
31.000        13
31.010        53
31.020        40
31.030        53
31.040        40
31.050        40
31.060        40
31.070        13
31.080         0
31.090         0
31.100        27
31.110        53
31.120        13
31.130        40
31.140        40
31.150        13
31.160        40
31.170        27
31.180        13
31.190        40
31.200        53
31.210        13
31.220        13
31.230        53
31.240        13
31.250        27
31.260        53
31.270        40
31.280        53
31.290        13
31.300        27
31.310         0
31.320        53
31.330        27
31.340        67
31.350        13
31.360        40
31.370        40
31.380        13
31.390        40
31.400        13
31.410        40
31.420        53
31.430        27
31.440        93
31.450        40
31.460        13
31.470        13
31.480        53
31.490        93
31.500        13
31.510        27
31.520        27
31.530        93
31.540        40
31.550        27
31.560        13
31.570        27
31.580        13
31.590        27
31.600        53
31.610        40
31.620        13
31.630        13
31.640        40
31.650        40
31.660        40
31.670        27
31.680        13
31.690        27
31.700        93
31.710        13
31.720        27
31.730        27
31.740        53
31.750        67
31.760        53
31.770        53
31.780        13
31.790        13
31.800        27
31.810        53
31.820        40
31.830        53
31.840        53
31.850        80
31.860        53
31.870        53
31.880        53
31.890        93
31.900        40
31.910        93
31.920        40
31.930        53
31.940       160
31.950        93
31.960        80
31.970        80
31.980        93
31.990        67
32.000       227
32.010       173
32.020       120
32.030       200
32.040       267
32.050       227
32.060       307
32.070       347
32.080       347
32.090       333
32.100       466
32.110       387
32.120       387
32.130       387
32.140       426
32.150       453
32.160       347
32.170       493
32.180       387
32.190       426
32.200       413
32.210       360
32.220       413
32.230       387
32.240       320
32.250       227
32.260       227
32.270       200
32.280       200
32.290       227
32.300       147
32.310       107
32.320        93
32.330       147
32.340        80
32.350        67
32.360        67
32.370        40
32.380        53
32.390        80
32.400        40
32.410        40
32.420        40
32.430        67
32.440        27
32.450        67
32.460        27
32.470        67
32.480       107
32.490        53
32.500        53
32.510        13
32.520        40
32.530        27
32.540        40
32.550        27
32.560        27
32.570        13
32.580        53
32.590        27
32.600        53
32.610        53
32.620        40
32.630        27
32.640         0
32.650        13
32.660        27
32.670        13
32.680        80
32.690        13
32.700        13
32.710         0
32.720        13
32.730        13
32.740        40
32.750        40
32.760        13
32.770        27
32.780         0
32.790        27
32.800        27
32.810        67
32.820        27
32.830        67
32.840        40
32.850        13
32.860        13
32.870        67
32.880        13
32.890        13
32.900         0
32.910        13
32.920        13
32.930        27
32.940        40
32.950        13
32.960        53
32.970        40
32.980        80
32.990        27
33.000        53
33.010         0
33.020        27
33.030        27
33.040        40
33.050        40
33.060        80
33.070        13
33.080        13
33.090        27
33.100        27
33.110        13
33.120        27
33.130        13
33.140        53
33.150        40
33.160        13
33.170         0
33.180        93
33.190        27
33.200        27
33.210        27
33.220        40
33.230        67
33.240        13
33.250        13
33.260        27
33.270        27
33.280         0
33.290        27
33.300        27
33.310        27
33.320        40
33.330        27
33.340        27
33.350        27
33.360        13
33.370        40
33.380        53
33.390        27
33.400        13
33.410        40
33.420        40
33.430         0
33.440        13
33.450        40
33.460         0
33.470        13
33.480        27
33.490        13
33.500        27
33.510        53
33.520        27
33.530        27
33.540        13
33.550        53
33.560        13
33.570        27
33.580         0
33.590        13
33.600        40
33.610        53
33.620        13
33.630         0
33.640        13
33.650        40
33.660         0
33.670        40
33.680        53
33.690        40
33.700        93
33.710        53
33.720        67
33.730        13
33.740        27
33.750        13
33.760        40
33.770        13
33.780        40
33.790        27
33.800        27
33.810        40
33.820        27
33.830        67
33.840        27
33.850        80
33.860        67
33.870        13
33.880        27
33.890        27
33.900        27
33.910        13
33.920        27
33.930        40
33.940        13
33.950        13
33.960        40
33.970        13
33.980        27
33.990        13
34.000        13
34.010         0
34.020        53
34.030        27
34.040        53
34.050        27
34.060         0
34.070        40
34.080        27
34.090        13
34.100        13
34.110         0
34.120        40
34.130        53
34.140        67
34.150        40
34.160        13
34.170        40
34.180        13
34.190        40
34.200        13
34.210         0
34.220        27
34.230        40
34.240        40
34.250        27
34.260        13
34.270         0
34.280        13
34.290        13
34.300        13
34.310        13
34.320        40
34.330       107
34.340        40
34.350        27
34.360        27
34.370        53
34.380        13
34.390        27
34.400        40
34.410        67
34.420        53
34.430        53
34.440        13
34.450        13
34.460        53
34.470        27
34.480        13
34.490        40
34.500        13
34.510        53
34.520        27
34.530         0
34.540        13
34.550        27
34.560        27
34.570        40
34.580        13
34.590        40
34.600        53
34.610        40
34.620        40
34.630        40
34.640        40
34.650        67
34.660        40
34.670        13
34.680        40
34.690        40
34.700        27
34.710        27
34.720        53
34.730        40
34.740        40
34.750        27
34.760        40
34.770        13
34.780         0
34.790        27
34.800        40
34.810        13
34.820        13
34.830         0
34.840        53
34.850        80
34.860        13
34.870        67
34.880         0
34.890        13
34.900        13
34.910        27
34.920        27
34.930        27
34.940        53
34.950        13
34.960        40
34.970        27
34.980        27
34.990        53
35.000        13
35.010        13
35.020        80
35.030        40
35.040         0
35.050        27
35.060        27
35.070        13
35.080        40
35.090        27
35.100        40
35.110        53
35.120        13
35.130        13
35.140        13
35.150        27
35.160        13
35.170        80
35.180        13
35.190        13
35.200        13
35.210        27
35.220         0
35.230        67
35.240        40
35.250        13
35.260        40
35.270        13
35.280        27
35.290        27
35.300        13
35.310        13
35.320        27
35.330        53
35.340        13
35.350        13
35.360        13
35.370        27
35.380         0
35.390        13
35.400        40
35.410        40
35.420        13
35.430        40
35.440        27
35.450        13
35.460        27
35.470        13
35.480        13
35.490        27
35.500        40
35.510        40
35.520         0
35.530        27
35.540        13
35.550        13
35.560        13
35.570        53
35.580        40
35.590        27
35.600        13
35.610        13
35.620        13
35.630        40
35.640        13
35.650        27
35.660        27
35.670        40
35.680        13
35.690        13
35.700        27
35.710        27
35.720        80
35.730         0
35.740        27
35.750        13
35.760        40
35.770        40
35.780         0
35.790        13
35.800        67
35.810        27
35.820        27
35.830         0
35.840        13
35.850        27
35.860        13
35.870        40
35.880        40
35.890        40
35.900        40
35.910        53
35.920        27
35.930         0
35.940        40
35.950        27
35.960        27
35.970        13
35.980        13
35.990        13
36.000        53
36.010        53
36.020        27
36.030        13
36.040         0
36.050        13
36.060        40
36.070        13
36.080        27
36.090        13
36.100        27
36.110        13
36.120        40
36.130        40
36.140        13
36.150        40
36.160        27
36.170        27
36.180        13
36.190        40
36.200         0
36.210        27
36.220        40
36.230        13
36.240        13
36.250        40
36.260        27
36.270        53
36.280        27
36.290        13
36.300        13
36.310        27
36.320        13
36.330        27
36.340         0
36.350        27
36.360        27
36.370        40
36.380         0
36.390         0
36.400         0
36.410        13
36.420        27
36.430        13
36.440        13
36.450        27
36.460        27
36.470         0
36.480         0
36.490        13
36.500        13
36.510        13
36.520        53
36.530        27
36.540        27
36.550        40
36.560         0
36.570        13
36.580        27
36.590        13
36.600        13
36.610        27
36.620        40
36.630         0
36.640        27
36.650         0
36.660        27
36.670        27
36.680        13
36.690         0
36.700        40
36.710        27
36.720        13
36.730        13
36.740        53
36.750        27
36.760        27
36.770         0
36.780         0
36.790        27
36.800        27
36.810        13
36.820        40
36.830        40
36.840        27
36.850        27
36.860        27
36.870        27
36.880        13
36.890        27
36.900        40
36.910        27
36.920        13
36.930        13
36.940        40
36.950         0
36.960         0
36.970        27
36.980        40
36.990         0
37.000        27
37.010        13
37.020        13
37.030        40
37.040         0
37.050        13
37.060         0
37.070        13
37.080        53
37.090        27
37.100        67
37.110        40
37.120        13
37.130        40
37.140         0
37.150        27
37.160        13
37.170         0
37.180        13
37.190         0
37.200        13
37.210        27
37.220         0
37.230        27
37.240        13
37.250        27
37.260        27
37.270        67
37.280        27
37.290        27
37.300        27
37.310        53
37.320        40
37.330        13
37.340        13
37.350        13
37.360        13
37.370         0
37.380        13
37.390        53
37.400        27
37.410        53
37.420         0
37.430        40
37.440        53
37.450        27
37.460        27
37.470        27
37.480        27
37.490        13
37.500        27
37.510        53
37.520        40
37.530         0
37.540        27
37.550         0
37.560        27
37.570        27
37.580        13
37.590         0
37.600         0
37.610        13
37.620        13
37.630        27
37.640        13
37.650        13
37.660        40
37.670        40
37.680        13
37.690        13
37.700         0
37.710        40
37.720        13
37.730        13
37.740        80
37.750        40
37.760        40
37.770        13
37.780        40
37.790        13
37.800        13
37.810        27
37.820        27
37.830        27
37.840         0
37.850        13
37.860        27
37.870        40
37.880        40
37.890        27
37.900        27
37.910        27
37.920        40
37.930        13
37.940        13
37.950        13
37.960        40
37.970        13
37.980        13
37.990        13
38.000        27
38.010        13
38.020        27
38.030        27
38.040        53
38.050        27
38.060         0
38.070        13
38.080        40
38.090        13
38.100        13
38.110        67
38.120        13
38.130        13
38.140        13
38.150        27
38.160        13
38.170        13
38.180        13
38.190        27
38.200        27
38.210         0
38.220        27
38.230         0
38.240        27
38.250         0
38.260         0
38.270        13
38.280        27
38.290        27
38.300        13
38.310        13
38.320        67
38.330        13
38.340        27
38.350        13
38.360         0
38.370        53
38.380        27
38.390        13
38.400        53
38.410        53
38.420         0
38.430        13
38.440        13
38.450        27
38.460        13
38.470        13
38.480        27
38.490        27
38.500         0
38.510        27
38.520        40
38.530        13
38.540        40
38.550        40
38.560        13
38.570        13
38.580        40
38.590         0
38.600        13
38.610        67
38.620        13
38.630        13
38.640        13
38.650        53
38.660        67
38.670        53
38.680         0
38.690        80
38.700        80
38.710        53
38.720        40
38.730        40
38.740        27
38.750        13
38.760        13
38.770        40
38.780        13
38.790        27
38.800        53
38.810        40
38.820        40
38.830        67
38.840        80
38.850        67
38.860        27
38.870        27
38.880       107
38.890        53
38.900        67
38.910        80
38.920        53
38.930        67
38.940        40
38.950       187
38.960        67
38.970        93
38.980        80
38.990        27
39.000       120
39.010        27
39.020        80
39.030        53
39.040        27
39.050        93
39.060        93
39.070        53
39.080        27
39.090        53
39.100        40
39.110        13
39.120        40
39.130        40
39.140        53
39.150        27
39.160        40
39.170         0
39.180        40
39.190        27
39.200         0
39.210        13
39.220         0
39.230         0
39.240        40
39.250        80
39.260        13
39.270        13
39.280        13
39.290         0
39.300        13
39.310         0
39.320        13
39.330        27
39.340         0
39.350        27
39.360        13
39.370        13
39.380        40
39.390        13
39.400        13
39.410        27
39.420        27
39.430        27
39.440        27
39.450        13
39.460        13
39.470        13
39.480        53
39.490        27
39.500        13
39.510         0
39.520        27
39.530        13
39.540         0
39.550        13
39.560        40
39.570        40
39.580         0
39.590        27
39.600         0
39.610        13
39.620        40
39.630         0
39.640        40
39.650        13
39.660        27
39.670        13
39.680        13
39.690        27
39.700        27
39.710        27
39.720        13
39.730        27
39.740         0
39.750         0
39.760        27
39.770        13
39.780        27
39.790         0
39.800        13
39.810        27
39.820        27
39.830        27
39.840        13
39.850         0
39.860        13
39.870        13
39.880        27
39.890        13
39.900        13
39.910         0
39.920        27
39.930         0
39.940        40
39.950        27
39.960        40
39.970        13
39.980        13
39.990        13
40.000        27
40.010        40
40.020         0
40.030        27
40.040        13
40.050        27
40.060         0
40.070        53
40.080        27
40.090        13
40.100         0
40.110        13
40.120         0
40.130        27
40.140        40
40.150        27
40.160        27
40.170        13
40.180         0
40.190        40
40.200        27
40.210        13
40.220        27
40.230        27
40.240        40
40.250        13
40.260        27
40.270        27
40.280        13
40.290        13
40.300        13
40.310        27
40.320        27
40.330        13
40.340         0
40.350        13
40.360        67
40.370        13
40.380        27
40.390        40
40.400         0
40.410        53
40.420        67
40.430        40
40.440        13
40.450        27
40.460        13
40.470        13
40.480        27
40.490        27
40.500        27
40.510        13
40.520        40
40.530        53
40.540        27
40.550        27
40.560        40
40.570        13
40.580        27
40.590        27
40.600        13
40.610        13
40.620        27
40.630        53
40.640         0
40.650        27
40.660        13
40.670         0
40.680         0
40.690        27
40.700        53
40.710        27
40.720        13
40.730        27
40.740         0
40.750         0
40.760        13
40.770        13
40.780         0
40.790        13
40.800        40
40.810         0
40.820        13
40.830        40
40.840        27
40.850        27
40.860        53
40.870        40
40.880        40
40.890        80
40.900         0
40.910        53
40.920        13
40.930        27
40.940        13
40.950        40
40.960        13
40.970        40
40.980        80
40.990        27
41.000        27
41.010        13
41.020        40
41.030        40
41.040        27
41.050        40
41.060        40
41.070        67
41.080        40
41.090         0
41.100        40
41.110        13
41.120        27
41.130        40
41.140        13
41.150        53
41.160        13
41.170        13
41.180        27
41.190        80
41.200        27
41.210        67
41.220        13
41.230        13
41.240        13
41.250         0
41.260        27
41.270        13
41.280         0
41.290        53
41.300        13
41.310        53
41.320        40
41.330        27
41.340        13
41.350        27
41.360         0
41.370        13
41.380        13
41.390        40
41.400         0
41.410        53
41.420         0
41.430        40
41.440        27
41.450        27
41.460        27
41.470        40
41.480        40
41.490        27
41.500        40
41.510        40
41.520        27
41.530        13
41.540        27
41.550        53
41.560        27
41.570        13
41.580        27
41.590        13
41.600        40
41.610        53
41.620        13
41.630        53
41.640        13
41.650        27
41.660        27
41.670         0
41.680         0
41.690        13
41.700        13
41.710        40
41.720         0
41.730         0
41.740        13
41.750         0
41.760         0
41.770        13
41.780         0
41.790        67
41.800        27
41.810        13
41.820        27
41.830        13
41.840        40
41.850         0
41.860        40
41.870        13
41.880        67
41.890        27
41.900        67
41.910        13
41.920        13
41.930        40
41.940        53
41.950        40
41.960        13
41.970        27
41.980        27
41.990        13
42.000        27
42.010        13
42.020         0
42.030        27
42.040        80
42.050        53
42.060        53
42.070        40
42.080        27
42.090         0
42.100        67
42.110        40
42.120        80
42.130        53
42.140        93
42.150        93
42.160        93
42.170        80
42.180        53
42.190        93
42.200        80
42.210        80
42.220        93
42.230        80
42.240       147
42.250       187
42.260       133
42.270       280
42.280       133
42.290       240
42.300       120
42.310       280
42.320       160
42.330       147
42.340       200
42.350       200
42.360       147
42.370       160
42.380       147
42.390       133
42.400       147
42.410       213
42.420        93
42.430       120
42.440       160
42.450        93
42.460        53
42.470       187
42.480        80
42.490        93
42.500        53
42.510       120
42.520        40
42.530        27
42.540        13
42.550        53
42.560        67
42.570        67
42.580        27
42.590        40
42.600        27
42.610        27
42.620        53
42.630        27
42.640        40
42.650        67
42.660        27
42.670         0
42.680        13
42.690        67
42.700        53
42.710         0
42.720        53
42.730        27
42.740        40
42.750        40
42.760        40
42.770        13
42.780        13
42.790        40
42.800        13
42.810         0
42.820        13
42.830        13
42.840        13
42.850        13
42.860        67
42.870        53
42.880        40
42.890        13
42.900        13
42.910         0
42.920        13
42.930        13
42.940        13
42.950        13
42.960         0
42.970        27
42.980        13
42.990        40
43.000        13
43.010         0
43.020        27
43.030        53
43.040        53
43.050        13
43.060        53
43.070        53
43.080        13
43.090        40
43.100        13
43.110        27
43.120        27
43.130         0
43.140        53
43.150        13
43.160        13
43.170        67
43.180         0
43.190        13
43.200        27
43.210        53
43.220        53
43.230        27
43.240        27
43.250        13
43.260         0
43.270         0
43.280        27
43.290        27
43.300         0
43.310         0
43.320        67
43.330        27
43.340        13
43.350        27
43.360        40
43.370         0
43.380        27
43.390        13
43.400        27
43.410        13
43.420        67
43.430        27
43.440        40
43.450         0
43.460        27
43.470        53
43.480        27
43.490        40
43.500        53
43.510        80
43.520        13
43.530        67
43.540        27
43.550        93
43.560        40
43.570        27
43.580       147
43.590        80
43.600        67
43.610        53
43.620        53
43.630        13
43.640        80
43.650        40
43.660        93
43.670        67
43.680        40
43.690        67
43.700        40
43.710        53
43.720        27
43.730        93
43.740        67
43.750         0
43.760        93
43.770        53
43.780        13
43.790        13
43.800        67
43.810        67
43.820        13
43.830        27
43.840        13
43.850         0
43.860        53
43.870        27
43.880        27
43.890        13
43.900        40
43.910        27
43.920        40
43.930        40
43.940        27
43.950        13
43.960         0
43.970        13
43.980        27
43.990        27
44.000        13
44.010        67
44.020        40
44.030        13
44.040        40
44.050        13
44.060        40
44.070        53
44.080        53
44.090        13
44.100        53
44.110        40
44.120        13
44.130        67
44.140        13
44.150        27
44.160         0
44.170        40
44.180        40
44.190        53
44.200        27
44.210        40
44.220        53
44.230        93
44.240        93
44.250        27
44.260        13
44.270        40
44.280        67
44.290        13
44.300        40
44.310        67
44.320        40
44.330        27
44.340        67
44.350        40
44.360        40
44.370        80
44.380        27
44.390        67
44.400        13
44.410         0
44.420        40
44.430        40
44.440        27
44.450        13
44.460        27
44.470        40
44.480        13
44.490        27
44.500        27
44.510        40
44.520        40
44.530        13
44.540        13
44.550        27
44.560        27
44.570        13
44.580         0
44.590         0
44.600        27
44.610        53
44.620         0
44.630         0
44.640        13
44.650        40
44.660        27
44.670        27
44.680        27
44.690        40
44.700        53
44.710        27
44.720        27
44.730        40
44.740        53
44.750        40
44.760        27
44.770        27
44.780        13
44.790        67
44.800        13
44.810        27
44.820        27
44.830        27
44.840        27
44.850        40
44.860        53
44.870         0
44.880        53
44.890        13
44.900        53
44.910        27
44.920        13
44.930         0
44.940        27
44.950        13
44.960        13
44.970        53
44.980         0
44.990        13
45.000        27
45.010        13
45.020        13
45.030        27
45.040        67
45.050        27
45.060        53
45.070        13
45.080        27
45.090         0
45.100        27
45.110        40
45.120        13
45.130        27
45.140        53
45.150         0
45.160         0
45.170        13
45.180        13
45.190        27
45.200        13
45.210        27
45.220        27
45.230        13
45.240        67
45.250        27
45.260        27
45.270        53
45.280        13
45.290        40
45.300        27
45.310         0
45.320        40
45.330        13
45.340        27
45.350        53
45.360         0
45.370        40
45.380        27
45.390        40
45.400         0
45.410        13
45.420        13
45.430        13
45.440        13
45.450        27
45.460        13
45.470         0
45.480         0
45.490         0
45.500        13
45.510        40
45.520        67
45.530        13
45.540        53
45.550        67
45.560        40
45.570        40
45.580        13
45.590        40
45.600        93
45.610        27
45.620        13
45.630        53
45.640        13
45.650        13
45.660        40
45.670        13
45.680        13
45.690        27
45.700        53
45.710        27
45.720        27
45.730        53
45.740        40
45.750        53
45.760        13
45.770        27
45.780        40
45.790       107
45.800        27
45.810        67
45.820        13
45.830        27
45.840        40
45.850        93
45.860        80
45.870        80
45.880        93
45.890        53
45.900        93
45.910        80
45.920       133
45.930       120
45.940       227
45.950       240
45.960       133
45.970       227
45.980       227
45.990       360
46.000       307
46.010       347
46.020       267
46.030       293
46.040       373
46.050       280
46.060       293
46.070       546
46.080       373
46.090       440
46.100       426
46.110       400
46.120       453
46.130       320
46.140       373
46.150       373
46.160       333
46.170       307
46.180       373
46.190       320
46.200       373
46.210       293
46.220       453
46.230       413
46.240       173
46.250       200
46.260       280
46.270       240
46.280       187
46.290       267
46.300       107
46.310       200
46.320       133
46.330       173
46.340       120
46.350       133
46.360       147
46.370        80
46.380        67
46.390        80
46.400        93
46.410        53
46.420        67
46.430         0
46.440       120
46.450        67
46.460        67
46.470        53
46.480       107
46.490        27
46.500        53
46.510        53
46.520        53
46.530       107
46.540        27
46.550        27
46.560        80
46.570        13
46.580        27
46.590        53
46.600        27
46.610        53
46.620        13
46.630        40
46.640        40
46.650        27
46.660        13
46.670        13
46.680        53
46.690        67
46.700        40
46.710        80
46.720        27
46.730        53
46.740        53
46.750        53
46.760        80
46.770        27
46.780        27
46.790        53
46.800        67
46.810        13
46.820        13
46.830        80
46.840        27
46.850        27
46.860        53
46.870        93
46.880        80
46.890         0
46.900        27
46.910        27
46.920        13
46.930        40
46.940        13
46.950       173
46.960        53
46.970        27
46.980        13
46.990        13
47.000        27
47.010         0
47.020        13
47.030        27
47.040        67
47.050        27
47.060        53
47.070        40
47.080         0
47.090        13
47.100        13
47.110        27
47.120        53
47.130        13
47.140        27
47.150        27
47.160         0
47.170        27
47.180        27
47.190        13
47.200        13
47.210        27
47.220        40
47.230        13
47.240        40
47.250        53
47.260        13
47.270        27
47.280        27
47.290        40
47.300         0
47.310        27
47.320        40
47.330        40
47.340        27
47.350        27
47.360        13
47.370        40
47.380         0
47.390        27
47.400        13
47.410        13
47.420        13
47.430        40
47.440        53
47.450        27
47.460        67
47.470        13
47.480         0
47.490        27
47.500        27
47.510         0
47.520        40
47.530        53
47.540        40
47.550        40
47.560        27
47.570        13
47.580        27
47.590        13
47.600        13
47.610        27
47.620        53
47.630        53
47.640        53
47.650         0
47.660        40
47.670        13
47.680        80
47.690        13
47.700         0
47.710        40
47.720        27
47.730        27
47.740        40
47.750        53
47.760        67
47.770        13
47.780        27
47.790         0
47.800        40
47.810        40
47.820        27
47.830        67
47.840        27
47.850        27
47.860        40
47.870        13
47.880        27
47.890        53
47.900        27
47.910        40
47.920        40
47.930        13
47.940        53
47.950        40
47.960        27
47.970        13
47.980        27
47.990        27
48.000        13
48.010        13
48.020        27
48.030        13
48.040        53
48.050        27
48.060        67
48.070        27
48.080        40
48.090        27
48.100         0
48.110        27
48.120        13
48.130        40
48.140        27
48.150        53
48.160        53
48.170        13
48.180        40
48.190        27
48.200        13
48.210        40
48.220        27
48.230         0
48.240         0
48.250        27
48.260         0
48.270        27
48.280        40
48.290        13
48.300        40
48.310        27
48.320        27
48.330         0
48.340         0
48.350        13
48.360        40
48.370        27
48.380        27
48.390        13
48.400        40
48.410         0
48.420        13
48.430         0
48.440        80
48.450        53
48.460        27
48.470        27
48.480        27
48.490         0
48.500        27
48.510        40
48.520        13
48.530        67
48.540        13
48.550        53
48.560        53
48.570        53
48.580        13
48.590        67
48.600        53
48.610         0
48.620        40
48.630        27
48.640        27
48.650        67
48.660        27
48.670        40
48.680        13
48.690        13
48.700        27
48.710        40
48.720        13
48.730        27
48.740        40
48.750        40
48.760        53
48.770        80
48.780         0
48.790        53
48.800        93
48.810        40
48.820        40
48.830        67
48.840        67
48.850        67
48.860        93
48.870        67
48.880        67
48.890       160
48.900        27
48.910       133
48.920        93
48.930       160
48.940       133
48.950        53
48.960       160
48.970        80
48.980       133
48.990       200
49.000       173
49.010       200
49.020       213
49.030       213
49.040       120
49.050       320
49.060       160
49.070       320
49.080       160
49.090       253
49.100       213
49.110       200
49.120       187
49.130       227
49.140       120
49.150       120
49.160       293
49.170       133
49.180       120
49.190       147
49.200       120
49.210       173
49.220       133
49.230       107
49.240       133
49.250        67
49.260        93
49.270        40
49.280        93
49.290        40
49.300        27
49.310       107
49.320        93
49.330        53
49.340        27
49.350        67
49.360        53
49.370        13
49.380        27
49.390        27
49.400        40
49.410        40
49.420        13
49.430        53
49.440        40
49.450        67
49.460        67
49.470        40
49.480        13
49.490         0
49.500        53
49.510        13
49.520        27
49.530        27
49.540        13
49.550        40
49.560        40
49.570        27
49.580        27
49.590        13
49.600        40
49.610        27
49.620        13
49.630        53
49.640        27
49.650        27
49.660        13
49.670        40
49.680        53
49.690        13
49.700        13
49.710        13
49.720        53
49.730         0
49.740         0
49.750         0
49.760        13
49.770        67
49.780        40
49.790        13
49.800         0
49.810        27
49.820         0
49.830        27
49.840        40
49.850        27
49.860         0
49.870        13
49.880        40
49.890        40
49.900        53
49.910        27
49.920        27
49.930        53
49.940        27
49.950        13
49.960        27
49.970        40
49.980        27
49.990        40
50.000        40
50.010        27
50.020        40
50.030        40
50.040         0
50.050        53
50.060        40
50.070        27
50.080         0
50.090        53
50.100        13
50.110        13
50.120        27
50.130        13
50.140        40
50.150         0
50.160        27
50.170        40
50.180        13
50.190        13
50.200        27
50.210        40
50.220        53
50.230        27
50.240        13
50.250        27
50.260        27
50.270        13
50.280         0
50.290        40
50.300        40
50.310        53
50.320         0
50.330        13
50.340        67
50.350        13
50.360        53
50.370        13
50.380        13
50.390        40
50.400        40
50.410        13
50.420        13
50.430        40
50.440         0
50.450        13
50.460        27
50.470        13
50.480        27
50.490        27
50.500        67
50.510        27
50.520        40
50.530         0
50.540        40
50.550        13
50.560        13
50.570        13
50.580        67
50.590        13
50.600        27
50.610         0
50.620        53
50.630        40
50.640        13
50.650        40
50.660         0
50.670        80
50.680        53
50.690        53
50.700        40
50.710        13
50.720        13
50.730        27
50.740        13
50.750        40
50.760        27
50.770        27
50.780        27
50.790        27
50.800        27
50.810        27
50.820        27
50.830        27
50.840        40
50.850        27
50.860        13
50.870        27
50.880        40
50.890        27
50.900        40
50.910        13
50.920        53
50.930        13
50.940        53
50.950        13
50.960        27
50.970        27
50.980        13
50.990        13
51.000        27
51.010        53
51.020        27
51.030        53
51.040        40
51.050        53
51.060        40
51.070        27
51.080        27
51.090        27
51.100        40
51.110         0
51.120        67
51.130         0
51.140        53
51.150        27
51.160        53
51.170        27
51.180        40
51.190        53
51.200        40
51.210        53
51.220        53
51.230        27
51.240        40
51.250        80
51.260        80
51.270         0
51.280        13
51.290        27
51.300        13
51.310         0
51.320        40
51.330        40
51.340        27
51.350        13
51.360        27
51.370        40
51.380        40
51.390        40
51.400        13
51.410        27
51.420         0
51.430        67
51.440        13
51.450        53
51.460        27
51.470       107
51.480        67
51.490         0
51.500        13
51.510        40
51.520        27
51.530        13
51.540        27
51.550        67
51.560        80
51.570        67
51.580        67
51.590        13
51.600        40
51.610        80
51.620        13
51.630        53
51.640        53
51.650        27
51.660        53
51.670       120
51.680       107
51.690        53
51.700        53
51.710       133
51.720        80
51.730       147
51.740       120
51.750        80
51.760       173
51.770       213
51.780       213
51.790       133
51.800       267
51.810       320
51.820       400
51.830       227
51.840       347
51.850       320
51.860       413
51.870       520
51.880       373
51.890       253
51.900       387
51.910       466
51.920       466
51.930       546
51.940       533
51.950       466
51.960       387
51.970       333
51.980       426
51.990       400
52.000       293
52.010       373
52.020       320
52.030       267
52.040       253
52.050       307
52.060       426
52.070       227
52.080       307
52.090       320
52.100       280
52.110       200
52.120       293
52.130       107
52.140       200
52.150       147
52.160       120
52.170        67
52.180        93
52.190        53
52.200        93
52.210       107
52.220        93
52.230        93
52.240       147
52.250       107
52.260        67
52.270        80
52.280       107
52.290        80
52.300        80
52.310        93
52.320       107
52.330        67
52.340        53
52.350       133
52.360        67
52.370        93
52.380        67
52.390        80
52.400        80
52.410       120
52.420        53
52.430        80
52.440        80
52.450        80
52.460        53
52.470       133
52.480        93
52.490        80
52.500       107
52.510        67
52.520        53
52.530       133
52.540        80
52.550       120
52.560       107
52.570        53
52.580        93
52.590        53
52.600       133
52.610       173
52.620       107
52.630       133
52.640       147
52.650        93
52.660        80
52.670        27
52.680        27
52.690        40
52.700        93
52.710        67
52.720        53
52.730        53
52.740        67
52.750        80
52.760        40
52.770        53
52.780        80
52.790       120
52.800        40
52.810        53
52.820        67
52.830        67
52.840        80
52.850        40
52.860        67
52.870        27
52.880        40
52.890        40
52.900        13
52.910       107
52.920        27
52.930        53
52.940        27
52.950        40
52.960        67
52.970        13
52.980        53
52.990        80
53.000        40
53.010        13
53.020        13
53.030        40
53.040        67
53.050        67
53.060        67
53.070        27
53.080        53
53.090        13
53.100        27
53.110        80
53.120        67
53.130        53
53.140        40
53.150        93
53.160        40
53.170        40
53.180        27
53.190        13
53.200        53
53.210        67
53.220        53
53.230        40
53.240        40
53.250        27
53.260         0
53.270        40
53.280        80
53.290        93
53.300        13
53.310        27
53.320         0
53.330        27
53.340        53
53.350        53
53.360        40
53.370        53
53.380        27
53.390       160
53.400        27
53.410        67
53.420        53
53.430        27
53.440        40
53.450        93
53.460        40
53.470        67
53.480        67
53.490        40
53.500        27
53.510        27
53.520        40
53.530        53
53.540        40
53.550        40
53.560        40
53.570        13
53.580        27
53.590        67
53.600        27
53.610        67
53.620        53
53.630        13
53.640        53
53.650        93
53.660        27
53.670        40
53.680        40
53.690        40
53.700        53
53.710        67
53.720        80
53.730        80
53.740        27
53.750        40
53.760        40
53.770        13
53.780        27
53.790        80
53.800        53
53.810        40
53.820        13
53.830        40
53.840        27
53.850        13
53.860        53
53.870        13
53.880        27
53.890        27
53.900        27
53.910        67
53.920        27
53.930        27
53.940        27
53.950        27
53.960        27
53.970         0
53.980       120
53.990        13
54.000        27
54.010        27
54.020        27
54.030         0
54.040        13
54.050        27
54.060        13
54.070        67
54.080        40
54.090        40
54.100        40
54.110        40
54.120        13
54.130        13
54.140        27
54.150        27
54.160        27
54.170        40
54.180        40
54.190        13
54.200         0
54.210        27
54.220        27
54.230         0
54.240        27
54.250        53
54.260        13
54.270        67
54.280        53
54.290        53
54.300        40
54.310        27
54.320        40
54.330         0
54.340        27
54.350        13
54.360        53
54.370        27
54.380        53
54.390        67
54.400        27
54.410        13
54.420        13
54.430        27
54.440        40
54.450        27
54.460        27
54.470        13
54.480        27
54.490        27
54.500         0
54.510        13
54.520        27
54.530        27
54.540        13
54.550        80
54.560        40
54.570        80
54.580        53
54.590         0
54.600        27
54.610         0
54.620        27
54.630        27
54.640        40
54.650        13
54.660        27
54.670        40
54.680        13
54.690        40
54.700        27
54.710        13
54.720        13
54.730        13
54.740        27
54.750         0
54.760         0
54.770         0
54.780        40
54.790        40
54.800        27
54.810        40
54.820         0
54.830        13
54.840        27
54.850        53
54.860        27
54.870        13
54.880         0
54.890         0
54.900        27
54.910         0
54.920        27
54.930        27
54.940        67
54.950        40
54.960        40
54.970        27
54.980         0
54.990        40
55.000        27
55.010        13
55.020        27
55.030        27
55.040        40
55.050        13
55.060        13
55.070         0
55.080        27
55.090        67
55.100        13
55.110        40
55.120         0
55.130         0
55.140         0
55.150        53
55.160        40
55.170        53
55.180        27
55.190        27
55.200        53
55.210        67
55.220        27
55.230        53
55.240        13
55.250        53
55.260        13
55.270        13
55.280         0
55.290        13
55.300        13
55.310        27
55.320        13
55.330        40
55.340        27
55.350        40
55.360        27
55.370         0
55.380        27
55.390        27
55.400        27
55.410         0
55.420        27
55.430        40
55.440        40
55.450        27
55.460        40
55.470        67
55.480        13
55.490        40
55.500        67
55.510        40
55.520         0
55.530        27
55.540         0
55.550        53
55.560        40
55.570        40
55.580        13
55.590        13
55.600        27
55.610        80
55.620        40
55.630        67
55.640        40
55.650        53
55.660        53
55.670        53
55.680         0
55.690         0
55.700        13
55.710        40
55.720        13
55.730        40
55.740        40
55.750        40
55.760        40
55.770        13
55.780        13
55.790        27
55.800        13
55.810        53
55.820       107
55.830        13
55.840        27
55.850        27
55.860        40
55.870        67
55.880        27
55.890        80
55.900         0
55.910        13
55.920        40
55.930        27
55.940         0
55.950         0
55.960        40
55.970       107
55.980         0
55.990        13
56.000        40
56.010        13
56.020        53
56.030        67
56.040        13
56.050        27
56.060        13
56.070        67
56.080        27
56.090        13
56.100        27
56.110        40
56.120        13
56.130        27
56.140        40
56.150        27
56.160        13
56.170        27
56.180        53
56.190        27
56.200        13
56.210        53
56.220        53
56.230        27
56.240        13
56.250        27
56.260         0
56.270        53
56.280        13
56.290        40
56.300         0
56.310        67
56.320        40
56.330        40
56.340        40
56.350        13
56.360        67
56.370         0
56.380        53
56.390        27
56.400        13
56.410        13
56.420        27
56.430        13
56.440        53
56.450        13
56.460        40
56.470        13
56.480        80
56.490        27
56.500        13
56.510        13
56.520        40
56.530        13
56.540        13
56.550        13
56.560        27
56.570        13
56.580        53
56.590        13
56.600         0
56.610        40
56.620        27
56.630        27
56.640        13
56.650        27
56.660        27
56.670        13
56.680        13
56.690        40
56.700         0
56.710        27
56.720        27
56.730        27
56.740        67
56.750        27
56.760        27
56.770        27
56.780        40
56.790         0
56.800        27
56.810        13
56.820         0
56.830        27
56.840        27
56.850         0
56.860        13
56.870        67
56.880        27
56.890        27
56.900        13
56.910        27
56.920         0
56.930        13
56.940        53
56.950         0
56.960        40
56.970        27
56.980         0
56.990        40
57.000        13
57.010        27
57.020        27
57.030        27
57.040        13
57.050        27
57.060        67
57.070        27
57.080        27
57.090         0
57.100        27
57.110        13
57.120        40
57.130         0
57.140        67
57.150        27
57.160        13
57.170        40
57.180        13
57.190        27
57.200        13
57.210        27
57.220        27
57.230        40
57.240         0
57.250        13
57.260        27
57.270        27
57.280         0
57.290         0
57.300        27
57.310        13
57.320        40
57.330        67
57.340        67
57.350        40
57.360        27
57.370        27
57.380        53
57.390         0
57.400        13
57.410        53
57.420         0
57.430        67
57.440        67
57.450        13
57.460        40
57.470        40
57.480         0
57.490        67
57.500        53
57.510         0
57.520        27
57.530        53
57.540        13
57.550        53
57.560         0
57.570         0
57.580        13
57.590         0
57.600        13
57.610        13
57.620         0
57.630        40
57.640        27
57.650        13
57.660        40
57.670        40
57.680        13
57.690        13
57.700        27
57.710        13
57.720        40
57.730         0
57.740        27
57.750        40
57.760         0
57.770        53
57.780        27
57.790         0
57.800        40
57.810        53
57.820        40
57.830        13
57.840        40
57.850        13
57.860        13
57.870        27
57.880         0
57.890        13
57.900        13
57.910        27
57.920        27
57.930        27
57.940        40
57.950        27
57.960        13
57.970        27
57.980        13
57.990        67
58.000        53
58.010         0
58.020        13
58.030        27
58.040        40
58.050        27
58.060        53
58.070         0
58.080        13
58.090        40
58.100        27
58.110        13
58.120        40
58.130        13
58.140        13
58.150        13
58.160        13
58.170        40
58.180         0
58.190        13
58.200        27
58.210        13
58.220        13
58.230        13
58.240        40
58.250        13
58.260        27
58.270         0
58.280        27
58.290        13
58.300        13
58.310         0
58.320        13
58.330        27
58.340        13
58.350        27
58.360        40
58.370         0
58.380        27
58.390        27
58.400        53
58.410        13
58.420        53
58.430        40
58.440        13
58.450        27
58.460        27
58.470        13
58.480        13
58.490        40
58.500        13
58.510        13
58.520        27
58.530         0
58.540        27
58.550        27
58.560        13
58.570        27
58.580        40
58.590         0
58.600         0
58.610        13
58.620        13
58.630        13
58.640        67
58.650         0
58.660        13
58.670         0
58.680        40
58.690         0
58.700         0
58.710         0
58.720        27
58.730        13
58.740        40
58.750         0
58.760         0
58.770        27
58.780        27
58.790        13
58.800         0
58.810         0
58.820         0
58.830        27
58.840        40
58.850         0
58.860        53
58.870         0
58.880        27
58.890        27
58.900        13
58.910        13
58.920         0
58.930        13
58.940        67
58.950        27
58.960        27
58.970        27
58.980        13
58.990        40
59.000        27
59.010         0
59.020         0
59.030         0
59.040        40
59.050        13
59.060        13
59.070         0
59.080        13
59.090         0
59.100         0
59.110         0
59.120         0
59.130        13
59.140        27
59.150        53
59.160        13
59.170        13
59.180        13
59.190        27
59.200         0
59.210        40
59.220        53
59.230        53
59.240        27
59.250        67
59.260        80
59.270        67
59.280        40
59.290        53
59.300        27
59.310        53
59.320        27
59.330        40
59.340        40
59.350       107
59.360        67
59.370        40
59.380        40
59.390        80
59.400        53
59.410        13
59.420        67
59.430        27
59.440        27
59.450        27
59.460        40
59.470        53
59.480        27
59.490        13
59.500        40
59.510        27
59.520        67
59.530        13
59.540        67
59.550        13
59.560        67
59.570        13
59.580        27
59.590        53
59.600        53
59.610        13
59.620        27
59.630        27
59.640        40
59.650        67
59.660        27
59.670        40
59.680        67
59.690        27
59.700        40
59.710        27
59.720        53
59.730        40
59.740        13
59.750        80
59.760        67
59.770        53
59.780        13
59.790        80
59.800        13
59.810        27
59.820        40
59.830        67
59.840        67
59.850        27
59.860        53
59.870        93
59.880        80
59.890       120
59.900        80
59.910        40
59.920        40
59.930        53
59.940        67
59.950        40
59.960        40
59.970        80
59.980        40
59.990        27
60.000        27
