20.000        53
20.010        13
20.020        93
20.030        47
20.040        47
20.050        20
20.060        73
20.070        60
20.080        60
20.090        60
20.100        60
20.110        40
20.120        53
20.130        60
20.140        87
20.150        47
20.160       100
20.170        40
20.180        40
20.190        60
20.200        47
20.210        60
20.220        27
20.230        53
20.240        60
20.250        27
20.260         7
20.270        80
20.280        53
20.290        60
20.300        60
20.310        20
20.320        40
20.330        60
20.340        60
20.350        27
20.360        27
20.370        67
20.380        53
20.390        27
20.400        53
20.410        60
20.420        73
20.430        40
20.440        67
20.450        40
20.460        47
20.470        40
20.480        20
20.490        47
20.500        53
20.510        53
20.520        33
20.530        40
20.540        53
20.550        53
20.560        40
20.570        40
20.580        67
20.590        27
20.600        47
20.610        33
20.620        27
20.630        40
20.640        40
20.650        33
20.660        33
20.670        33
20.680        47
20.690        27
20.700        47
20.710        20
20.720        33
20.730        53
20.740        27
20.750        47
20.760        47
20.770        53
20.780        27
20.790        20
20.800        27
20.810        40
20.820        33
20.830        40
20.840        33
20.850        33
20.860        33
20.870        53
20.880        27
20.890        73
20.900        67
20.910        33
20.920        67
20.930        53
20.940        80
20.950        73
20.960        47
20.970        33
20.980        47
20.990        40
21.000        40
21.010        53
21.020        40
21.030        40
21.040        60
21.050        40
21.060        20
21.070        60
21.080        40
21.090        27
21.100        33
21.110        60
21.120        53
21.130        80
21.140        53
21.150        53
21.160        33
21.170        40
21.180        33
21.190        40
21.200         7
21.210        20
21.220        67
21.230        53
21.240        87
21.250        47
21.260        20
21.270        20
21.280        27
21.290        40
21.300        53
21.310        53
21.320        67
21.330        33
21.340        47
21.350        27
21.360        40
21.370        33
21.380        60
21.390        60
21.400        40
21.410        27
21.420        27
21.430        53
21.440        33
21.450        53
21.460        33
21.470        53
21.480        27
21.490        40
21.500        33
21.510        20
21.520        60
21.530        60
21.540        40
21.550         7
21.560        47
21.570        40
21.580        33
21.590        27
21.600        40
21.610        47
21.620        47
21.630        13
21.640        13
21.650        20
21.660        40
21.670        33
21.680        20
21.690        40
21.700        40
21.710        40
21.720        33
21.730        13
21.740        40
21.750        13
21.760        73
21.770        13
21.780        20
21.790        73
21.800        73
21.810        60
21.820        40
21.830        73
21.840        47
21.850        73
21.860        60
21.870        20
21.880        60
21.890        33
21.900        60
21.910        40
21.920        20
21.930        47
21.940        40
21.950        40
21.960        47
21.970        47
21.980        13
21.990        40
22.000        33
22.010        40
22.020        40
22.030        27
22.040        33
22.050        27
22.060        40
22.070        27
22.080        80
22.090        27
22.100        33
22.110        33
22.120        87
22.130        47
22.140        47
22.150        53
22.160        80
22.170        40
22.180        27
22.190        60
22.200        53
22.210        13
22.220        13
22.230        53
22.240        33
22.250        20
22.260        80
22.270        40
22.280        40
22.290        20
22.300        40
22.310        60
22.320        27
22.330        53
22.340        53
22.350        53
22.360        33
22.370        33
22.380        67
22.390        47
22.400        20
22.410        40
22.420        20
22.430        60
22.440        60
22.450        47
22.460        53
22.470        53
22.480        40
22.490        73
22.500        53
22.510        53
22.520        47
22.530        27
22.540        80
22.550        20
22.560        47
22.570        73
22.580        33
22.590        33
22.600        27
22.610        40
22.620        33
22.630        47
22.640        40
22.650        27
22.660        47
22.670        53
22.680        53
22.690         7
22.700        27
22.710        60
22.720        53
22.730        47
22.740        53
22.750        27
22.760        47
22.770       100
22.780        73
22.790        40
22.800        20
22.810        47
22.820        67
22.830        67
22.840        53
22.850        87
22.860        80
22.870        73
22.880        80
22.890        80
22.900        87
22.910        73
22.920        60
22.930        80
22.940        60
22.950        87
22.960        93
22.970        93
22.980       100
22.990        87
23.000        40
23.010        93
23.020        33
23.030        47
23.040        73
23.050        33
23.060        47
23.070        53
23.080        60
23.090         7
23.100        33
23.110        33
23.120        53
23.130        40
23.140        47
23.150        33
23.160        53
23.170        27
23.180        20
23.190        53
23.200        20
23.210        13
23.220        13
23.230        20
23.240        20
23.250        53
23.260        67
23.270        47
23.280        27
23.290        27
23.300        47
23.310        33
23.320        33
23.330        60
23.340        33
23.350        33
23.360        53
23.370        33
23.380        40
23.390        20
23.400        20
23.410        27
23.420        60
23.430        33
23.440        27
23.450        60
23.460        20
23.470        47
23.480        27
23.490        47
23.500        60
23.510        47
23.520        53
23.530        27
23.540        73
23.550        13
23.560        33
23.570        73
23.580        27
23.590        40
23.600        27
23.610        73
23.620        47
23.630        33
23.640         7
23.650        20
23.660        40
23.670        87
23.680        13
23.690        40
23.700        40
23.710        47
23.720        20
23.730        40
23.740        47
23.750        20
23.760        40
23.770        40
23.780        20
23.790        53
23.800        13
23.810        47
23.820        40
23.830        47
23.840        33
23.850        33
23.860        53
23.870        27
23.880        53
23.890        47
23.900        27
23.910         7
23.920        47
23.930        47
23.940        60
23.950        67
23.960        40
23.970        40
23.980        53
23.990        27
24.000        20
24.010        20
24.020        33
24.030        47
24.040         7
24.050        53
24.060         7
24.070        47
24.080        40
24.090        27
24.100        67
24.110        33
24.120        13
24.130        27
24.140        20
24.150         7
24.160        27
24.170        27
24.180        27
24.190        33
24.200        40
24.210        60
24.220        13
24.230        60
24.240        27
24.250        53
24.260        40
24.270        13
24.280        40
24.290        13
24.300        33
24.310        47
24.320        40
24.330        27
24.340        33
24.350        13
24.360        40
24.370        27
24.380        40
24.390        33
24.400        27
24.410        27
24.420        47
24.430        40
24.440        47
24.450        47
24.460        20
24.470        53
24.480        20
24.490        47
24.500        40
24.510        67
24.520        33
24.530        27
24.540        13
24.550        33
24.560        27
24.570        60
24.580        40
24.590        27
24.600        47
24.610        67
24.620        27
24.630        33
24.640        33
24.650        13
24.660        60
24.670        33
24.680        53
24.690        40
24.700        27
24.710        27
24.720        13
24.730        40
24.740        33
24.750        53
24.760        40
24.770        13
24.780        20
24.790        20
24.800        13
24.810        27
24.820        33
24.830        20
24.840        60
24.850        27
24.860        20
24.870        27
24.880        40
24.890        20
24.900        47
24.910        47
24.920        13
24.930        27
24.940        27
24.950        40
24.960        33
24.970        27
24.980        20
24.990        47
25.000         7
25.010        33
25.020         7
25.030        33
25.040        27
25.050        20
25.060        47
25.070        40
25.080        27
25.090        13
25.100        20
25.110        47
25.120        27
25.130        60
25.140        27
25.150        33
25.160        33
25.170        47
25.180        47
25.190         0
25.200        33
25.210        13
25.220        47
25.230        33
25.240         7
25.250        40
25.260        40
25.270        13
25.280        33
25.290        40
25.300        20
25.310        27
25.320        33
25.330        13
25.340        53
25.350        67
25.360        27
25.370        20
25.380        20
25.390        27
25.400        20
25.410        60
25.420        47
25.430        40
25.440        47
25.450        53
25.460        27
25.470        20
25.480        47
25.490        27
25.500        40
25.510        27
25.520        33
25.530        27
25.540        13
25.550        20
25.560        20
25.570        33
25.580        33
25.590        47
25.600        53
25.610        20
25.620        60
25.630        47
25.640        40
25.650        53
25.660        53
25.670        27
25.680        53
25.690        27
25.700        20
25.710        33
25.720        60
25.730        47
25.740        33
25.750        27
25.760        27
25.770         7
25.780        40
25.790        27
25.800        20
25.810        47
25.820        20
25.830        27
25.840        40
25.850        27
25.860        53
25.870        13
25.880        27
25.890        27
25.900        27
25.910        27
25.920        20
25.930        53
25.940        40
25.950        27
25.960         7
25.970        20
25.980        27
25.990        40
26.000        47
26.010        20
26.020        33
26.030        47
26.040        47
26.050        40
26.060        33
26.070        27
26.080        27
26.090        13
26.100        53
26.110        73
26.120        40
26.130         7
26.140        40
26.150        33
26.160        47
26.170        27
26.180        40
26.190        13
26.200        13
26.210        47
26.220        53
26.230        20
26.240        53
26.250        47
26.260        27
26.270        20
26.280        27
26.290         0
26.300        40
26.310        47
26.320        60
26.330        53
26.340        47
26.350        33
26.360        33
26.370        40
26.380        47
26.390        13
26.400        33
26.410        20
26.420        33
26.430        27
26.440        20
26.450        47
26.460        40
26.470        27
26.480        40
26.490        27
26.500        13
26.510        47
26.520        27
26.530        47
26.540        27
26.550        40
26.560        40
26.570        40
26.580        53
26.590        20
26.600        40
26.610        53
26.620        13
26.630        13
26.640        27
26.650        40
26.660        87
26.670        20
26.680        27
26.690        33
26.700        13
26.710        40
26.720        47
26.730        33
26.740        60
26.750        33
26.760        33
26.770        13
26.780        20
26.790        33
26.800        13
26.810        33
26.820        20
26.830        20
26.840        13
26.850        33
26.860        20
26.870        20
26.880        20
26.890        20
26.900        47
26.910        53
26.920        33
26.930        20
26.940        27
26.950        27
26.960        53
26.970        20
26.980        13
26.990        47
27.000        33
27.010        20
27.020        40
27.030        27
27.040        20
27.050        60
27.060        27
27.070         7
27.080        33
27.090        33
27.100        13
27.110        60
27.120        53
27.130        13
27.140        20
27.150        13
27.160        27
27.170        33
27.180        33
27.190        33
27.200        13
27.210        13
27.220        47
27.230        60
27.240        20
27.250        47
27.260        13
27.270        13
27.280        33
27.290        33
27.300        33
27.310        20
27.320        33
27.330        13
27.340        40
27.350         0
27.360        13
27.370         7
27.380        13
27.390        40
27.400        60
27.410        27
27.420        33
27.430        40
27.440        47
27.450        53
27.460        33
27.470        33
27.480        20
27.490        47
27.500        33
27.510        33
27.520        60
27.530        27
27.540        33
27.550        33
27.560        13
27.570        40
27.580         7
27.590        47
27.600        60
27.610        53
27.620        20
27.630        13
27.640        33
27.650        13
27.660        40
27.670        13
27.680        33
27.690        40
27.700        33
27.710        13
27.720        40
27.730        60
27.740        33
27.750        60
27.760        27
27.770        40
27.780        20
27.790        27
27.800        40
27.810        47
27.820        47
27.830        27
27.840        33
27.850        20
27.860        33
27.870        27
27.880        40
27.890        20
27.900        60
27.910        33
27.920        40
27.930        33
27.940        47
27.950        40
27.960        67
27.970        33
27.980        27
27.990        27
28.000        40
28.010        47
28.020        33
28.030        20
28.040        27
28.050        20
28.060        60
28.070        27
28.080        73
28.090        40
28.100        33
28.110        33
28.120        60
28.130        53
28.140        53
28.150        40
28.160        73
28.170        40
28.180        93
28.190        67
28.200        67
28.210        73
28.220        33
28.230        60
28.240        67
28.250        27
28.260        67
28.270       127
28.280        67
28.290        67
28.300        67
28.310        53
28.320        47
28.330       107
28.340        67
28.350        87
28.360        60
28.370        60
28.380        87
28.390       107
28.400        27
28.410        67
28.420        60
28.430        80
28.440        40
28.450        80
28.460        87
28.470        53
28.480        67
28.490        93
28.500        67
28.510       113
28.520        67
28.530        87
28.540        73
28.550       107
28.560       113
28.570        93
28.580       107
28.590       100
28.600       100
28.610       140
28.620       153
28.630        73
28.640       120
28.650       147
28.660       167
28.670        73
28.680       153
28.690       120
28.700       107
28.710       160
28.720       200
28.730       173
28.740       193
28.750       167
28.760       167
28.770       167
28.780       147
28.790       240
28.800       140
28.810       173
28.820       233
28.830       133
28.840       180
28.850       220
28.860       173
28.870       273
28.880       247
28.890       213
28.900       213
28.910       260
28.920       227
28.930       340
28.940       293
28.950       253
28.960       200
28.970       173
28.980       280
28.990       287
29.000       193
29.010       293
29.020       347
29.030       293
29.040       260
29.050       207
29.060       253
29.070       313
29.080       307
29.090       167
29.100       253
29.110       227
29.120       193
29.130       240
29.140       193
29.150       207
29.160       193
29.170       240
29.180       127
29.190       293
29.200       180
29.210       220
29.220       240
29.230       213
29.240       187
29.250       247
29.260       107
29.270       120
29.280       213
29.290       187
29.300       147
29.310       187
29.320       207
29.330       213
29.340       173
29.350       147
29.360       127
29.370        73
29.380       147
29.390       107
29.400       133
29.410       120
29.420        80
29.430       147
29.440        93
29.450       113
29.460       100
29.470        60
29.480       107
29.490        60
29.500       120
29.510        93
29.520        87
29.530        47
29.540        80
29.550       100
29.560       107
29.570        47
29.580        87
29.590        53
29.600        60
29.610        60
29.620        87
29.630        67
29.640        73
29.650        67
29.660        60
29.670        87
29.680        53
29.690        53
29.700       100
29.710        67
29.720        80
29.730       100
29.740        53
29.750        47
29.760        87
29.770       113
29.780        73
29.790        20
29.800        67
29.810        87
29.820        40
29.830        60
29.840       100
29.850        40
29.860        67
29.870        53
29.880        87
29.890        60
29.900        27
29.910        53
29.920        73
29.930        80
29.940        33
29.950        60
29.960        13
29.970        47
29.980        53
29.990        60
30.000        47
30.010        27
30.020        60
30.030        47
30.040        53
30.050        47
30.060        20
30.070        60
30.080        67
30.090        47
30.100        20
30.110        47
30.120         0
30.130        67
30.140        27
30.150        60
30.160        27
30.170        33
30.180        47
30.190        67
30.200        33
30.210        40
30.220        47
30.230        67
30.240        33
30.250        40
30.260        27
30.270        27
30.280        40
30.290        27
30.300        47
30.310        33
30.320        40
30.330        67
30.340        60
30.350        47
30.360        27
30.370        47
30.380        33
30.390        27
30.400        47
30.410        33
30.420        53
30.430        73
30.440        47
30.450        20
30.460        40
30.470        13
30.480        33
30.490        20
30.500        47
30.510        27
30.520        20
30.530        40
30.540        73
30.550        67
30.560        33
30.570        20
30.580        60
30.590        27
30.600        33
30.610        27
30.620         7
30.630        33
30.640        13
30.650        47
30.660        27
30.670        40
30.680        67
30.690        47
30.700        53
30.710        20
30.720        47
30.730        33
30.740        13
30.750        67
30.760        33
30.770        40
30.780        47
30.790         7
30.800        60
30.810        33
30.820        20
30.830        20
30.840        60
30.850        53
30.860        40
30.870        47
30.880        20
30.890        20
30.900        47
30.910        27
30.920        47
30.930        33
30.940        13
30.950        40
30.960        40
30.970        53
30.980        13
30.990        33
31.000        67
31.010        27
31.020        47
31.030        80
31.040        40
31.050        20
31.060        33
31.070        47
31.080        33
31.090        27
31.100        47
31.110        60
31.120        40
31.130        53
31.140        33
31.150        27
31.160        60
31.170        73
31.180        40
31.190        47
31.200        33
31.210        20
31.220        13
31.230        40
31.240        33
31.250        33
31.260        33
31.270        73
31.280        33
31.290        60
31.300        80
31.310        67
31.320        40
31.330        33
31.340        33
31.350        47
31.360        33
31.370        27
31.380        40
31.390        47
31.400        27
31.410        47
31.420        47
31.430        40
31.440        33
31.450        27
31.460        53
31.470        47
31.480        67
31.490        40
31.500        40
31.510        27
31.520        40
31.530        20
31.540        60
31.550        40
31.560        27
31.570        33
31.580        33
31.590        20
31.600        20
31.610        53
31.620        33
31.630        33
31.640        33
31.650        20
31.660        33
31.670        27
31.680        33
31.690        27
31.700        27
31.710        20
31.720        33
31.730        33
31.740        40
31.750        20
31.760        13
31.770        33
31.780        40
31.790        20
31.800        20
31.810        40
31.820        27
31.830        20
31.840        20
31.850        20
31.860        33
31.870        33
31.880        53
31.890        20
31.900        53
31.910        40
31.920        20
31.930        27
31.940        20
31.950        33
31.960         0
31.970        20
31.980        33
31.990        27
32.000        27
32.010        27
32.020        33
32.030        20
32.040        33
32.050        27
32.060        40
32.070        27
32.080        40
32.090        33
32.100        20
32.110        40
32.120         7
32.130        27
32.140        47
32.150        53
32.160        13
32.170        20
32.180        60
32.190        47
32.200        13
32.210        33
32.220        33
32.230        20
32.240        40
32.250        27
32.260        20
32.270        20
32.280        13
32.290        47
32.300        33
32.310        33
32.320        20
32.330        33
32.340        33
32.350         7
32.360        60
32.370        53
32.380        27
32.390        40
32.400        53
32.410        47
32.420        60
32.430        47
32.440        67
32.450        53
32.460        20
32.470        80
32.480        27
32.490        40
32.500        40
32.510        33
32.520        53
32.530        67
32.540        33
32.550        60
32.560       100
32.570        67
32.580        67
32.590        47
32.600        67
32.610        80
32.620        87
32.630        47
32.640        73
32.650        87
32.660        67
32.670        93
32.680        40
32.690        60
32.700        33
32.710        80
32.720        40
32.730       120
32.740        60
32.750        40
32.760        80
32.770        40
32.780        47
32.790        47
32.800        80
32.810        27
32.820        13
32.830        80
32.840        27
32.850        13
32.860        53
32.870        13
32.880        33
32.890        20
32.900        13
32.910        47
32.920        47
32.930        33
32.940        33
32.950        47
32.960        33
32.970        47
32.980        53
32.990        73
33.000        33
33.010        40
33.020        40
33.030        27
33.040        20
33.050        13
33.060        20
33.070        33
33.080         7
33.090        27
33.100        13
33.110        27
33.120        40
33.130         7
33.140        33
33.150        20
33.160        27
33.170        13
33.180        33
33.190         0
33.200        13
33.210        40
33.220        40
33.230        13
33.240        40
33.250        33
33.260         7
33.270        27
33.280        27
33.290        27
33.300        13
33.310        27
33.320        47
33.330        27
33.340        27
33.350        20
33.360        33
33.370        33
33.380        40
33.390         7
33.400        40
33.410        47
33.420        47
33.430        27
33.440        27
33.450         0
33.460        20
33.470        20
33.480        33
33.490        20
33.500        13
33.510        33
33.520        20
33.530        13
33.540        20
33.550        33
33.560        60
33.570        13
33.580        20
33.590        33
33.600        13
33.610        47
33.620        53
33.630        53
33.640        40
33.650         7
33.660        13
33.670        13
33.680        40
33.690        13
33.700        40
33.710        47
33.720        27
33.730         0
33.740         7
33.750        40
33.760         0
33.770        27
33.780        27
33.790         7
33.800        27
33.810        13
33.820        27
33.830        27
33.840        27
33.850         7
33.860        27
33.870        53
33.880        40
33.890        27
33.900        47
33.910        27
33.920        33
33.930         7
33.940        67
33.950        40
33.960        20
33.970        20
33.980         7
33.990        40
34.000         7
34.010        20
34.020        20
34.030        47
34.040        20
34.050        27
34.060        27
34.070        20
34.080        47
34.090        20
34.100        40
34.110        60
34.120        47
34.130        20
34.140        20
34.150        20
34.160        13
34.170        13
34.180        40
34.190        27
34.200         7
34.210         7
34.220        33
34.230         7
34.240         7
34.250        27
34.260        20
34.270        20
34.280         0
34.290         7
34.300        53
34.310         7
34.320        40
34.330        27
34.340        27
34.350        40
34.360        27
34.370        27
34.380         7
34.390        13
34.400        40
34.410        13
34.420        27
34.430        27
34.440        13
34.450        20
34.460        20
34.470        27
34.480        27
34.490        27
34.500        33
34.510        33
34.520         7
34.530        27
34.540        20
34.550        33
34.560        47
34.570        27
34.580        27
34.590        27
34.600        33
34.610        27
34.620        53
34.630        20
34.640        20
34.650        33
34.660        20
34.670        13
34.680        53
34.690        33
34.700        13
34.710         7
34.720        47
34.730        27
34.740        33
34.750        27
34.760        27
34.770        20
34.780        20
34.790        20
34.800        27
34.810        27
34.820        47
34.830        47
34.840        27
34.850        20
34.860        27
34.870        40
34.880        33
34.890        20
34.900        33
34.910         7
34.920         7
34.930        20
34.940        13
34.950        27
34.960        20
34.970         7
34.980        40
34.990        33
35.000        40
35.010        20
35.020        33
35.030        53
35.040        33
35.050        27
35.060        13
35.070        40
35.080        47
35.090        47
35.100        40
35.110        87
35.120        73
35.130        33
35.140        87
35.150        60
35.160       100
35.170       140
35.180        67
35.190        73
35.200        27
35.210        73
35.220        67
35.230        67
35.240        47
35.250        67
35.260        67
35.270        53
35.280        67
35.290        47
35.300        67
35.310        67
35.320        40
35.330        47
35.340        20
35.350        20
35.360        40
35.370        27
35.380        20
35.390        40
35.400        20
35.410        20
35.420        20
35.430         7
35.440        20
35.450        20
35.460        20
35.470         7
35.480        27
35.490        20
35.500         7
35.510         7
35.520        33
35.530         7
35.540        20
35.550        33
35.560         0
35.570        20
35.580        20
35.590        27
35.600        13
35.610         0
35.620        20
35.630        13
35.640        33
35.650        20
35.660        27
35.670         7
35.680        20
35.690        20
35.700         7
35.710        33
35.720         0
35.730         7
35.740        20
35.750        27
35.760        20
35.770        27
35.780        47
35.790         7
35.800        33
35.810        40
35.820        13
35.830        27
35.840        27
35.850        27
35.860        20
35.870         7
35.880        20
35.890        33
35.900        20
35.910        47
35.920        27
35.930        33
35.940        20
35.950        27
35.960        27
35.970        13
35.980        20
35.990        27
36.000        20
36.010         0
36.020        13
36.030        33
36.040         7
36.050        33
36.060        13
36.070        40
36.080        47
36.090        40
36.100        20
36.110        20
36.120        47
36.130        13
36.140        67
36.150        20
36.160        33
36.170        33
36.180        20
36.190        13
36.200        40
36.210        40
36.220        20
36.230        33
36.240        27
36.250        40
36.260        33
36.270         7
36.280        53
36.290        33
36.300        40
36.310        47
36.320        13
36.330        33
36.340        27
36.350        27
36.360        27
36.370        13
36.380        40
36.390        60
36.400        27
36.410        13
36.420        27
36.430        27
36.440        20
36.450        20
36.460        47
36.470        40
36.480        60
36.490        13
36.500        53
36.510        20
36.520        40
36.530        27
36.540        33
36.550         7
36.560        33
36.570        47
36.580        33
36.590        47
36.600        13
36.610        20
36.620        40
36.630        33
36.640        33
36.650        40
36.660        67
36.670        27
36.680        27
36.690        27
36.700        13
36.710        13
36.720        20
36.730        33
36.740        27
36.750        60
36.760        27
36.770        27
36.780        33
36.790         7
36.800         7
36.810        47
36.820        27
36.830        27
36.840        20
36.850        13
36.860        47
36.870        20
36.880        27
36.890        47
36.900        27
36.910        33
36.920        33
36.930        47
36.940        47
36.950        20
36.960        27
36.970        13
36.980        27
36.990        13
37.000        33
37.010        20
37.020        40
37.030        27
37.040        40
37.050        27
37.060        47
37.070        20
37.080        40
37.090        20
37.100        20
37.110        20
37.120        20
37.130        20
37.140        33
37.150        33
37.160        13
37.170        13
37.180        27
37.190        33
37.200        27
37.210        53
37.220        40
37.230        20
37.240        27
37.250        33
37.260        13
37.270        33
37.280        20
37.290        33
37.300         0
37.310         7
37.320        27
37.330        47
37.340        33
37.350        20
37.360        33
37.370        13
37.380        33
37.390        33
37.400        13
37.410        27
37.420        33
37.430        13
37.440        20
37.450        20
37.460        20
37.470        47
37.480        53
37.490        13
37.500        27
37.510        27
37.520        40
37.530        47
37.540        27
37.550         7
37.560        13
37.570        33
37.580        33
37.590        13
37.600        27
37.610        47
37.620        20
37.630        40
37.640        13
37.650        27
37.660        27
37.670        27
37.680        13
37.690        33
37.700        53
37.710        13
37.720        13
37.730         7
37.740        47
37.750        40
37.760        47
37.770        47
37.780        40
37.790        80
37.800        20
37.810        87
37.820        53
37.830        87
37.840        73
37.850        33
37.860        33
37.870        33
37.880        27
37.890        53
37.900        40
37.910        60
37.920        53
37.930        33
37.940        53
37.950        20
37.960        40
37.970        33
37.980        20
37.990        47
38.000        33
38.010         7
38.020        27
38.030        20
38.040        13
38.050        20
38.060        13
38.070        13
38.080        13
38.090        27
38.100        27
38.110        13
38.120        13
38.130        13
38.140        33
38.150        27
38.160         7
38.170        40
38.180        33
38.190        53
38.200        27
38.210         7
38.220        20
38.230         7
38.240         7
38.250        33
38.260         7
38.270        20
38.280        27
38.290        27
38.300        27
38.310        20
38.320        27
38.330        13
38.340        27
38.350        47
38.360        47
38.370        20
38.380        20
38.390        33
38.400        27
38.410        20
38.420        40
38.430        13
38.440        27
38.450        13
38.460        20
38.470        33
38.480        20
38.490        33
38.500        27
38.510        13
38.520        27
38.530        20
38.540        27
38.550        20
38.560        33
38.570        13
38.580        47
38.590        13
38.600        13
38.610        13
38.620        13
38.630        33
38.640        20
38.650        13
38.660         7
38.670        13
38.680         7
38.690         7
38.700        20
38.710        47
38.720         7
38.730        13
38.740        40
38.750        20
38.760         7
38.770        33
38.780        27
38.790        20
38.800        33
38.810        13
38.820        20
38.830        27
38.840         7
38.850        20
38.860        13
38.870        33
38.880        27
38.890         7
38.900        13
38.910        40
38.920        20
38.930         7
38.940        13
38.950        13
38.960        20
38.970        27
38.980        27
38.990        13
39.000        13
39.010        27
39.020        53
39.030        40
39.040        20
39.050        20
39.060        33
39.070        33
39.080        27
39.090        27
39.100        20
39.110        47
39.120        27
39.130        33
39.140        33
39.150        20
39.160        20
39.170         0
39.180        27
39.190        20
39.200        33
39.210        27
39.220         0
39.230        13
39.240        27
39.250        13
39.260        27
39.270        33
39.280        27
39.290        33
39.300        33
39.310        20
39.320        40
39.330        33
39.340        47
39.350        53
39.360        47
39.370        47
39.380        20
39.390        20
39.400         7
39.410        27
39.420        13
39.430        20
39.440        27
39.450        33
39.460         7
39.470        20
39.480        13
39.490        13
39.500        20
39.510        33
39.520        20
39.530        27
39.540        33
39.550        33
39.560        13
39.570        27
39.580        47
39.590        20
39.600         7
39.610         7
39.620         7
39.630        13
39.640        27
39.650        13
39.660         7
39.670        40
39.680        33
39.690        20
39.700        47
39.710        13
39.720        20
39.730        33
39.740        40
39.750         7
39.760        47
39.770        53
39.780        40
39.790        33
39.800        33
39.810        13
39.820        47
39.830        60
39.840        20
39.850        27
39.860        20
39.870        40
39.880        60
39.890        60
39.900        40
39.910        60
39.920        27
39.930        47
39.940        27
39.950        60
39.960        40
39.970        27
39.980        40
39.990        20
40.000        13
40.010        40
40.020        40
40.030        27
40.040        53
40.050        73
40.060        33
40.070        47
40.080        67
40.090        47
40.100        27
40.110        53
40.120        33
40.130        40
40.140        33
40.150        67
40.160        40
40.170        60
40.180        53
40.190        80
40.200       107
40.210        27
40.220       107
40.230        67
40.240        60
40.250       100
40.260       107
40.270        53
40.280        40
40.290        73
40.300        80
40.310        87
40.320        60
40.330        80
40.340        80
40.350        73
40.360        60
40.370        87
40.380        53
40.390        80
40.400        67
40.410        80
40.420        73
40.430        60
40.440        60
40.450        67
40.460        93
40.470        33
40.480        33
40.490        80
40.500        80
40.510        80
40.520        80
40.530        40
40.540        73
40.550        60
40.560        40
40.570        33
40.580        20
40.590        27
40.600        27
40.610        40
40.620        60
40.630        47
40.640        13
40.650        20
40.660        67
40.670        60
40.680        33
40.690        40
40.700        27
40.710        20
40.720        53
40.730        33
40.740        33
40.750        33
40.760        47
40.770        60
40.780        20
40.790        40
40.800        13
40.810        47
40.820        27
40.830        20
40.840        53
40.850        40
40.860        53
40.870        27
40.880        20
40.890        27
40.900        13
40.910        40
40.920         7
40.930         7
40.940        20
40.950        60
40.960        20
40.970        40
40.980        40
40.990        47
41.000        13
41.010        27
41.020        20
41.030        20
41.040        20
41.050        40
41.060        20
41.070        33
41.080        27
41.090        13
41.100        40
41.110        47
41.120        60
41.130        13
41.140        33
41.150        40
41.160        13
41.170        33
41.180        47
41.190        27
41.200        53
41.210        27
41.220        53
41.230        27
41.240        20
41.250        13
41.260        47
41.270        33
41.280        27
41.290        33
41.300        27
41.310        20
41.320        40
41.330        40
41.340        20
41.350        40
41.360        13
41.370         7
41.380        27
41.390        20
41.400        33
41.410        20
41.420        47
41.430        47
41.440        27
41.450         7
41.460         7
41.470        27
41.480        40
41.490        13
41.500        53
41.510        53
41.520        20
41.530        53
41.540        40
41.550        53
41.560        20
41.570        40
41.580        73
41.590        53
41.600        47
41.610        33
41.620        60
41.630        53
41.640        73
41.650       107
41.660       107
41.670       167
41.680       153
41.690       120
41.700       180
41.710       173
41.720        67
41.730       207
41.740       113
41.750       100
41.760        80
41.770        93
41.780       127
41.790        93
41.800        60
41.810       107
41.820        93
41.830        80
41.840        73
41.850        47
41.860        67
41.870        60
41.880        60
41.890        27
41.900        33
41.910        27
41.920        40
41.930         7
41.940        60
41.950        27
41.960        20
41.970        53
41.980        13
41.990        40
42.000        40
42.010        40
42.020        60
42.030        13
42.040        33
42.050        20
42.060        33
42.070        27
42.080        13
42.090        20
42.100        20
42.110        20
42.120        20
42.130        40
42.140        13
42.150        13
42.160         7
42.170        53
42.180        33
42.190        27
42.200        27
42.210        20
42.220        20
42.230        33
42.240        27
42.250        27
42.260        33
42.270        27
42.280        27
42.290        13
42.300        27
42.310        20
42.320        20
42.330        40
42.340        13
42.350        27
42.360        13
42.370        33
42.380        13
42.390        27
42.400        20
42.410        40
42.420        40
42.430        40
42.440        13
42.450        53
42.460        53
42.470         7
42.480        47
42.490        33
42.500        20
42.510        67
42.520        40
42.530        40
42.540        33
42.550        20
42.560        20
42.570        27
42.580        20
42.590        27
42.600        33
42.610        20
42.620        27
42.630        40
42.640        27
42.650        27
42.660        33
42.670        53
42.680        27
42.690        20
42.700        40
42.710        40
42.720         7
42.730        20
42.740        20
42.750        33
42.760        33
42.770        67
42.780        27
42.790        27
42.800        33
42.810        40
42.820        20
42.830        27
42.840        33
42.850        53
42.860        40
42.870        33
42.880        13
42.890        33
42.900        40
42.910        47
42.920        27
42.930        20
42.940        20
42.950        13
42.960        20
42.970        27
42.980        47
42.990        53
43.000        33
43.010        33
43.020        27
43.030        33
43.040        13
43.050        20
43.060        33
43.070        27
43.080        40
43.090         7
43.100        40
43.110        27
43.120        33
43.130        33
43.140        20
43.150        40
43.160        33
43.170         7
43.180        13
43.190        27
43.200        47
43.210        13
43.220        47
43.230        33
43.240        27
43.250        13
43.260        33
43.270        40
43.280        20
43.290        27
43.300        27
43.310        27
43.320        27
43.330        47
43.340       127
43.350        73
43.360        87
43.370       160
43.380       120
43.390       107
43.400       107
43.410       100
43.420        73
43.430       113
43.440       147
43.450        67
43.460        87
43.470       100
43.480        80
43.490        60
43.500        53
43.510        47
43.520        53
43.530        87
43.540       100
43.550        73
43.560        53
43.570        67
43.580        40
43.590        27
43.600        40
43.610        13
43.620        27
43.630        40
43.640        47
43.650        33
43.660        27
43.670        27
43.680        13
43.690        33
43.700        33
43.710        20
43.720        27
43.730        33
43.740        20
43.750         7
43.760        27
43.770        20
43.780        40
43.790        47
43.800        40
43.810        20
43.820        33
43.830        20
43.840        20
43.850        33
43.860        13
43.870        33
43.880        27
43.890        20
43.900        20
43.910        20
43.920        27
43.930        20
43.940        13
43.950         7
43.960        33
43.970        27
43.980        27
43.990        13
44.000        33
44.010        47
44.020        40
44.030         7
44.040        33
44.050        13
44.060        20
44.070        53
44.080        47
44.090        67
44.100         7
44.110        60
44.120        20
44.130        33
44.140        13
44.150        33
44.160        20
44.170        33
44.180        27
44.190        40
44.200        40
44.210         7
44.220        27
44.230        33
44.240        53
44.250        60
44.260        40
44.270        47
44.280        33
44.290        20
44.300        20
44.310        73
44.320        27
44.330        40
44.340        60
44.350        13
44.360        20
44.370        33
44.380        47
44.390        20
44.400        60
44.410        53
44.420        20
44.430        53
44.440        13
44.450        60
44.460        20
44.470         7
44.480        27
44.490        33
44.500        27
44.510        73
44.520        20
44.530        40
44.540        27
44.550        27
44.560        27
44.570        40
44.580         0
44.590        53
44.600        20
44.610        20
44.620        40
44.630        27
44.640        13
44.650        47
44.660        47
44.670        33
44.680        40
44.690        40
44.700        40
44.710        33
44.720        27
44.730        27
44.740        33
44.750        13
44.760         7
44.770        27
44.780         0
44.790        47
44.800        20
44.810        20
44.820        27
44.830        20
44.840        47
44.850        33
44.860        33
44.870        27
44.880        20
44.890        47
44.900        33
44.910        33
44.920        33
44.930        33
44.940        13
44.950        27
44.960        20
44.970        20
44.980        33
44.990        33
45.000        20
45.010        13
45.020        20
45.030        40
45.040        20
45.050        20
45.060        27
45.070        27
45.080        13
45.090        13
45.100         7
45.110        67
45.120        27
45.130        20
45.140        27
45.150        20
45.160        47
45.170        27
45.180        13
45.190        33
45.200        20
45.210        20
45.220        33
45.230        40
45.240        47
45.250        27
45.260        13
45.270        27
45.280        33
45.290        47
45.300        20
45.310        20
45.320        33
45.330        27
45.340        20
45.350        33
45.360        27
45.370        20
45.380         7
45.390        47
45.400         7
45.410        13
45.420        33
45.430        20
45.440        13
45.450        33
45.460        27
45.470        33
45.480        20
45.490        20
45.500        33
45.510        33
45.520        33
45.530        20
45.540        33
45.550        20
45.560        20
45.570         7
45.580        20
45.590        27
45.600        27
45.610        20
45.620        20
45.630         7
45.640        33
45.650        40
45.660        33
45.670        27
45.680        20
45.690        27
45.700        20
45.710        20
45.720        73
45.730        33
45.740        27
45.750        33
45.760        27
45.770        67
45.780        53
45.790        20
45.800        60
45.810        20
45.820        20
45.830        27
45.840        47
45.850        40
45.860        60
45.870        33
45.880        33
45.890        27
45.900        80
45.910        53
45.920        27
45.930        60
45.940        33
45.950        47
45.960        33
45.970        33
45.980        20
45.990        60
46.000        73
46.010        53
46.020        60
46.030        27
46.040        20
46.050        33
46.060        53
46.070        13
46.080        27
46.090        27
46.100        20
46.110        40
46.120        33
46.130        13
46.140        47
46.150        40
46.160        47
46.170        40
46.180        27
46.190        47
46.200        53
46.210        33
46.220        33
46.230        40
46.240        27
46.250        13
46.260        33
46.270        40
46.280        27
46.290        33
46.300        40
46.310        27
46.320        27
46.330        40
46.340        47
46.350        33
46.360        13
46.370        27
46.380        27
46.390        53
46.400        20
46.410        20
46.420        20
46.430        20
46.440        20
46.450        27
46.460        27
46.470        27
46.480        33
46.490        40
46.500        33
46.510        40
46.520        27
46.530        33
46.540        53
46.550        20
46.560        33
46.570        33
46.580        40
46.590        27
46.600        33
46.610        27
46.620        47
46.630         7
46.640        27
46.650        40
46.660        27
46.670        53
46.680        33
46.690        53
46.700        80
46.710        13
46.720        53
46.730        40
46.740        40
46.750        40
46.760        27
46.770        20
46.780        67
46.790        13
46.800        53
46.810        53
46.820        53
46.830        40
46.840        40
46.850        53
46.860        20
46.870        27
46.880        40
46.890        27
46.900        67
46.910        40
46.920        60
46.930        53
46.940        40
46.950        33
46.960        40
46.970        73
46.980        47
46.990        40
47.000        27
47.010        40
47.020        20
47.030        40
47.040        33
47.050        40
47.060        33
47.070        80
47.080        13
47.090        20
47.100        33
47.110        40
47.120         0
47.130        47
47.140        20
47.150         7
47.160        33
47.170        20
47.180        27
47.190        33
47.200        33
47.210        40
47.220        47
47.230        40
47.240        13
47.250        33
47.260        20
47.270        27
47.280        27
47.290        27
47.300        33
47.310         0
47.320        47
47.330        60
47.340        40
47.350         7
47.360        27
47.370        20
47.380        27
47.390        20
47.400        27
47.410        33
47.420        27
47.430        20
47.440        27
47.450        20
47.460        33
47.470        27
47.480         7
47.490         7
47.500        40
47.510        13
47.520        27
47.530        20
47.540        27
47.550        20
47.560        33
47.570        53
47.580        40
47.590        20
47.600         7
47.610        53
47.620        27
47.630        27
47.640        27
47.650        13
47.660        47
47.670         0
47.680        27
47.690        20
47.700        20
47.710        60
47.720        27
47.730        20
47.740        13
47.750        27
47.760         0
47.770        27
47.780        20
47.790        27
47.800        20
47.810        33
47.820         7
47.830        13
47.840        33
47.850         7
47.860        27
47.870        40
47.880        20
47.890        33
47.900        13
47.910         7
47.920         7
47.930        20
47.940        13
47.950        33
47.960        40
47.970        27
47.980        20
47.990        40
48.000         7
48.010        13
48.020        33
48.030        13
48.040        47
48.050        27
48.060        40
48.070        33
48.080        33
48.090        33
48.100        40
48.110        20
48.120        40
48.130        27
48.140        13
48.150        27
48.160         7
48.170        47
48.180        20
48.190        13
48.200        20
48.210        27
48.220         0
48.230        27
48.240        33
48.250        40
48.260        20
48.270        40
48.280        33
48.290         7
48.300        47
48.310        13
48.320        27
48.330        40
48.340        27
48.350        27
48.360        20
48.370        13
48.380        13
48.390        27
48.400        40
48.410        33
48.420        47
48.430        53
48.440        27
48.450        40
48.460        53
48.470        40
48.480        13
48.490        40
48.500        13
48.510        33
48.520        20
48.530        20
48.540         7
48.550         0
48.560        27
48.570        33
48.580        33
48.590        27
48.600        27
48.610        53
48.620        27
48.630        33
48.640        13
48.650        13
48.660        27
48.670        13
48.680        27
48.690        27
48.700        13
48.710        40
48.720         7
48.730        33
48.740        27
48.750         7
48.760        13
48.770         7
48.780         7
48.790        13
48.800        33
48.810        27
48.820        13
48.830        20
48.840        20
48.850        40
48.860        27
48.870         0
48.880        27
48.890        27
48.900        13
48.910        53
48.920        13
48.930         7
48.940        40
48.950        20
48.960         0
48.970        33
48.980        20
48.990        33
49.000        20
49.010        20
49.020        33
49.030        13
49.040        13
49.050        20
49.060        33
49.070        20
49.080         7
49.090        20
49.100         0
49.110        13
49.120        13
49.130        13
49.140        27
49.150         0
49.160        20
49.170        20
49.180        13
49.190         7
49.200        20
49.210        20
49.220         7
49.230        20
49.240        33
49.250        33
49.260         7
49.270        13
49.280        27
49.290        20
49.300        27
49.310        27
49.320        13
49.330        20
49.340        27
49.350        13
49.360        27
49.370         7
49.380        20
49.390        13
49.400        20
49.410        33
49.420        13
49.430        13
49.440        27
49.450        27
49.460        33
49.470        27
49.480        13
49.490        40
49.500        27
49.510        27
49.520         7
49.530        13
49.540        27
49.550        33
49.560        27
49.570        27
49.580        33
49.590        20
49.600        20
49.610        27
49.620        60
49.630        47
49.640        33
49.650        27
49.660        87
49.670        40
49.680        73
49.690        67
49.700        33
49.710        20
49.720        33
49.730        40
49.740        13
49.750        33
49.760        47
49.770        33
49.780        47
49.790        60
49.800        40
49.810        80
49.820        60
49.830        47
49.840        47
49.850        40
49.860        53
49.870        47
49.880        33
49.890        20
49.900        20
49.910        40
49.920        33
49.930        27
49.940        47
49.950         7
49.960        27
49.970        73
49.980        33
49.990        20
50.000        47
50.010        40
50.020        33
50.030        20
50.040        40
50.050        20
50.060         7
50.070        40
50.080        47
50.090        40
50.100        27
50.110        27
50.120        47
50.130        13
50.140        20
50.150        47
50.160         7
50.170        33
50.180        27
50.190        27
50.200        13
50.210        20
50.220        53
50.230        53
50.240        13
50.250        13
50.260        27
50.270        20
50.280        20
50.290        33
50.300        27
50.310        13
50.320        40
50.330        27
50.340        20
50.350         7
50.360        27
50.370        27
50.380        13
50.390        33
50.400        33
50.410        27
50.420        40
50.430        20
50.440        20
50.450        33
50.460        13
50.470        20
50.480         7
50.490        20
50.500        33
50.510        20
50.520        33
50.530        47
50.540        20
50.550        53
50.560        47
50.570        60
50.580        40
50.590        20
50.600        20
50.610        13
50.620        27
50.630        33
50.640        13
50.650        20
50.660         7
50.670         0
50.680        27
50.690        20
50.700        40
50.710        13
50.720        20
50.730        53
50.740        40
50.750        13
50.760        20
50.770        60
50.780         7
50.790        27
50.800        13
50.810        27
50.820        53
50.830        40
50.840        13
50.850        33
50.860         7
50.870        13
50.880        13
50.890        33
50.900         7
50.910        27
50.920        47
50.930        13
50.940        33
50.950        20
50.960        20
50.970        20
50.980        13
50.990        20
51.000        13
51.010        60
51.020        47
51.030        27
51.040        13
51.050        40
51.060        27
51.070        60
51.080        20
51.090        20
51.100        20
51.110        27
51.120        53
51.130        47
51.140        33
51.150        40
51.160        47
51.170        20
51.180        40
51.190        47
51.200        20
51.210        47
51.220        13
51.230        40
51.240        20
51.250        60
51.260        40
51.270        53
51.280        33
51.290        33
51.300        40
51.310        20
51.320        33
51.330        20
51.340        13
51.350         0
51.360        27
51.370        47
51.380        40
51.390        27
51.400        13
51.410         7
51.420        27
51.430        13
51.440        13
51.450        27
51.460        27
51.470        40
51.480        47
51.490        27
51.500        13
51.510        13
51.520        33
51.530        47
51.540        20
51.550        13
51.560        20
51.570        13
51.580        33
51.590        13
51.600        47
51.610         0
51.620        27
51.630        47
51.640        33
51.650        53
51.660        20
51.670        27
51.680        33
51.690        27
51.700        27
51.710        27
51.720        60
51.730        33
51.740        20
51.750        27
51.760        27
51.770        33
51.780        47
51.790        53
51.800        13
51.810        13
51.820        47
51.830        53
51.840        27
51.850        27
51.860        13
51.870        40
51.880         7
51.890        20
51.900        20
51.910        40
51.920        27
51.930        27
51.940        27
51.950        47
51.960        27
51.970        27
51.980        27
51.990        53
52.000        20
52.010         7
52.020        13
52.030        27
52.040        27
52.050        53
52.060        20
52.070       100
52.080        13
52.090         0
52.100        27
52.110        27
52.120        60
52.130        33
52.140        40
52.150        27
52.160        27
52.170        27
52.180        40
52.190        27
52.200         7
52.210        27
52.220         0
52.230        27
52.240        20
52.250        20
52.260        27
52.270        33
52.280        20
52.290        47
52.300        53
52.310        33
52.320        27
52.330        47
52.340        40
52.350        33
52.360        20
52.370        40
52.380        27
52.390        33
52.400        53
52.410        40
52.420        33
52.430        53
52.440        53
52.450        27
52.460        40
52.470        40
52.480        60
52.490        40
52.500        60
52.510        20
52.520        27
52.530        40
52.540        33
52.550        40
52.560        40
52.570        20
52.580        20
52.590        13
52.600        13
52.610        13
52.620        27
52.630        20
52.640        20
52.650        60
52.660        20
52.670        33
52.680        33
52.690        13
52.700        33
52.710        40
52.720        13
52.730        40
52.740        20
52.750        20
52.760        13
52.770         7
52.780        33
52.790        20
52.800        13
52.810        33
52.820        27
52.830         0
52.840         0
52.850        20
52.860         7
52.870        27
52.880        13
52.890        13
52.900        33
52.910        33
52.920        20
52.930         0
52.940        20
52.950        20
52.960         0
52.970        20
52.980         7
52.990        33
53.000        20
53.010        20
53.020        33
53.030        40
53.040        27
53.050        20
53.060        20
53.070         7
53.080        20
53.090        33
53.100        20
53.110        40
53.120        20
53.130        27
53.140        27
53.150         7
53.160         0
53.170         7
53.180         7
53.190        27
53.200        20
53.210         7
53.220        33
53.230        67
53.240        27
53.250        27
53.260         0
53.270        27
53.280        13
53.290        27
53.300        40
53.310        33
53.320        27
53.330        13
53.340        47
53.350        40
53.360        27
53.370         7
53.380        27
53.390        33
53.400        47
53.410        13
53.420        20
53.430        13
53.440        27
53.450        20
53.460        20
53.470         7
53.480        20
53.490        40
53.500        27
53.510         7
53.520        20
53.530        27
53.540        27
53.550        20
53.560        20
53.570        27
53.580         7
53.590        27
53.600        13
53.610        27
53.620        27
53.630        33
53.640        33
53.650        47
53.660        33
53.670        47
53.680        33
53.690        27
53.700        13
53.710        53
53.720        27
53.730        20
53.740        13
53.750        33
53.760        27
53.770        20
53.780        13
53.790        27
53.800         7
53.810        33
53.820        40
53.830        47
53.840        40
53.850        27
53.860        33
53.870        13
53.880        40
53.890        13
53.900        40
53.910        27
53.920        47
53.930        27
53.940        33
53.950        33
53.960        33
53.970        27
53.980        13
53.990        33
54.000        27
54.010        20
54.020        27
54.030        40
54.040        27
54.050         7
54.060        27
54.070        40
54.080        27
54.090        33
54.100        53
54.110        27
54.120         7
54.130        33
54.140        47
54.150        33
54.160        27
54.170        20
54.180        40
54.190        27
54.200        13
54.210        13
54.220        33
54.230        20
54.240        13
54.250        53
54.260        33
54.270        33
54.280        33
54.290        33
54.300         7
54.310        27
54.320        40
54.330        47
54.340        27
54.350        33
54.360        20
54.370        27
54.380        27
54.390        60
54.400        27
54.410        53
54.420        60
54.430        13
54.440        47
54.450        27
54.460        13
54.470        47
54.480        40
54.490        60
54.500        33
54.510        20
54.520        33
54.530        27
54.540        27
54.550        13
54.560        20
54.570        20
54.580        40
54.590        13
54.600         7
54.610        40
54.620        20
54.630        27
54.640        13
54.650         0
54.660         0
54.670        20
54.680         7
54.690        27
54.700        20
54.710        47
54.720        20
54.730        27
54.740        27
54.750        13
54.760        27
54.770         7
54.780        13
54.790        13
54.800        27
54.810        13
54.820        27
54.830        13
54.840        47
54.850        27
54.860         7
54.870        27
54.880        20
54.890        40
54.900        33
54.910        20
54.920        27
54.930        40
54.940        27
54.950        20
54.960        13
54.970        33
54.980        27
54.990        20
55.000        27
55.010        27
55.020        13
55.030        27
55.040        33
55.050        13
55.060         7
55.070        13
55.080        20
55.090        13
55.100        33
55.110         7
55.120        33
55.130         7
55.140        13
55.150        13
55.160         7
55.170        53
55.180         7
55.190         0
55.200         7
55.210        20
55.220        27
55.230        33
55.240        53
55.250        27
55.260        20
55.270         7
55.280        33
55.290        20
55.300        33
55.310         7
55.320        20
55.330        20
55.340        20
55.350        27
55.360         0
55.370         7
55.380        27
55.390        13
55.400        20
55.410        33
55.420         7
55.430        27
55.440        33
55.450         7
55.460        27
55.470        27
55.480        33
55.490        20
55.500        47
55.510        20
55.520        13
55.530         7
55.540        27
55.550        13
55.560         7
55.570        40
55.580         7
55.590        27
55.600        27
55.610        27
55.620        27
55.630        47
55.640        13
55.650        27
55.660        27
55.670        20
55.680        20
55.690        13
55.700        20
55.710         7
55.720        13
55.730        33
55.740        47
55.750        33
55.760        33
55.770        27
55.780        20
55.790        33
55.800        20
55.810        27
55.820        13
55.830        27
55.840        33
55.850         7
55.860        13
55.870        27
55.880        20
55.890         7
55.900        27
55.910        13
55.920        27
55.930        27
55.940        47
55.950        47
55.960         0
55.970         7
55.980        13
55.990        20
56.000        27
56.010        40
56.020        20
56.030        20
56.040        40
56.050        27
56.060        27
56.070         7
56.080        40
56.090        27
56.100        20
56.110        40
56.120        13
56.130        27
56.140        60
56.150        40
56.160        20
56.170         7
56.180        20
56.190        40
56.200        20
56.210        27
56.220         0
56.230        33
56.240        40
56.250        13
56.260        53
56.270        53
56.280        40
56.290        13
56.300        27
56.310         0
56.320        40
56.330        20
56.340        13
56.350        27
56.360        13
56.370        27
56.380        33
56.390        33
56.400         7
56.410        33
56.420        47
56.430        13
56.440         0
56.450        20
56.460        20
56.470        33
56.480        47
56.490         0
56.500         7
56.510        27
56.520        20
56.530        27
56.540         7
56.550        20
56.560        27
56.570        13
56.580         0
56.590        13
56.600        27
56.610        33
56.620        27
56.630        33
56.640        20
56.650         7
56.660        13
56.670        13
56.680        20
56.690        33
56.700        13
56.710        13
56.720        20
56.730        27
56.740        27
56.750        33
56.760        27
56.770        20
56.780        27
56.790        13
56.800        33
56.810        33
56.820         0
56.830        13
56.840        20
56.850        13
56.860        13
56.870        20
56.880         7
56.890         7
56.900        27
56.910        13
56.920        20
56.930        20
56.940         7
56.950        27
56.960        27
56.970        33
56.980        40
56.990        20
57.000         0
57.010        60
57.020        20
57.030        13
57.040        20
57.050        40
57.060        13
57.070         0
57.080        20
57.090        40
57.100        20
57.110        20
57.120        27
57.130        27
57.140        20
57.150         7
57.160        33
57.170        40
57.180        20
57.190        20
57.200        27
57.210        20
57.220        20
57.230        33
57.240        73
57.250         7
57.260        20
57.270        27
57.280        13
57.290        13
57.300        20
57.310        27
57.320        20
57.330        33
57.340        53
57.350        20
57.360        33
57.370        13
57.380        13
57.390        20
57.400        20
57.410        40
57.420        40
57.430        27
57.440        20
57.450        73
57.460        73
57.470        73
57.480        60
57.490        60
57.500       113
57.510        87
57.520       107
57.530       173
57.540        93
57.550       107
57.560        87
57.570       107
57.580        33
57.590        73
57.600        40
57.610        20
57.620        53
57.630        33
57.640        47
57.650        27
57.660        27
57.670        87
57.680        73
57.690        60
57.700        73
57.710        73
57.720        53
57.730        53
57.740        53
57.750        40
57.760        40
57.770        40
57.780        47
57.790        20
57.800        27
57.810        20
57.820        47
57.830        40
57.840        20
57.850         7
57.860        20
57.870         7
57.880        20
57.890        27
57.900        20
57.910        33
57.920        20
57.930        33
57.940        27
57.950         7
57.960        27
57.970         7
57.980         7
57.990        27
58.000        27
58.010        13
58.020        27
58.030         7
58.040        27
58.050        20
58.060        27
58.070        27
58.080        20
58.090         7
58.100        20
58.110        13
58.120        27
58.130        13
58.140        13
58.150        33
58.160        20
58.170        20
58.180        13
58.190        13
58.200         7
58.210         0
58.220        27
58.230        27
58.240         0
58.250        13
58.260        13
58.270        13
58.280        13
58.290         7
58.300        13
58.310        27
58.320        13
58.330        13
58.340         0
58.350        20
58.360        20
58.370        33
58.380        13
58.390        13
58.400        27
58.410        13
58.420        47
58.430        20
58.440        20
58.450        40
58.460        27
58.470        13
58.480        20
58.490        20
58.500        20
58.510        13
58.520         7
58.530         0
58.540        13
58.550        13
58.560        13
58.570         7
58.580        13
58.590         7
58.600        33
58.610        13
58.620         0
58.630        20
58.640        13
58.650        20
58.660        13
58.670        20
58.680        20
58.690        20
58.700        27
58.710         7
58.720        20
58.730        13
58.740        20
58.750        20
58.760         0
58.770         7
58.780        27
58.790        13
58.800        20
58.810         7
58.820         7
58.830        20
58.840        13
58.850         0
58.860         7
58.870        13
58.880        13
58.890        13
58.900        27
58.910        27
58.920        20
58.930        13
58.940        13
58.950        13
58.960        20
58.970         7
58.980        13
58.990        33
59.000         7
59.010        13
59.020         7
59.030        20
59.040        33
59.050        13
59.060        20
59.070        33
59.080         7
59.090        27
59.100        47
59.110        13
59.120        13
59.130         7
59.140        33
59.150        13
59.160         7
59.170        33
59.180        20
59.190        13
59.200        13
59.210        20
59.220        13
59.230        27
59.240        13
59.250        40
59.260        20
59.270        13
59.280        27
59.290        20
59.300        13
59.310        20
59.320        27
59.330        27
59.340         7
59.350        40
59.360        13
59.370        20
59.380        20
59.390        13
59.400        20
59.410        13
59.420         7
59.430        20
59.440        20
59.450        20
59.460        27
59.470        33
59.480        13
59.490        20
59.500        13
59.510        53
59.520        27
59.530        13
59.540         7
59.550        20
59.560         0
59.570        13
59.580        20
59.590        33
59.600        20
59.610        33
59.620         7
59.630        40
59.640        20
59.650        13
59.660        20
59.670        20
59.680        27
59.690        40
59.700         7
59.710        13
59.720        20
59.730         7
59.740        33
59.750         7
59.760        13
59.770        20
59.780        20
59.790        33
59.800        33
59.810        27
59.820        20
59.830        33
59.840        13
59.850        40
59.860        13
59.870         7
59.880        40
59.890        20
59.900        13
59.910        13
59.920        47
59.930         7
59.940        20
59.950        20
59.960        20
59.970        13
59.980        40
59.990         0
60.000         0
