20.000        27
20.010        53
20.020        20
20.030        60
20.040        93
20.050        53
20.060        40
20.070        53
20.080        80
20.090        80
20.100        27
20.110        33
20.120        67
20.130        87
20.140        40
20.150        20
20.160        80
20.170        40
20.180        67
20.190        60
20.200        27
20.210        13
20.220        47
20.230        47
20.240        53
20.250        40
20.260        60
20.270        47
20.280        40
20.290        67
20.300        47
20.310        60
20.320        33
20.330        33
20.340        20
20.350        60
20.360        33
20.370        60
20.380        60
20.390        73
20.400        67
20.410        53
20.420        67
20.430       107
20.440        93
20.450        47
20.460        80
20.470        67
20.480        13
20.490        33
20.500        60
20.510        53
20.520        67
20.530        53
20.540        33
20.550        27
20.560        47
20.570        60
20.580        53
20.590        40
20.600        53
20.610        47
20.620        67
20.630        40
20.640        27
20.650        47
20.660        60
20.670        33
20.680        53
20.690        33
20.700        53
20.710        53
20.720        53
20.730        47
20.740        20
20.750        60
20.760        20
20.770        60
20.780        40
20.790        40
20.800        27
20.810        47
20.820        27
20.830        67
20.840        73
20.850        33
20.860        47
20.870        60
20.880        40
20.890        53
20.900        87
20.910        67
20.920        40
20.930        40
20.940        47
20.950        33
20.960        27
20.970        47
20.980        33
20.990        53
21.000        60
21.010        40
21.020        13
21.030        47
21.040        47
21.050        40
21.060        40
21.070        73
21.080        47
21.090        27
21.100        20
21.110        53
21.120        53
21.130        80
21.140        60
21.150        40
21.160        60
21.170        80
21.180        67
21.190        47
21.200        33
21.210        53
21.220        40
21.230        67
21.240        73
21.250        40
21.260        80
21.270        33
21.280        80
21.290        47
21.300        27
21.310        53
21.320        40
21.330        47
21.340        47
21.350        33
21.360        53
21.370        80
21.380        47
21.390        67
21.400        53
21.410        27
21.420        47
21.430        47
21.440        47
21.450        47
21.460         7
21.470        53
21.480        93
21.490        60
21.500        47
21.510        67
21.520        53
21.530        93
21.540        47
21.550        27
21.560        73
21.570        60
21.580        53
21.590        80
21.600        53
21.610        47
21.620        73
21.630        40
21.640        40
21.650        53
21.660        47
21.670        67
21.680        67
21.690        40
21.700        80
21.710        40
21.720        93
21.730        47
21.740        40
21.750        53
21.760        67
21.770        53
21.780        33
21.790        73
21.800        33
21.810        67
21.820        47
21.830        53
21.840        53
21.850        67
21.860        60
21.870        53
21.880        60
21.890        40
21.900        93
21.910        33
21.920        73
21.930       107
21.940        53
21.950        47
21.960        47
21.970       113
21.980        33
21.990        67
22.000        67
22.010        80
22.020        60
22.030        60
22.040        53
22.050        40
22.060        60
22.070        60
22.080        87
22.090        53
22.100        80
22.110        80
22.120        80
22.130        27
22.140        20
22.150        80
22.160        40
22.170        67
22.180        60
22.190        80
22.200        73
22.210        53
22.220        73
22.230        60
22.240       100
22.250        87
22.260       100
22.270        67
22.280        60
22.290        80
22.300       113
22.310        80
22.320       120
22.330        87
22.340       167
22.350       100
22.360       100
22.370        73
22.380       173
22.390       153
22.400       147
22.410       180
22.420       187
22.430       160
22.440       180
22.450       227
22.460       227
22.470       227
22.480       160
22.490       287
22.500       287
22.510       280
22.520       380
22.530       400
22.540       453
22.550       400
22.560       520
22.570       613
22.580       560
22.590       506
22.600       706
22.610       746
22.620       720
22.630       886
22.640       806
22.650       973
22.660       693
22.670       833
22.680       920
22.690       893
22.700       853
22.710       880
22.720       733
22.730       686
22.740       773
22.750       593
22.760       653
22.770       600
22.780       546
22.790       526
22.800       466
22.810       373
22.820       327
22.830       446
22.840       340
22.850       340
22.860       213
22.870       247
22.880       233
22.890       227
22.900       160
22.910       167
22.920       213
22.930       153
22.940       167
22.950       140
22.960       187
22.970       120
22.980       147
22.990       107
23.000        93
23.010       107
23.020       147
23.030        93
23.040        73
23.050       107
23.060       107
23.070        73
23.080       107
23.090        53
23.100        67
23.110        87
23.120        93
23.130       100
23.140        80
23.150        73
23.160       100
23.170        87
23.180        87
23.190       100
23.200        80
23.210        87
23.220        80
23.230        67
23.240        87
23.250        47
23.260       100
23.270        53
23.280        60
23.290        47
23.300        47
23.310        87
23.320        60
23.330        60
23.340        40
23.350        40
23.360        47
23.370        87
23.380        73
23.390        73
23.400        87
23.410        80
23.420        87
23.430        60
23.440        80
23.450        87
23.460        93
23.470        53
23.480       113
23.490        93
23.500        47
23.510       107
23.520        47
23.530       100
23.540       100
23.550        27
23.560        40
23.570        40
23.580        73
23.590        47
23.600        67
23.610        40
23.620        80
23.630        60
23.640        93
23.650        47
23.660        53
23.670        60
23.680        67
23.690        47
23.700        53
23.710        60
23.720        27
23.730        53
23.740        67
23.750       100
23.760        47
23.770        80
23.780        60
23.790        53
23.800        53
23.810        67
23.820        87
23.830        60
23.840        60
23.850        73
23.860        40
23.870        60
23.880        67
23.890        33
23.900        53
23.910        73
23.920        60
23.930        40
23.940        47
23.950        47
23.960        67
23.970        33
23.980        60
23.990        53
24.000        40
24.010        60
24.020        40
24.030        33
24.040        47
24.050        33
24.060        67
24.070        67
24.080        53
24.090        67
24.100        80
24.110        47
24.120        73
24.130        27
24.140        40
24.150        40
24.160        60
24.170        87
24.180        80
24.190        67
24.200        27
24.210        20
24.220        27
24.230        53
24.240        33
24.250        33
24.260        67
24.270        60
24.280        53
24.290        87
24.300        53
24.310        60
24.320        27
24.330        47
24.340        60
24.350        47
24.360        60
24.370        67
24.380        80
24.390        87
24.400        40
24.410        33
24.420        53
24.430        33
24.440        47
24.450        60
24.460        13
24.470        53
24.480        73
24.490        53
24.500        67
24.510        53
24.520        40
24.530        47
24.540        73
24.550        47
24.560        60
24.570        40
24.580        53
24.590        73
24.600        27
24.610        40
24.620        27
24.630        73
24.640        40
24.650        53
24.660        60
24.670        47
24.680        80
24.690        40
24.700        47
24.710        27
24.720        67
24.730         0
24.740        47
24.750        20
24.760       100
24.770        73
24.780        33
24.790        60
24.800        53
24.810        47
24.820        67
24.830        67
24.840        67
24.850        47
24.860        47
24.870        33
24.880        73
24.890        87
24.900        53
24.910        20
24.920        53
24.930        87
24.940        53
24.950        47
24.960        40
24.970       100
24.980        20
24.990        80
25.000        93
25.010        40
25.020        47
25.030        60
25.040        40
25.050        80
25.060        33
25.070        67
25.080        93
25.090        47
25.100        60
25.110        87
25.120        33
25.130        53
25.140        53
25.150        33
25.160        60
25.170        20
25.180        80
25.190        47
25.200        47
25.210        33
25.220        60
25.230        33
25.240        40
25.250        47
25.260        80
25.270        87
25.280        60
25.290        67
25.300        67
25.310        67
25.320       100
25.330       120
25.340        73
25.350       113
25.360       113
25.370       140
25.380       100
25.390       107
25.400        93
25.410       120
25.420        93
25.430        87
25.440        87
25.450       140
25.460        60
25.470       113
25.480        60
25.490       107
25.500       173
25.510       140
25.520       147
25.530       107
25.540        87
25.550       133
25.560       120
25.570       113
25.580       107
25.590       100
25.600       113
25.610        87
25.620        87
25.630        47
25.640        87
25.650        67
25.660        40
25.670        40
25.680        87
25.690        60
25.700        47
25.710        73
25.720        53
25.730       120
25.740        53
25.750        47
25.760        40
25.770        67
25.780        73
25.790        47
25.800        47
25.810        60
25.820        87
25.830        60
25.840        33
25.850        73
25.860        47
25.870        73
25.880        27
25.890        47
25.900        47
25.910        53
25.920        67
25.930        33
25.940        40
25.950        53
25.960        53
25.970        60
25.980        67
25.990        80
26.000        87
26.010        40
26.020        60
26.030        53
26.040        80
26.050        73
26.060        27
26.070        47
26.080        73
26.090        53
26.100        47
26.110        47
26.120        80
26.130        27
26.140        80
26.150        40
26.160        73
26.170        53
26.180        40
26.190        60
26.200        60
26.210        47
26.220        40
26.230        67
26.240        40
26.250        53
26.260        40
26.270        53
26.280        87
26.290        47
26.300        40
26.310        80
26.320        33
26.330        53
26.340        33
26.350        53
26.360        93
26.370        80
26.380        27
26.390        53
26.400        67
26.410        60
26.420        53
26.430        33
26.440        67
26.450        33
26.460        73
26.470        67
26.480        40
26.490        33
26.500        60
26.510        73
26.520        80
26.530        47
26.540        40
26.550        47
26.560        33
26.570        73
26.580        40
26.590        40
26.600        60
26.610        60
26.620        53
26.630        47
26.640        73
26.650        87
26.660        20
26.670        53
26.680        67
26.690        33
26.700        47
26.710        67
26.720        53
26.730        40
26.740        87
26.750        47
26.760        27
26.770        60
26.780        20
26.790        53
26.800        47
26.810        27
26.820        73
26.830        33
26.840        47
26.850        27
26.860        53
26.870        27
26.880         7
26.890       100
26.900        80
26.910        47
26.920        67
26.930        47
26.940        73
26.950        53
26.960        40
26.970        33
26.980        60
26.990        33
27.000        53
27.010        47
27.020        53
27.030        60
27.040        40
27.050         7
27.060        87
27.070        40
27.080        53
27.090        53
27.100        33
27.110        47
27.120        60
27.130        47
27.140        60
27.150        27
27.160        33
27.170        47
27.180        47
27.190        40
27.200        27
27.210        60
27.220        87
27.230        47
27.240        33
27.250        47
27.260        47
27.270        40
27.280        53
27.290        67
27.300        60
27.310        60
27.320        60
27.330        27
27.340        47
27.350        20
27.360        67
27.370        73
27.380        20
27.390        53
27.400        40
27.410        47
27.420        67
27.430        53
27.440        60
27.450        67
27.460        40
27.470        60
27.480        27
27.490        60
27.500        33
27.510        33
27.520         7
27.530        33
27.540        47
27.550        40
27.560        27
27.570        33
27.580        27
27.590        47
27.600        40
27.610        27
27.620        53
27.630        73
27.640        53
27.650        47
27.660        67
27.670        20
27.680        27
27.690        33
27.700        40
27.710        60
27.720        47
27.730        47
27.740        47
27.750        47
27.760        67
27.770        20
27.780        40
27.790        40
27.800        47
27.810        47
27.820        20
27.830        40
27.840        13
27.850        27
27.860        53
27.870        60
27.880        80
27.890        33
27.900        47
27.910        53
27.920        80
27.930        47
27.940        27
27.950        40
27.960        40
27.970        33
27.980        67
27.990        47
28.000        20
28.010        27
28.020        53
28.030        33
28.040        60
28.050        53
28.060        60
28.070        20
28.080        67
28.090        13
28.100        20
28.110        67
28.120        53
28.130        67
28.140        40
28.150        27
28.160        53
28.170        40
28.180        33
28.190        53
28.200        67
28.210        40
28.220        33
28.230        47
28.240        27
28.250        27
28.260        40
28.270        53
28.280        60
28.290        60
28.300        40
28.310        33
28.320        47
28.330        27
28.340        27
28.350        40
28.360        33
28.370        20
28.380        53
28.390        60
28.400        47
28.410        53
28.420        20
28.430        60
28.440        60
28.450        33
28.460        47
28.470        73
28.480        33
28.490        67
28.500        93
28.510        73
28.520        87
28.530        40
28.540        33
28.550        20
28.560        27
28.570        80
28.580        73
28.590        27
28.600        33
28.610        33
28.620        67
28.630        60
28.640        40
28.650        60
28.660        60
28.670        40
28.680        80
28.690        40
28.700        20
28.710        80
28.720        60
28.730        33
28.740        53
28.750        13
28.760        40
28.770        53
28.780        40
28.790        20
28.800        53
28.810        33
28.820        53
28.830        60
28.840        40
28.850        33
28.860        33
28.870         7
28.880        20
28.890        13
28.900        40
28.910        60
28.920        33
28.930        40
28.940        27
28.950        33
28.960        73
28.970        60
28.980        60
28.990        47
29.000        20
29.010        73
29.020        47
29.030        33
29.040        33
29.050         0
29.060        40
29.070        47
29.080        40
29.090        60
29.100        33
29.110        27
29.120        73
29.130        47
29.140        53
29.150        53
29.160        73
29.170        33
29.180        60
29.190        53
29.200        40
29.210        60
29.220        47
29.230        53
29.240        13
29.250        80
29.260        27
29.270        27
29.280        27
29.290        13
29.300        27
29.310       120
29.320         0
29.330        73
29.340        53
29.350        27
29.360        27
29.370        47
29.380        40
29.390        40
29.400        27
29.410        47
29.420        53
29.430        33
29.440        40
29.450        67
29.460        33
29.470        20
29.480        53
29.490        40
29.500        13
29.510        40
29.520        53
29.530        40
29.540        47
29.550        53
29.560        40
29.570        27
29.580        67
29.590        20
29.600        40
29.610        47
29.620        40
29.630        27
29.640        20
29.650        27
29.660        47
29.670        40
29.680        47
29.690        40
29.700        47
29.710        27
29.720        27
29.730        27
29.740        73
29.750        53
29.760        53
29.770        40
29.780        33
29.790        53
29.800        27
29.810        47
29.820        47
29.830        47
29.840        33
29.850        13
29.860        60
29.870        87
29.880        67
29.890        53
29.900        33
29.910        80
29.920        53
29.930        13
29.940        47
29.950        33
29.960        33
29.970        67
29.980        73
29.990        40
30.000        40
30.010        20
30.020        20
30.030        40
30.040        40
30.050        67
30.060        67
30.070        73
30.080        27
30.090        80
30.100        33
30.110        60
30.120        67
30.130        33
30.140        27
30.150        33
30.160        53
30.170        40
30.180        53
30.190        73
30.200        33
30.210        33
30.220        13
30.230        33
30.240        53
30.250        33
30.260        67
30.270        47
30.280        20
30.290        27
30.300         0
30.310        40
30.320        47
30.330        73
30.340        40
30.350        47
30.360        20
30.370        47
30.380        53
30.390        33
30.400        20
30.410        27
30.420        47
30.430        47
30.440        27
30.450        53
30.460        73
30.470        53
30.480        53
30.490        33
30.500        47
30.510        40
30.520        40
30.530        27
30.540        40
30.550        20
30.560        40
30.570        60
30.580        67
30.590        40
30.600        13
30.610        87
30.620        27
30.630        20
30.640        40
30.650        53
30.660        53
30.670        40
30.680        40
30.690        53
30.700        47
30.710        13
30.720        40
30.730        33
30.740        47
30.750        20
30.760        33
30.770        67
30.780        60
30.790        33
30.800        47
30.810        47
30.820        47
30.830        27
30.840        27
30.850        13
30.860        13
30.870        13
30.880        33
30.890        53
30.900        33
30.910        20
30.920        33
30.930        40
30.940        47
30.950        27
30.960        40
30.970        47
30.980        40
30.990        47
31.000        53
31.010        40
31.020        20
31.030        27
31.040        53
31.050        47
31.060        40
31.070        33
31.080        40
31.090        33
31.100        53
31.110        27
31.120        27
31.130        27
31.140        53
31.150        47
31.160        53
31.170        53
31.180        27
31.190        13
31.200        40
31.210        60
31.220        40
31.230        27
31.240        33
31.250        13
31.260        53
31.270        20
31.280        27
31.290        33
31.300        13
31.310        27
31.320        27
31.330        40
31.340        33
31.350        20
31.360        33
31.370        40
31.380        73
31.390        13
31.400        20
31.410        40
31.420        47
31.430        47
31.440        67
31.450        60
31.460        40
31.470        67
31.480        27
31.490        40
31.500        40
31.510        33
31.520        27
31.530        33
31.540        20
31.550        47
31.560        27
31.570        33
31.580        87
31.590        13
31.600        13
31.610        47
31.620        40
31.630        87
31.640        60
31.650        47
31.660        33
31.670        33
31.680        40
31.690        20
31.700        47
31.710        53
31.720        27
31.730        53
31.740        33
31.750        13
31.760        40
31.770        80
31.780        27
31.790        33
31.800        47
31.810        53
31.820        53
31.830        47
31.840        27
31.850        67
31.860        40
31.870        40
31.880        40
31.890        33
31.900        47
31.910        33
31.920        27
31.930        33
31.940        40
31.950        53
31.960        73
31.970        60
31.980        27
31.990        73
32.000        47
32.010        27
32.020        73
32.030        47
32.040        40
32.050        40
32.060        33
32.070        33
32.080        47
32.090        87
32.100        47
32.110        67
32.120        60
32.130        73
32.140        93
32.150        87
32.160        80
32.170        87
32.180        53
32.190       160
32.200        67
32.210       100
32.220       140
32.230       160
32.240       100
32.250       133
32.260       127
32.270       167
32.280       180
32.290       173
32.300       127
32.310       140
32.320       200
32.330       160
32.340       260
32.350       213
32.360       193
32.370       247
32.380       233
32.390       387
32.400       273
32.410       247
32.420       253
32.430       273
32.440       273
32.450       200
32.460       300
32.470       247
32.480       207
32.490       200
32.500       213
32.510       240
32.520       200
32.530       173
32.540       140
32.550       133
32.560       127
32.570        87
32.580       113
32.590        67
32.600        40
32.610        80
32.620        80
32.630        47
32.640        80
32.650        73
32.660        73
32.670        47
32.680        67
32.690        67
32.700        13
32.710        40
32.720        40
32.730        33
32.740        20
32.750        13
32.760        53
32.770        40
32.780        33
32.790        53
32.800        73
32.810        33
32.820        27
32.830        40
32.840        27
32.850        53
32.860        27
32.870        33
32.880        60
32.890        80
32.900         7
32.910        27
32.920        40
32.930        27
32.940        40
32.950        27
32.960        20
32.970        60
32.980        27
32.990        20
33.000        20
33.010        20
33.020        27
33.030        47
33.040        47
33.050        20
33.060        53
33.070        27
33.080        20
33.090        27
33.100        13
33.110        33
33.120        40
33.130         7
33.140        40
33.150        40
33.160        33
33.170        33
33.180        40
33.190        20
33.200        20
33.210        20
33.220        27
33.230        47
33.240        27
33.250        40
33.260        67
33.270        47
33.280        40
33.290        27
33.300        40
33.310        20
33.320        40
33.330        13
33.340        40
33.350        20
33.360        33
33.370        33
33.380        20
33.390        27
33.400        27
33.410        67
33.420        33
33.430        47
33.440        20
33.450        47
33.460        27
33.470        27
33.480        40
33.490        13
33.500        20
33.510        27
33.520        20
33.530        20
33.540        33
33.550        27
33.560        47
33.570        33
33.580        40
33.590        20
33.600        13
33.610        27
33.620        40
33.630        33
33.640        40
33.650        53
33.660        60
33.670        47
33.680         7
33.690        13
33.700        27
33.710        40
33.720         0
33.730        13
33.740        20
33.750        33
33.760        53
33.770        20
33.780         7
33.790        40
33.800        40
33.810        33
33.820        67
33.830        47
33.840        13
33.850        20
33.860        33
33.870        27
33.880        53
33.890        27
33.900        27
33.910        33
33.920        40
33.930         7
33.940        47
33.950        20
33.960        53
33.970        40
33.980        53
33.990        47
34.000        40
34.010        40
34.020        20
34.030        27
34.040        13
34.050        40
34.060        27
34.070        27
34.080        47
34.090        40
34.100        20
34.110        13
34.120        20
34.130        33
34.140        27
34.150        53
34.160        20
34.170        33
34.180         7
34.190         7
34.200        33
34.210        47
34.220        67
34.230        33
34.240        27
34.250        47
34.260        33
34.270        27
34.280         7
34.290        40
34.300        33
34.310        20
34.320        20
34.330        27
34.340        53
34.350        20
34.360         7
34.370        60
34.380        20
34.390        27
34.400        27
34.410        20
34.420        20
34.430        40
34.440        33
34.450        20
34.460        33
34.470        33
34.480        27
34.490        33
34.500        33
34.510        20
34.520        47
34.530        13
34.540        67
34.550        13
34.560        33
34.570        27
34.580        47
34.590        47
34.600        47
34.610        33
34.620        33
34.630        27
34.640        33
34.650        40
34.660         7
34.670        47
34.680        20
34.690        47
34.700        13
34.710        47
34.720        20
34.730        33
34.740        33
34.750        13
34.760        60
34.770        13
34.780        40
34.790        73
34.800        27
34.810        27
34.820        47
34.830        33
34.840        60
34.850        20
34.860        27
34.870        20
34.880        33
34.890        67
34.900        13
34.910        53
34.920        27
34.930        47
34.940        60
34.950        67
34.960        33
34.970        60
34.980        27
34.990        73
35.000        67
35.010        47
35.020        73
35.030        47
35.040        67
35.050        73
35.060       100
35.070       127
35.080       153
35.090       113
35.100       133
35.110       200
35.120       180
35.130       227
35.140       153
35.150       253
35.160       227
35.170       180
35.180        73
35.190       107
35.200        93
35.210       140
35.220       153
35.230        80
35.240       120
35.250       100
35.260        80
35.270        47
35.280        27
35.290        73
35.300         7
35.310        33
35.320        53
35.330        53
35.340        53
35.350        40
35.360         7
35.370        47
35.380        53
35.390        33
35.400        27
35.410        27
35.420        13
35.430        27
35.440        33
35.450        27
35.460        67
35.470        13
35.480        33
35.490         7
35.500        40
35.510        27
35.520        20
35.530        67
35.540        20
35.550        40
35.560         7
35.570        13
35.580        33
35.590        20
35.600        27
35.610        53
35.620        53
35.630        27
35.640        20
35.650        20
35.660        47
35.670        27
35.680        33
35.690        33
35.700        53
35.710        27
35.720         7
35.730        13
35.740         7
35.750        13
35.760        40
35.770        20
35.780        13
35.790        20
35.800        53
35.810        47
35.820        27
35.830        27
35.840        40
35.850        27
35.860        33
35.870        40
35.880        60
35.890        47
35.900        47
35.910        20
35.920        27
35.930        47
35.940        33
35.950        20
35.960        20
35.970        33
35.980        20
35.990        27
36.000        53
36.010        20
36.020        27
36.030        33
36.040        13
36.050        33
36.060         7
36.070         7
36.080        67
36.090        27
36.100        20
36.110        33
36.120        33
36.130        47
36.140        13
36.150        33
36.160        33
36.170        20
36.180        20
36.190        27
36.200        20
36.210        27
36.220        20
36.230        47
36.240        47
36.250        33
36.260        33
36.270        47
36.280        13
36.290        27
36.300        27
36.310        13
36.320        40
36.330        13
36.340         7
36.350        20
36.360        40
36.370        33
36.380        20
36.390        27
36.400        20
36.410        27
36.420        27
36.430        13
36.440        13
36.450        27
36.460        13
36.470        33
36.480        27
36.490        27
36.500        27
36.510        47
36.520        13
36.530        33
36.540        47
36.550        20
36.560        47
36.570        40
36.580        40
36.590        40
36.600        27
36.610        20
36.620         7
36.630         7
36.640        40
36.650        40
36.660         7
36.670        20
36.680        27
36.690        13
36.700        40
36.710        27
36.720        53
36.730        40
36.740        13
36.750        27
36.760        20
36.770         0
36.780        40
36.790        13
36.800        40
36.810        27
36.820        40
36.830        47
36.840        13
36.850        33
36.860        40
36.870        20
36.880        27
36.890        40
36.900         7
36.910        53
36.920        27
36.930        33
36.940        40
36.950        73
36.960        47
36.970        27
36.980        40
36.990        53
37.000        33
37.010        13
37.020        53
37.030        33
37.040        13
37.050        20
37.060        13
37.070        40
37.080        40
37.090         7
37.100        33
37.110        20
37.120        33
37.130        33
37.140        33
37.150        13
37.160        40
37.170        27
37.180        13
37.190        27
37.200        13
37.210        13
37.220        33
37.230        27
37.240        33
37.250        27
37.260        33
37.270        27
37.280        27
37.290        27
37.300        13
37.310        13
37.320        20
37.330        20
37.340        20
37.350        33
37.360        13
37.370        13
37.380         7
37.390        40
37.400        13
37.410        20
37.420        13
37.430        40
37.440        33
37.450        27
37.460        27
37.470        47
37.480        60
37.490        20
37.500        27
37.510        13
37.520        27
37.530        40
37.540        20
37.550        27
37.560        13
37.570        47
37.580        33
37.590        20
37.600        60
37.610        20
37.620        47
37.630        73
37.640        47
37.650        87
37.660        60
37.670        60
37.680        80
37.690        60
37.700        87
37.710        47
37.720        60
37.730        93
37.740       133
37.750        87
37.760       180
37.770       113
37.780        87
37.790       107
37.800        80
37.810        87
37.820        93
37.830       107
37.840       133
37.850        80
37.860        67
37.870        80
37.880        93
37.890        73
37.900       107
37.910        20
37.920        67
37.930        47
37.940        73
37.950        27
37.960        13
37.970        27
37.980        13
37.990        13
38.000        13
38.010        40
38.020        40
38.030        47
38.040        33
38.050        27
38.060        27
38.070        40
38.080        20
38.090         7
38.100        13
38.110        27
38.120        33
38.130        27
38.140        27
38.150        33
38.160        53
38.170        40
38.180        33
38.190        27
38.200        47
38.210        27
38.220        33
38.230        27
38.240        27
38.250        27
38.260        20
38.270        20
38.280         7
38.290        47
38.300        20
38.310        27
38.320        33
38.330        27
38.340         7
38.350        20
38.360        20
38.370        27
38.380         7
38.390        27
38.400        47
38.410        33
38.420        40
38.430        20
38.440        33
38.450        20
38.460        33
38.470        40
38.480        13
38.490        40
38.500        33
38.510        13
38.520        33
38.530        13
38.540        20
38.550        40
38.560        27
38.570         7
38.580        33
38.590        20
38.600        13
38.610        40
38.620        20
38.630        40
38.640        20
38.650        20
38.660        27
38.670         7
38.680        20
38.690        53
38.700        13
38.710        47
38.720        13
38.730        13
38.740        13
38.750        33
38.760        20
38.770        27
38.780        40
38.790        40
38.800        40
38.810        27
38.820         7
38.830        20
38.840        47
38.850        20
38.860        27
38.870        27
38.880        40
38.890        20
38.900        27
38.910        27
38.920        33
38.930        13
38.940        13
38.950        67
38.960         7
38.970        13
38.980        13
38.990        27
39.000        20
39.010        40
39.020        20
39.030        27
39.040        20
39.050        27
39.060        60
39.070        60
39.080        33
39.090        27
39.100        47
39.110        13
39.120        40
39.130        20
39.140        20
39.150        27
39.160        27
39.170        13
39.180        27
39.190        27
39.200         7
39.210        40
39.220         7
39.230        20
39.240        27
39.250        33
39.260        27
39.270        20
39.280        13
39.290        27
39.300        33
39.310        33
39.320        13
39.330        13
39.340        47
39.350        40
39.360        33
39.370        40
39.380        27
39.390        27
39.400        33
39.410        13
39.420         7
39.430        33
39.440         7
39.450        47
39.460        40
39.470        20
39.480        27
39.490        47
39.500        40
39.510        53
39.520        20
39.530        13
39.540        20
39.550        27
39.560        33
39.570         7
39.580        47
39.590        33
39.600        33
39.610        33
39.620        27
39.630        47
39.640        20
39.650        60
39.660        40
39.670        67
39.680        53
39.690        33
39.700        47
39.710        40
39.720        47
39.730        60
39.740        53
39.750        73
39.760        87
39.770       133
39.780        80
39.790        80
39.800       100
39.810       107
39.820       100
39.830       113
39.840       167
39.850       193
39.860       213
39.870       173
39.880       240
39.890       220
39.900       300
39.910       213
39.920       313
39.930       327
39.940       287
39.950       400
39.960       300
39.970       367
39.980       367
39.990       413
40.000       380
40.010       367
40.020       347
40.030       320
40.040       367
40.050       327
40.060       307
40.070       267
40.080       300
40.090       220
40.100       220
40.110       227
40.120       160
40.130       213
40.140       153
40.150       140
40.160       207
40.170       180
40.180        93
40.190       100
40.200       127
40.210        73
40.220        60
40.230        73
40.240        80
40.250        33
40.260        33
40.270        53
40.280        60
40.290        60
40.300        33
40.310        67
40.320        47
40.330        40
40.340        27
40.350        20
40.360        13
40.370        40
40.380        27
40.390        27
40.400        47
40.410        33
40.420        20
40.430        13
40.440        60
40.450        27
40.460        33
40.470        40
40.480        33
40.490        33
40.500        20
40.510        13
40.520        33
40.530        20
40.540        40
40.550        47
40.560        40
40.570        40
40.580        47
40.590        13
40.600        73
40.610        20
40.620         7
40.630        27
40.640        27
40.650        13
40.660         0
40.670        60
40.680        47
40.690        27
40.700        27
40.710        40
40.720        33
40.730        20
40.740        53
40.750        13
40.760        27
40.770        40
40.780        33
40.790        40
40.800        20
40.810        33
40.820        40
40.830        53
40.840        33
40.850        53
40.860        33
40.870        80
40.880        27
40.890        33
40.900        13
40.910         7
40.920        40
40.930        27
40.940        13
40.950        27
40.960        20
40.970        40
40.980        47
40.990        40
41.000        47
41.010        40
41.020        20
41.030        40
41.040         7
41.050        33
41.060        33
41.070        40
41.080        20
41.090        33
41.100        73
41.110        53
41.120        27
41.130        47
41.140        27
41.150        27
41.160        20
41.170        67
41.180        20
41.190        27
41.200        33
41.210        13
41.220        13
41.230        13
41.240        27
41.250        13
41.260        47
41.270        27
41.280        40
41.290        27
41.300        27
41.310        33
41.320        40
41.330        53
41.340        40
41.350        47
41.360        40
41.370        20
41.380        53
41.390        33
41.400        33
41.410        67
41.420        67
41.430        33
41.440        53
41.450        87
41.460        60
41.470        60
41.480        80
41.490        60
41.500        93
41.510        60
41.520        67
41.530       113
41.540        67
41.550        47
41.560        60
41.570        87
41.580        67
41.590       107
41.600        80
41.610        87
41.620        87
41.630        80
41.640       133
41.650       140
41.660       107
41.670       173
41.680       187
41.690       100
41.700       140
41.710       100
41.720        80
41.730       133
41.740        80
41.750        87
41.760        93
41.770       107
41.780        93
41.790       140
41.800       100
41.810        53
41.820       107
41.830        87
41.840        73
41.850        53
41.860        80
41.870        93
41.880        67
41.890        53
41.900        47
41.910        33
41.920        33
41.930        67
41.940        60
41.950        27
41.960        47
41.970        33
41.980        13
41.990        20
42.000        40
42.010        20
42.020        27
42.030        40
42.040        53
42.050         7
42.060        40
42.070        27
42.080        40
42.090         7
42.100        40
42.110        27
42.120        60
42.130        47
42.140        60
42.150        33
42.160        27
42.170        40
42.180        27
42.190        13
42.200        53
42.210        20
42.220        20
42.230        27
42.240        33
42.250        27
42.260        27
42.270        40
42.280        27
42.290        20
42.300        27
42.310        47
42.320        27
42.330        20
42.340        27
42.350        20
42.360        53
42.370        20
42.380        33
42.390         7
42.400        40
42.410        27
42.420        20
42.430        40
42.440        27
42.450        33
42.460         7
42.470        20
42.480        33
42.490        13
42.500        13
42.510        47
42.520        40
42.530        40
42.540        20
42.550        20
42.560        20
42.570        13
42.580        20
42.590        20
42.600        33
42.610        13
42.620        13
42.630        27
42.640        33
42.650        20
42.660        27
42.670        33
42.680        27
42.690        40
42.700         0
42.710        13
42.720        33
42.730        53
42.740        27
42.750         7
42.760         7
42.770        27
42.780        20
42.790        27
42.800        40
42.810        20
42.820        33
42.830        27
42.840        40
42.850        13
42.860        13
42.870        40
42.880         7
42.890        47
42.900        60
42.910        27
42.920        20
42.930        33
42.940        13
42.950        13
42.960        27
42.970        33
42.980        20
42.990        13
43.000        33
43.010        27
43.020        67
43.030        20
43.040        20
43.050        20
43.060        33
43.070        87
43.080        33
43.090        27
43.100        33
43.110        33
43.120        40
43.130        47
43.140        33
43.150        40
43.160        33
43.170        20
43.180        53
43.190        40
43.200        33
43.210        47
43.220        87
43.230        67
43.240        67
43.250        60
43.260       100
43.270        73
43.280       113
43.290        93
43.300       200
43.310       113
43.320       153
43.330       207
43.340       253
43.350       200
43.360       153
43.370       100
43.380       140
43.390        93
43.400        60
43.410       107
43.420       120
43.430       127
43.440        67
43.450       107
43.460       140
43.470       113
43.480        87
43.490        67
43.500       113
43.510        47
43.520        40
43.530        20
43.540        33
43.550        53
43.560        33
43.570        20
43.580        40
43.590        60
43.600        20
43.610        27
43.620        40
43.630        27
43.640        47
43.650        27
43.660        27
43.670        40
43.680        53
43.690        33
43.700        20
43.710        33
43.720        33
43.730        40
43.740        20
43.750        33
43.760        13
43.770        47
43.780        40
43.790        13
43.800        13
43.810        33
43.820        27
43.830        33
43.840        20
43.850        27
43.860        40
43.870        27
43.880         7
43.890        27
43.900        47
43.910        47
43.920        53
43.930        20
43.940        27
43.950        13
43.960        33
43.970        33
43.980        20
43.990        20
44.000        53
44.010        40
44.020        27
44.030        53
44.040         7
44.050        33
44.060        20
44.070        33
44.080        20
44.090        47
44.100        20
44.110        40
44.120        20
44.130        40
44.140        27
44.150        20
44.160        40
44.170        67
44.180        20
44.190        40
44.200        53
44.210        27
44.220        33
44.230        60
44.240        53
44.250         7
44.260        40
44.270        20
44.280        60
44.290        47
44.300        13
44.310        40
44.320        40
44.330        33
44.340        53
44.350        47
44.360        53
44.370        53
44.380        47
44.390        47
44.400        47
44.410        33
44.420        40
44.430        67
44.440        40
44.450        33
44.460        33
44.470        33
44.480        53
44.490        27
44.500        20
44.510        53
44.520        53
44.530        60
44.540        53
44.550        13
44.560        73
44.570        53
44.580        13
44.590        47
44.600        20
44.610        67
44.620        47
44.630        73
44.640        73
44.650        60
44.660        80
44.670        87
44.680        93
44.690        67
44.700        93
44.710        67
44.720        40
44.730        80
44.740        67
44.750       107
44.760        67
44.770        93
44.780        67
44.790        60
44.800        47
44.810       107
44.820       100
44.830        93
44.840       107
44.850        80
44.860        87
44.870       113
44.880        53
44.890        93
44.900       107
44.910        73
44.920       133
44.930        93
44.940        80
44.950       100
44.960       100
44.970       133
44.980       120
44.990        73
45.000        67
45.010       100
45.020       100
45.030        87
45.040        93
45.050       120
45.060        93
45.070       113
45.080        73
45.090       147
45.100       107
45.110       113
45.120        80
45.130       100
45.140       100
45.150       173
45.160        93
45.170       133
45.180       147
45.190       120
45.200        67
45.210       120
45.220       113
45.230       107
45.240       120
45.250       113
45.260       127
45.270        87
45.280        80
45.290       133
45.300       100
45.310       153
45.320       160
45.330       100
45.340       213
45.350       167
45.360       193
45.370        87
45.380       133
45.390       187
45.400       173
45.410       153
45.420       167
45.430       207
45.440       180
45.450       193
45.460       167
45.470       213
45.480       133
45.490       153
45.500       147
45.510       180
45.520       213
45.530       193
45.540       227
45.550       213
45.560       167
45.570       240
45.580       220
45.590       307
45.600       307
45.610       253
45.620       233
45.630       233
45.640       307
45.650       307
45.660       267
45.670       373
45.680       293
45.690       367
45.700       387
45.710       380
45.720       407
45.730       387
45.740       413
45.750       393
45.760       367
45.770       413
45.780       486
45.790       566
45.800       513
45.810       553
45.820       540
45.830       686
45.840       600
45.850       593
45.860       733
45.870       746
45.880       853
45.890       840
45.900       806
45.910       860
45.920       966
45.930       953
45.940      1093
45.950      1146
45.960      1266
45.970      1286
45.980      1339
45.990      1486
46.000      1286
46.010      1453
46.020      1706
46.030      1653
46.040      2119
46.050      1926
46.060      2179
46.070      1906
46.080      2412
46.090      2459
46.100      2219
46.110      2492
46.120      2546
46.130      3052
46.140      3059
46.150      3272
46.160      3725
46.170      3758
46.180      3685
46.190      4032
46.200      4025
46.210      4425
46.220      4598
46.230      4951
46.240      5065
46.250      5151
46.260      5544
46.270      5524
46.280      5931
46.290      5544
46.300      6044
46.310      6204
46.320      6544
46.330      6557
46.340      6937
46.350      7090
46.360      6724
46.370      7204
46.380      7364
46.390      6957
46.400      6711
46.410      7077
46.420      7144
46.430      7350
46.440      7257
46.450      6631
46.460      7077
46.470      6744
46.480      6404
46.490      6471
46.500      6537
46.510      5931
46.520      6584
46.530      5738
46.540      5958
46.550      5844
46.560      5371
46.570      5544
46.580      4945
46.590      4865
46.600      4778
46.610      4412
46.620      4252
46.630      3865
46.640      3785
46.650      3512
46.660      3599
46.670      3192
46.680      3079
46.690      2892
46.700      2779
46.710      2732
46.720      2319
46.730      2259
46.740      2352
46.750      2006
46.760      1839
46.770      1853
46.780      1639
46.790      1573
46.800      1473
46.810      1393
46.820      1339
46.830      1473
46.840      1226
46.850      1279
46.860      1046
46.870      1073
46.880       886
46.890       973
46.900       900
46.910       760
46.920       820
46.930       826
46.940       780
46.950       633
46.960       673
46.970       573
46.980       566
46.990       600
47.000       553
47.010       560
47.020       393
47.030       580
47.040       506
47.050       493
47.060       373
47.070       460
47.080       433
47.090       453
47.100       353
47.110       327
47.120       340
47.130       333
47.140       327
47.150       393
47.160       280
47.170       333
47.180       287
47.190       327
47.200       313
47.210       240
47.220       207
47.230       180
47.240       220
47.250       247
47.260       207
47.270       287
47.280       293
47.290       187
47.300       247
47.310       267
47.320       240
47.330       180
47.340       207
47.350       160
47.360       233
47.370       207
47.380       167
47.390       173
47.400       167
47.410       213
47.420       173
47.430       187
47.440       153
47.450       193
47.460       187
47.470       147
47.480       133
47.490       113
47.500        93
47.510       113
47.520       147
47.530       133
47.540       153
47.550       133
47.560       127
47.570       173
47.580       153
47.590       167
47.600       107
47.610       107
47.620       107
47.630        87
47.640       107
47.650       113
47.660        53
47.670       113
47.680       140
47.690       100
47.700        80
47.710        87
47.720        93
47.730       113
47.740       100
47.750       120
47.760       133
47.770        67
47.780        80
47.790        93
47.800        60
47.810       113
47.820        93
47.830        93
47.840        87
47.850        93
47.860        93
47.870       100
47.880       120
47.890        87
47.900        93
47.910       107
47.920       133
47.930       100
47.940        73
47.950        93
47.960        80
47.970       127
47.980       120
47.990       100
48.000        80
48.010        47
48.020        87
48.030        47
48.040        87
48.050        73
48.060        53
48.070        40
48.080        60
48.090        53
48.100        47
48.110        60
48.120        60
48.130        53
48.140        73
48.150        73
48.160        73
48.170        67
48.180       100
48.190        60
48.200       107
48.210        40
48.220        80
48.230        87
48.240        73
48.250        47
48.260        73
48.270        53
48.280        40
48.290        27
48.300        73
48.310        40
48.320        87
48.330        80
48.340        80
48.350        60
48.360        40
48.370        87
48.380        73
48.390        80
48.400        33
48.410        60
48.420        80
48.430        27
48.440        33
48.450        73
48.460        47
48.470        47
48.480         0
48.490        80
48.500        53
48.510        93
48.520        40
48.530        73
48.540        47
48.550        47
48.560        80
48.570        27
48.580        60
48.590        27
48.600        40
48.610        33
48.620        93
48.630        27
48.640        80
48.650        20
48.660        73
48.670        60
48.680        47
48.690        93
48.700       107
48.710        53
48.720        73
48.730        40
48.740        87
48.750        40
48.760        27
48.770        40
48.780        67
48.790        47
48.800        73
48.810        33
48.820        60
48.830        47
48.840        60
48.850        27
48.860        40
48.870        33
48.880        67
48.890        60
48.900        53
48.910        53
48.920        47
48.930        73
48.940        67
48.950        60
48.960        60
48.970        40
48.980        60
48.990       100
49.000        33
49.010        47
49.020       100
49.030        67
49.040        53
49.050        67
49.060        80
49.070        67
49.080        67
49.090        33
49.100        80
49.110        40
49.120        67
49.130        47
49.140        60
49.150        47
49.160        60
49.170        53
49.180        73
49.190        53
49.200        67
49.210        40
49.220        53
49.230        53
49.240        67
49.250        53
49.260        53
49.270        40
49.280        40
49.290        33
49.300        47
49.310        67
49.320        47
49.330       107
49.340        27
49.350        33
49.360        53
49.370        60
49.380        40
49.390        60
49.400        20
49.410        40
49.420        87
49.430        33
49.440        53
49.450        20
49.460        40
49.470        47
49.480        53
49.490        53
49.500        20
49.510        73
49.520        40
49.530        47
49.540        40
49.550        67
49.560        47
49.570        47
49.580        53
49.590        47
49.600        27
49.610        73
49.620        67
49.630        27
49.640        87
49.650        13
49.660        73
49.670        20
49.680        40
49.690        27
49.700        33
49.710        60
49.720        40
49.730        33
49.740        53
49.750        40
49.760        33
49.770        67
49.780        40
49.790        33
49.800        40
49.810        47
49.820        47
49.830        53
49.840        47
49.850        60
49.860        40
49.870        60
49.880        33
49.890        60
49.900        80
49.910        47
49.920        40
49.930        47
49.940        60
49.950        47
49.960        53
49.970        53
49.980        40
49.990        33
50.000       100
50.010        67
50.020        47
50.030        20
50.040        40
50.050        33
50.060        40
50.070        27
50.080        33
50.090        33
50.100        47
50.110        53
50.120        20
50.130        20
50.140        73
50.150        53
50.160        73
50.170        40
50.180        73
50.190        80
50.200        47
50.210        47
50.220        53
50.230        47
50.240        47
50.250        60
50.260        33
50.270        13
50.280        80
50.290        60
50.300        13
50.310        40
50.320        53
50.330        27
50.340        33
50.350         7
50.360        33
50.370        53
50.380        33
50.390        60
50.400        60
50.410        80
50.420        27
50.430        13
50.440        33
50.450        33
50.460        33
50.470        33
50.480        53
50.490        47
50.500        60
50.510        20
50.520        53
50.530        67
50.540        33
50.550        40
50.560        33
50.570        33
50.580        67
50.590        40
50.600        53
50.610        40
50.620        73
50.630        27
50.640        33
50.650        40
50.660        47
50.670        33
50.680        27
50.690        47
50.700        40
50.710        20
50.720        60
50.730        33
50.740        67
50.750        33
50.760        40
50.770        20
50.780        73
50.790        33
50.800        20
50.810        40
50.820        73
50.830        27
50.840        47
50.850        73
50.860        33
50.870        53
50.880        40
50.890        33
50.900        40
50.910        27
50.920        67
50.930        33
50.940        87
50.950        27
50.960        40
50.970        33
50.980        60
50.990        33
51.000        13
51.010        40
51.020        53
51.030        33
51.040        40
51.050        27
51.060        27
51.070        27
51.080        27
51.090        53
51.100        40
51.110        53
51.120        47
51.130        47
51.140        33
51.150        47
51.160        27
51.170        27
51.180        47
51.190        40
51.200        47
51.210        40
51.220        40
51.230        53
51.240        20
51.250        67
51.260        33
51.270        67
51.280        67
51.290        53
51.300        40
51.310        47
51.320        73
51.330        13
51.340        47
51.350        27
51.360        47
51.370        47
51.380        47
51.390        20
51.400        27
51.410        33
51.420        60
51.430        33
51.440        27
51.450        60
51.460        47
51.470        33
51.480        47
51.490        40
51.500        40
51.510        60
51.520        27
51.530        73
51.540        40
51.550        40
51.560        27
51.570        47
51.580        13
51.590        40
51.600        47
51.610        73
51.620        40
51.630        33
51.640        53
51.650        27
51.660        47
51.670        27
51.680        53
51.690        27
51.700        27
51.710        40
51.720        27
51.730        53
51.740        27
51.750        27
51.760        20
51.770        40
51.780        33
51.790        20
51.800        40
51.810        40
51.820        20
51.830        40
51.840        47
51.850        27
51.860        87
51.870        27
51.880        53
51.890        27
51.900        47
51.910        20
51.920        53
51.930        27
51.940        47
51.950        53
51.960        20
51.970        93
51.980        33
51.990        27
52.000        47
52.010        40
52.020        27
52.030        27
52.040        13
52.050        27
52.060        33
52.070        33
52.080        20
52.090        47
52.100        33
52.110        33
52.120        20
52.130        40
52.140        53
52.150        40
52.160        40
52.170        20
52.180        20
52.190        47
52.200        33
52.210        40
52.220        60
52.230        53
52.240        47
52.250        40
52.260        13
52.270        33
52.280        60
52.290        40
52.300        40
52.310        33
52.320        47
52.330        33
52.340        27
52.350        33
52.360        53
52.370        40
52.380        33
52.390        20
52.400        67
52.410        13
52.420        33
52.430         0
52.440        40
52.450        53
52.460        33
52.470        27
52.480        20
52.490        40
52.500        33
52.510        33
52.520        60
52.530        47
52.540        87
52.550        93
52.560        80
52.570        67
52.580        93
52.590        33
52.600        33
52.610        47
52.620        47
52.630        33
52.640        87
52.650        60
52.660        33
52.670        40
52.680        60
52.690        60
52.700        60
52.710        60
52.720        60
52.730        33
52.740        40
52.750        60
52.760        60
52.770        27
52.780        40
52.790        40
52.800        67
52.810        20
52.820        47
52.830        33
52.840        47
52.850        13
52.860        40
52.870        53
52.880        40
52.890        47
52.900        33
52.910        47
52.920        27
52.930        13
52.940        33
52.950        33
52.960        47
52.970        27
52.980        27
52.990        33
53.000        20
53.010        20
53.020        27
53.030        40
53.040        20
53.050        20
53.060        40
53.070        80
53.080        13
53.090        20
53.100        33
53.110        13
53.120        47
53.130        33
53.140        27
53.150        27
53.160        33
53.170        40
53.180        33
53.190        27
53.200        33
53.210        33
53.220        73
53.230        33
53.240        47
53.250        47
53.260        20
53.270        60
53.280        27
53.290        53
53.300        27
53.310        47
53.320        13
53.330        33
53.340        80
53.350        47
53.360        13
53.370        13
53.380        13
53.390         7
53.400         7
53.410        20
53.420        40
53.430        27
53.440        20
53.450        40
53.460        47
53.470        20
53.480        33
53.490        40
53.500        47
53.510        53
53.520        20
53.530        20
53.540        33
53.550        53
53.560        20
53.570        13
53.580        27
53.590        27
53.600        27
53.610        53
53.620        20
53.630         7
53.640        27
53.650        13
53.660        47
53.670        67
53.680        13
53.690        20
53.700        27
53.710        33
53.720        20
53.730        33
53.740        13
53.750        20
53.760        33
53.770        53
53.780         7
53.790        27
53.800        33
53.810        53
53.820        13
53.830        40
53.840        47
53.850        40
53.860        53
53.870        20
53.880        27
53.890        13
53.900        47
53.910        33
53.920        20
53.930        27
53.940        67
53.950        27
53.960        40
53.970        47
53.980        33
53.990        40
54.000        13
54.010        33
54.020         0
54.030        13
54.040        27
54.050        53
54.060        13
54.070        40
54.080        13
54.090        67
54.100        20
54.110        47
54.120         7
54.130        27
54.140         7
54.150        40
54.160        27
54.170        47
54.180        33
54.190        53
54.200        27
54.210        40
54.220        40
54.230        20
54.240        40
54.250        13
54.260        20
54.270        33
54.280        33
54.290        27
54.300        13
54.310        40
54.320        20
54.330        33
54.340        13
54.350        13
54.360         7
54.370         7
54.380        40
54.390        20
54.400        13
54.410        27
54.420        40
54.430        47
54.440        20
54.450        33
54.460        33
54.470        40
54.480         0
54.490         7
54.500        27
54.510        47
54.520        33
54.530        20
54.540        20
54.550        13
54.560        20
54.570        47
54.580        33
54.590        33
54.600        53
54.610         7
54.620        47
54.630        53
54.640        40
54.650        20
54.660        47
54.670        53
54.680        33
54.690         0
54.700        20
54.710        13
54.720        13
54.730        20
54.740        40
54.750        33
54.760        27
54.770        20
54.780        20
54.790        53
54.800         0
54.810        40
54.820        27
54.830         7
54.840        20
54.850        53
54.860        27
54.870        27
54.880        20
54.890        27
54.900        27
54.910        13
54.920        40
54.930        20
54.940        33
54.950        13
54.960         7
54.970        13
54.980        13
54.990        33
55.000        33
55.010        13
55.020        40
55.030        20
55.040        47
55.050        53
55.060         0
55.070        27
55.080        33
55.090        27
55.100        27
55.110        27
55.120         7
55.130         7
55.140        33
55.150        53
55.160        20
55.170        20
55.180        20
55.190        53
55.200        20
55.210        13
55.220        27
55.230         0
55.240        13
55.250        20
55.260        20
55.270        33
55.280        33
55.290        27
55.300        67
55.310        13
55.320        13
55.330        13
55.340        33
55.350        20
55.360        13
55.370        20
55.380        20
55.390        40
55.400        27
55.410        27
55.420        33
55.430         7
55.440        13
55.450        13
55.460        20
55.470        27
55.480        40
55.490        27
55.500        13
55.510        20
55.520         0
55.530        13
55.540        40
55.550        27
55.560        33
55.570        13
55.580        40
55.590        20
55.600        33
55.610        13
55.620        27
55.630        40
55.640        13
55.650        40
55.660        20
55.670        13
55.680         7
55.690        20
55.700        73
55.710        33
55.720        20
55.730        53
55.740        33
55.750        40
55.760         7
55.770        40
55.780        20
55.790         7
55.800        47
55.810        47
55.820         7
55.830        27
55.840         7
55.850        33
55.860        13
55.870        40
55.880        40
55.890        40
55.900        13
55.910        20
55.920        47
55.930        13
55.940        13
55.950        20
55.960        33
55.970        27
55.980        20
55.990        27
56.000        27
56.010        27
56.020        13
56.030        13
56.040        40
56.050        47
56.060        47
56.070        13
56.080        53
56.090        13
56.100        27
56.110        20
56.120        20
56.130        40
56.140         0
56.150        53
56.160        20
56.170        33
56.180        27
56.190        33
56.200        33
56.210        27
56.220        27
56.230        27
56.240        40
56.250        33
56.260        13
56.270         7
56.280        27
56.290        20
56.300        33
56.310        13
56.320        33
56.330        20
56.340        20
56.350        20
56.360        13
56.370        27
56.380        20
56.390        13
56.400        20
56.410        33
56.420        40
56.430        47
56.440        13
56.450        33
56.460        20
56.470        27
56.480         7
56.490        13
56.500        53
56.510        60
56.520        13
56.530        13
56.540        13
56.550        33
56.560        33
56.570        20
56.580        40
56.590        33
56.600        40
56.610        20
56.620        40
56.630        13
56.640        27
56.650        13
56.660        27
56.670        27
56.680        13
56.690        13
56.700        13
56.710        27
56.720        27
56.730        13
56.740        13
56.750         7
56.760        27
56.770        27
56.780        13
56.790        20
56.800        27
56.810         7
56.820        53
56.830        13
56.840        47
56.850        13
56.860        40
56.870         7
56.880        33
56.890        20
56.900        47
56.910        53
56.920        33
56.930        33
56.940        27
56.950        40
56.960        47
56.970         7
56.980        27
56.990        27
57.000        13
57.010        47
57.020        13
57.030        13
57.040        20
57.050        20
57.060        40
57.070        40
57.080        27
57.090        20
57.100        27
57.110        33
57.120        27
57.130        27
57.140        20
57.150        33
57.160        20
57.170        33
57.180        33
57.190        33
57.200        27
57.210        53
57.220        20
57.230        27
57.240        33
57.250         0
57.260        33
57.270        13
57.280        20
57.290        47
57.300        27
57.310        33
57.320        73
57.330        53
57.340        27
57.350        47
57.360        53
57.370        60
57.380        67
57.390        40
57.400       100
57.410        60
57.420       160
57.430       113
57.440       147
57.450       173
57.460       200
57.470       267
57.480       247
57.490       380
57.500       367
57.510       393
57.520       280
57.530       260
57.540       220
57.550       193
57.560       120
57.570        93
57.580       127
57.590       120
57.600       107
57.610       160
57.620       100
57.630       127
57.640       127
57.650       140
57.660       213
57.670       187
57.680       220
57.690       187
57.700       120
57.710        67
57.720        93
57.730        60
57.740        67
57.750        40
57.760        67
57.770        33
57.780        60
57.790        53
57.800        67
57.810        53
57.820        27
57.830        73
57.840        27
57.850        60
57.860        40
57.870        27
57.880        53
57.890        60
57.900        33
57.910        40
57.920        33
57.930        47
57.940        27
57.950        13
57.960        27
57.970        20
57.980        27
57.990        40
58.000        13
58.010        20
58.020        27
58.030        67
58.040        53
58.050        27
58.060        20
58.070        47
58.080        33
58.090        33
58.100        27
58.110        20
58.120        13
58.130        13
58.140        33
58.150         7
58.160        40
58.170        27
58.180        27
58.190        27
58.200        27
58.210        27
58.220        53
58.230        27
58.240         7
58.250        33
58.260        20
58.270        13
58.280        33
58.290        33
58.300        27
58.310        13
58.320        20
58.330        33
58.340        20
58.350        27
58.360        13
58.370        13
58.380         7
58.390        20
58.400         7
58.410        20
58.420        33
58.430        13
58.440        27
58.450        27
58.460        20
58.470        47
58.480        20
58.490        20
58.500        13
58.510        27
58.520        33
58.530        20
58.540        13
58.550        27
58.560        13
58.570        33
58.580        13
58.590        13
58.600        27
58.610         7
58.620        47
58.630        33
58.640        13
58.650        27
58.660        40
58.670         7
58.680        27
58.690        13
58.700        13
58.710        20
58.720        20
58.730        40
58.740         0
58.750        20
58.760        20
58.770        27
58.780        27
58.790        27
58.800        20
58.810        27
58.820        13
58.830         7
58.840        47
58.850        20
58.860        20
58.870        53
58.880         7
58.890        27
58.900        33
58.910        20
58.920        20
58.930        13
58.940        13
58.950        40
58.960        13
58.970         7
58.980        27
58.990        27
59.000        33
59.010         0
59.020        20
59.030         0
59.040        20
59.050        27
59.060        13
59.070        27
59.080        27
59.090        27
59.100        27
59.110        20
59.120        13
59.130         7
59.140        27
59.150        27
59.160         0
59.170        13
59.180        27
59.190        27
59.200        20
59.210        33
59.220        20
59.230        53
59.240        27
59.250        27
59.260         7
59.270        27
59.280        47
59.290        27
59.300        33
59.310        27
59.320        27
59.330         7
59.340        20
59.350        27
59.360        27
59.370        53
59.380        20
59.390         0
59.400        40
59.410        13
59.420        13
59.430        13
59.440        47
59.450        27
59.460        13
59.470        20
59.480        27
59.490        13
59.500        20
59.510         7
59.520        47
59.530        13
59.540        33
59.550        13
59.560        13
59.570         7
59.580        33
59.590        13
59.600        27
59.610        20
59.620        33
59.630        20
59.640        20
59.650        13
59.660        47
59.670        20
59.680        47
59.690        13
59.700        33
59.710        47
59.720        40
59.730        20
59.740        13
59.750         7
59.760        27
59.770        33
59.780        20
59.790        13
59.800        13
59.810        27
59.820        20
59.830        13
59.840        40
59.850        47
59.860        33
59.870        13
59.880        20
59.890        20
59.900        27
59.910        33
59.920        47
59.930        47
59.940        40
59.950         7
59.960        13
59.970        20
59.980        40
59.990         7
60.000         7
