20.000        47
20.010        40
20.020        53
20.030        53
20.040        60
20.050        40
20.060        40
20.070        73
20.080        27
20.090        53
20.100        33
20.110        53
20.120        53
20.130        40
20.140        53
20.150        33
20.160        73
20.170        27
20.180         7
20.190        33
20.200        47
20.210        27
20.220        60
20.230        53
20.240        60
20.250        40
20.260        47
20.270        33
20.280        40
20.290        20
20.300        13
20.310        40
20.320        33
20.330        27
20.340        33
20.350        27
20.360        40
20.370        40
20.380        53
20.390        27
20.400        60
20.410        33
20.420        47
20.430        47
20.440        33
20.450        47
20.460        40
20.470        40
20.480        73
20.490        73
20.500        27
20.510       100
20.520        53
20.530        40
20.540        20
20.550        47
20.560        53
20.570        40
20.580        33
20.590        60
20.600        20
20.610        47
20.620        33
20.630        53
20.640        53
20.650        80
20.660        20
20.670         7
20.680        67
20.690        33
20.700        27
20.710        20
20.720        27
20.730        40
20.740        33
20.750        20
20.760        47
20.770        40
20.780        53
20.790        47
20.800        53
20.810        27
20.820        27
20.830        53
20.840        20
20.850        40
20.860        27
20.870        53
20.880        93
20.890        20
20.900        40
20.910        27
20.920        20
20.930        13
20.940        40
20.950        40
20.960        73
20.970        47
20.980        40
20.990        20
21.000        47
21.010         7
21.020        20
21.030        33
21.040        27
21.050        33
21.060        33
21.070        20
21.080        47
21.090        60
21.100        40
21.110        33
21.120        73
21.130        13
21.140        40
21.150        47
21.160        93
21.170        40
21.180        40
21.190        47
21.200        27
21.210        53
21.220        60
21.230        40
21.240        53
21.250        33
21.260        33
21.270        47
21.280        33
21.290        53
21.300         0
21.310        47
21.320        40
21.330        40
21.340        60
21.350        20
21.360        33
21.370        47
21.380        27
21.390        40
21.400        27
21.410        53
21.420        33
21.430        47
21.440        33
21.450        33
21.460        47
21.470        53
21.480        47
21.490        47
21.500        53
21.510        53
21.520        33
21.530        33
21.540        40
21.550        20
21.560        20
21.570        33
21.580        47
21.590        27
21.600        33
21.610        27
21.620        27
21.630        47
21.640        33
21.650        27
21.660        20
21.670        27
21.680        60
21.690         7
21.700        20
21.710        53
21.720        27
21.730        87
21.740        13
21.750        53
21.760        13
21.770        47
21.780        60
21.790        40
21.800        47
21.810        53
21.820        33
21.830        47
21.840        47
21.850         7
21.860        20
21.870        33
21.880        60
21.890        40
21.900        27
21.910        33
21.920        47
21.930        47
21.940        67
21.950        67
21.960        33
21.970        33
21.980        27
21.990        60
22.000        33
22.010        27
22.020        13
22.030        33
22.040        27
22.050        27
22.060        33
22.070        20
22.080        40
22.090        60
22.100        20
22.110        47
22.120        13
22.130        60
22.140        27
22.150        47
22.160        67
22.170        40
22.180        27
22.190        67
22.200        67
22.210        40
22.220        60
22.230        33
22.240        53
22.250        53
22.260        47
22.270       113
22.280        47
22.290        33
22.300        47
22.310        80
22.320        73
22.330        80
22.340        87
22.350        87
22.360        87
22.370       140
22.380       120
22.390        80
22.400       153
22.410       247
22.420       207
22.430       193
22.440       213
22.450       187
22.460       240
22.470       300
22.480       247
22.490       167
22.500       293
22.510       160
22.520       173
22.530       213
22.540       127
22.550       140
22.560       153
22.570       120
22.580       160
22.590        73
22.600       120
22.610        80
22.620       100
22.630        80
22.640       100
22.650        80
22.660        33
22.670        93
22.680        47
22.690        67
22.700        73
22.710        67
22.720        27
22.730        60
22.740        73
22.750        67
22.760       127
22.770       113
22.780       100
22.790        80
22.800        80
22.810       113
22.820       113
22.830       207
22.840       153
22.850       160
22.860       120
22.870       120
22.880       193
22.890       180
22.900       173
22.910       153
22.920       207
22.930       120
22.940       120
22.950       140
22.960       173
22.970       127
22.980       153
22.990       153
23.000       100
23.010        73
23.020       107
23.030        40
23.040       100
23.050        67
23.060        87
23.070        47
23.080        40
23.090        60
23.100        60
23.110        87
23.120        60
23.130        27
23.140        27
23.150        27
23.160        33
23.170        40
23.180        40
23.190        20
23.200        27
23.210        13
23.220        53
23.230        13
23.240        53
23.250        47
23.260        33
23.270        67
23.280        33
23.290        47
23.300        40
23.310        47
23.320        27
23.330         7
23.340        53
23.350        20
23.360        27
23.370        40
23.380        33
23.390        33
23.400        33
23.410        40
23.420        47
23.430        33
23.440        47
23.450         7
23.460        20
23.470        47
23.480        13
23.490        33
23.500        53
23.510        47
23.520        33
23.530        47
23.540         7
23.550        60
23.560        47
23.570         7
23.580        47
23.590        53
23.600        27
23.610        40
23.620        47
23.630        33
23.640        27
23.650        20
23.660        27
23.670        20
23.680        40
23.690        60
23.700        27
23.710        47
23.720        33
23.730        27
23.740        27
23.750         7
23.760        20
23.770        27
23.780        27
23.790        33
23.800        27
23.810        27
23.820        47
23.830        13
23.840        33
23.850        33
23.860        40
23.870        40
23.880        33
23.890        20
23.900        33
23.910        53
23.920         7
23.930        40
23.940         7
23.950        33
23.960        40
23.970        33
23.980        53
23.990        33
24.000        33
24.010        47
24.020        20
24.030        47
24.040        20
24.050        40
24.060        27
24.070        40
24.080        47
24.090        33
24.100        67
24.110        33
24.120        27
24.130        40
24.140        13
24.150        27
24.160        40
24.170        33
24.180        33
24.190        33
24.200        33
24.210        20
24.220        13
24.230        40
24.240        20
24.250        20
24.260        33
24.270        13
24.280        27
24.290        47
24.300         7
24.310        40
24.320        33
24.330        20
24.340        40
24.350        27
24.360        27
24.370        27
24.380        13
24.390        27
24.400        33
24.410        20
24.420        40
24.430        33
24.440        67
24.450        67
24.460        13
24.470        20
24.480        27
24.490        33
24.500        13
24.510        20
24.520        33
24.530        67
24.540        47
24.550        33
24.560        33
24.570        27
24.580        20
24.590        47
24.600        47
24.610        13
24.620        33
24.630        27
24.640        27
24.650        13
24.660        27
24.670        33
24.680        20
24.690        40
24.700        53
24.710        33
24.720        33
24.730        67
24.740        47
24.750        53
24.760        33
24.770        40
24.780        27
24.790        40
24.800        33
24.810        13
24.820        33
24.830        33
24.840        20
24.850        67
24.860        53
24.870        27
24.880        20
24.890        47
24.900        53
24.910        27
24.920        53
24.930        60
24.940        47
24.950        47
24.960        53
24.970        33
24.980        40
24.990        53
25.000        53
25.010        47
25.020        20
25.030        13
25.040        20
25.050         7
25.060        67
25.070        53
25.080        60
25.090        33
25.100        33
25.110        47
25.120        47
25.130        13
25.140        33
25.150        40
25.160        47
25.170        53
25.180        40
25.190        27
25.200        20
25.210        40
25.220        53
25.230        47
25.240        40
25.250        33
25.260        53
25.270        53
25.280        20
25.290        40
25.300        40
25.310        47
25.320        53
25.330        27
25.340        20
25.350         7
25.360        13
25.370        27
25.380        20
25.390        13
25.400        40
25.410        20
25.420        33
25.430        53
25.440        73
25.450        60
25.460        20
25.470        60
25.480         7
25.490        20
25.500        27
25.510        60
25.520        53
25.530        40
25.540        53
25.550        13
25.560        47
25.570        27
25.580        60
25.590        47
25.600        93
25.610       120
25.620        87
25.630        80
25.640        60
25.650        67
25.660       107
25.670        53
25.680       113
25.690        93
25.700        67
25.710        67
25.720        73
25.730       107
25.740        93
25.750        73
25.760       107
25.770        73
25.780       100
25.790        73
25.800        53
25.810        87
25.820        73
25.830        73
25.840        47
25.850        27
25.860        67
25.870        40
25.880        47
25.890        60
25.900        60
25.910        13
25.920        33
25.930        33
25.940        27
25.950        20
25.960        13
25.970        33
25.980         7
25.990        33
26.000        20
26.010        53
26.020        27
26.030         7
26.040        47
26.050        40
26.060        53
26.070        40
26.080        13
26.090        27
26.100        27
26.110        47
26.120        33
26.130        27
26.140        33
26.150        27
26.160        47
26.170        20
26.180        33
26.190        33
26.200        33
26.210        27
26.220        47
26.230        40
26.240        27
26.250        33
26.260        40
26.270        27
26.280        40
26.290        27
26.300        33
26.310        40
26.320        40
26.330         7
26.340        27
26.350         7
26.360        13
26.370        13
26.380        33
26.390        27
26.400        27
26.410        13
26.420        33
26.430        47
26.440        27
26.450        27
26.460        40
26.470        20
26.480        20
26.490        33
26.500        33
26.510        27
26.520        13
26.530        27
26.540        33
26.550        47
26.560        40
26.570        20
26.580        27
26.590        20
26.600        13
26.610        47
26.620        27
26.630        33
26.640        13
26.650        20
26.660        13
26.670        47
26.680        27
26.690        47
26.700        13
26.710        33
26.720        20
26.730        27
26.740        20
26.750        53
26.760        53
26.770        33
26.780        40
26.790        40
26.800        47
26.810        33
26.820        33
26.830        27
26.840        20
26.850        73
26.860        33
26.870        27
26.880        27
26.890        33
26.900        20
26.910        13
26.920        47
26.930         7
26.940        40
26.950        40
26.960        20
26.970        20
26.980        20
26.990        20
27.000        13
27.010        20
27.020        20
27.030         7
27.040        47
27.050        40
27.060        27
27.070        40
27.080        40
27.090        20
27.100        40
27.110        20
27.120        27
27.130        40
27.140        27
27.150        20
27.160        20
27.170        40
27.180        40
27.190        33
27.200        33
27.210        60
27.220        40
27.230        27
27.240        20
27.250        33
27.260        33
27.270        20
27.280        53
27.290        40
27.300        27
27.310         7
27.320        27
27.330        13
27.340        20
27.350        27
27.360        47
27.370        47
27.380         0
27.390        27
27.400        13
27.410        13
27.420        40
27.430        40
27.440        40
27.450        40
27.460        27
27.470        47
27.480        20
27.490        27
27.500        27
27.510        13
27.520        47
27.530        47
27.540        47
27.550        33
27.560        33
27.570        60
27.580        47
27.590        60
27.600        13
27.610        33
27.620        33
27.630        33
27.640        53
27.650        60
27.660        33
27.670        20
27.680        47
27.690        13
27.700        27
27.710        53
27.720        13
27.730        13
27.740        40
27.750        27
27.760        20
27.770        20
27.780        13
27.790        27
27.800         7
27.810        27
27.820        40
27.830        27
27.840        40
27.850        40
27.860        27
27.870        53
27.880        47
27.890        27
27.900        40
27.910        33
27.920        13
27.930        20
27.940        40
27.950        60
27.960        27
27.970        60
27.980        40
27.990        47
28.000        47
28.010        20
28.020        93
28.030        53
28.040        33
28.050        33
28.060        60
28.070        47
28.080        40
28.090        40
28.100       107
28.110        47
28.120        60
28.130        53
28.140        47
28.150        93
28.160        60
28.170        67
28.180        53
28.190        93
28.200        53
28.210        80
28.220        73
28.230        53
28.240       100
28.250       120
28.260        80
28.270        73
28.280       107
28.290       113
28.300        33
28.310       100
28.320        87
28.330        67
28.340        87
28.350        60
28.360        53
28.370        80
28.380        47
28.390        47
28.400        60
28.410        47
28.420        53
28.430        47
28.440        53
28.450        47
28.460        47
28.470         7
28.480        53
28.490        33
28.500        20
28.510        27
28.520        47
28.530        27
28.540        60
28.550        40
28.560        33
28.570        33
28.580        53
28.590        40
28.600        33
28.610        27
28.620        33
28.630        27
28.640        27
28.650        67
28.660        60
28.670        53
28.680        60
28.690        60
28.700        53
28.710        67
28.720        67
28.730        93
28.740       147
28.750        73
28.760        73
28.770        53
28.780        47
28.790       133
28.800        67
28.810        93
28.820        87
28.830       107
28.840       127
28.850       127
28.860       220
28.870       133
28.880       207
28.890       160
28.900       140
28.910       160
28.920       133
28.930       180
28.940       253
28.950       160
28.960       193
28.970       227
28.980       193
28.990       180
29.000       200
29.010       280
29.020       240
29.030       167
29.040       140
29.050       180
29.060       140
29.070       173
29.080       167
29.090       173
29.100       140
29.110       127
29.120       127
29.130       153
29.140       160
29.150        73
29.160       120
29.170        67
29.180       100
29.190       100
29.200       120
29.210       100
29.220        67
29.230        73
29.240        53
29.250        27
29.260       153
29.270        47
29.280        53
29.290        80
29.300        33
29.310        80
29.320        80
29.330        87
29.340        67
29.350        47
29.360        40
29.370        73
29.380        47
29.390        80
29.400        40
29.410        80
29.420        73
29.430        87
29.440        73
29.450        93
29.460        60
29.470        80
29.480        93
29.490        93
29.500       107
29.510       127
29.520       107
29.530        87
29.540       140
29.550       133
29.560       100
29.570        93
29.580       113
29.590       127
29.600       127
29.610        60
29.620        80
29.630       100
29.640       100
29.650        47
29.660        67
29.670        40
29.680        87
29.690        33
29.700        47
29.710        60
29.720        40
29.730        40
29.740        40
29.750        40
29.760        67
29.770        20
29.780        40
29.790        33
29.800        20
29.810        40
29.820        20
29.830        13
29.840        27
29.850        40
29.860        40
29.870        13
29.880        13
29.890        40
29.900        13
29.910        27
29.920         7
29.930        13
29.940        27
29.950        27
29.960        33
29.970        27
29.980        33
29.990        40
30.000        33
30.010        27
30.020        13
30.030        27
30.040        13
30.050        33
30.060        67
30.070        40
30.080        40
30.090        13
30.100        13
30.110        20
30.120        20
30.130        73
30.140        33
30.150         7
30.160        60
30.170        20
30.180        27
30.190        33
30.200        27
30.210        40
30.220        47
30.230        20
30.240        33
30.250        47
30.260        87
30.270        73
30.280        67
30.290        60
30.300        87
30.310        47
30.320        80
30.330       113
30.340        47
30.350       107
30.360        53
30.370       100
30.380       113
30.390       107
30.400        73
30.410        80
30.420        87
30.430        33
30.440        73
30.450        40
30.460        47
30.470        80
30.480        40
30.490        27
30.500        27
30.510        33
30.520        27
30.530        27
30.540        27
30.550        33
30.560        27
30.570        27
30.580        40
30.590        27
30.600        13
30.610        13
30.620        40
30.630        20
30.640         7
30.650        40
30.660        33
30.670        13
30.680        40
30.690        53
30.700        27
30.710        13
30.720        13
30.730        27
30.740        40
30.750        33
30.760        20
30.770        53
30.780        33
30.790        20
30.800        27
30.810        40
30.820        40
30.830        33
30.840        13
30.850        13
30.860        13
30.870        13
30.880        27
30.890        53
30.900        33
30.910        40
30.920        20
30.930        40
30.940        27
30.950        53
30.960        13
30.970        13
30.980        33
30.990        33
31.000        27
31.010        20
31.020        53
31.030        33
31.040        27
31.050         0
31.060        20
31.070        13
31.080        33
31.090        20
31.100        13
31.110        20
31.120        67
31.130        20
31.140         0
31.150         7
31.160        13
31.170        40
31.180        27
31.190        20
31.200        47
31.210        40
31.220         7
31.230        20
31.240        13
31.250        47
31.260         0
31.270        40
31.280        33
31.290        13
31.300        20
31.310        33
31.320         0
31.330        33
31.340        20
31.350        27
31.360        27
31.370        33
31.380        40
31.390         0
31.400        20
31.410        33
31.420         7
31.430        40
31.440        20
31.450        60
31.460        20
31.470        27
31.480        27
31.490        20
31.500        40
31.510        20
31.520        40
31.530        53
31.540        27
31.550        53
31.560         0
31.570        20
31.580        13
31.590        27
31.600        20
31.610        20
31.620        13
31.630        13
31.640        40
31.650        27
31.660        40
31.670        20
31.680        47
31.690        33
31.700        27
31.710        40
31.720         0
31.730        33
31.740        40
31.750        27
31.760        27
31.770        20
31.780        27
31.790        20
31.800        13
31.810        27
31.820        20
31.830        13
31.840        47
31.850        13
31.860        40
31.870        20
31.880        20
31.890         7
31.900        27
31.910        47
31.920        13
31.930        27
31.940        13
31.950        33
31.960        20
31.970        40
31.980        73
31.990        47
32.000        60
32.010        33
32.020        47
32.030        40
32.040        47
32.050        47
32.060        93
32.070        73
32.080        27
32.090        27
32.100        47
32.110        60
32.120        80
32.130        40
32.140        67
32.150        60
32.160        67
32.170        47
32.180        40
32.190        60
32.200        53
32.210        73
32.220        47
32.230        33
32.240        33
32.250        40
32.260        20
32.270        40
32.280        33
32.290        40
32.300        20
32.310        53
32.320        27
32.330        40
32.340        27
32.350        20
32.360        33
32.370        20
32.380        27
32.390        47
32.400        27
32.410        27
32.420        13
32.430        20
32.440        27
32.450        27
32.460        13
32.470        33
32.480        53
32.490        13
32.500        40
32.510         7
32.520        33
32.530         7
32.540        13
32.550        40
32.560        47
32.570        53
32.580        33
32.590        27
32.600        40
32.610        13
32.620        27
32.630        20
32.640         7
32.650        27
32.660        47
32.670        13
32.680        40
32.690        47
32.700        40
32.710        40
32.720         7
32.730        33
32.740        27
32.750        27
32.760        13
32.770        20
32.780        33
32.790        33
32.800        27
32.810        27
32.820        40
32.830        33
32.840        40
32.850        13
32.860        27
32.870        20
32.880        20
32.890        33
32.900        33
32.910        20
32.920        33
32.930        13
32.940        20
32.950        40
32.960        33
32.970         7
32.980        13
32.990        27
33.000        27
33.010        40
33.020        20
33.030         7
33.040        20
33.050        20
33.060         0
33.070         7
33.080        13
33.090        13
33.100         0
33.110         7
33.120        13
33.130         7
33.140        20
33.150        33
33.160        40
33.170        27
33.180        27
33.190        27
33.200        27
33.210        20
33.220        13
33.230         7
33.240        13
33.250        27
33.260        33
33.270         7
33.280         7
33.290        33
33.300        33
33.310        33
33.320        20
33.330        13
33.340        20
33.350        27
33.360        60
33.370        27
33.380        27
33.390         7
33.400        40
33.410        13
33.420        33
33.430        20
33.440        20
33.450        40
33.460        27
33.470        20
33.480        20
33.490         7
33.500         7
33.510        20
33.520        20
33.530        33
33.540         0
33.550        27
33.560        27
33.570        33
33.580        13
33.590         7
33.600        13
33.610        33
33.620        33
33.630        13
33.640        27
33.650        13
33.660        13
33.670        33
33.680        20
33.690        13
33.700        13
33.710        13
33.720        47
33.730         7
33.740        20
33.750        20
33.760        20
33.770        27
33.780        13
33.790        33
33.800         7
33.810        33
33.820        27
33.830        33
33.840        20
33.850        40
33.860         7
33.870        33
33.880        27
33.890        20
33.900        20
33.910        13
33.920        13
33.930        20
33.940        20
33.950        27
33.960        27
33.970         7
33.980        20
33.990        20
34.000        33
34.010        20
34.020        20
34.030        27
34.040         7
34.050        47
34.060         7
34.070        33
34.080         7
34.090        13
34.100        27
34.110        33
34.120        13
34.130        33
34.140        27
34.150        20
34.160         7
34.170        40
34.180        40
34.190        27
34.200        20
34.210        20
34.220         7
34.230         0
34.240        20
34.250        60
34.260        27
34.270        53
34.280        13
34.290        13
34.300         0
34.310        20
34.320        27
34.330        27
34.340        27
34.350        20
34.360         7
34.370        13
34.380        20
34.390         7
34.400        27
34.410        47
34.420        27
34.430         7
34.440        27
34.450        20
34.460        20
34.470        13
34.480        13
34.490        33
34.500        13
34.510        47
34.520        13
34.530        13
34.540        53
34.550        20
34.560        20
34.570        33
34.580         7
34.590        40
34.600        13
34.610         7
34.620        40
34.630        20
34.640        40
34.650        27
34.660        20
34.670        20
34.680        33
34.690        13
34.700        27
34.710        20
34.720        40
34.730        27
34.740        20
34.750        27
34.760        40
34.770        13
34.780        33
34.790        27
34.800        27
34.810         7
34.820        20
34.830        27
34.840        27
34.850         7
34.860        20
34.870        20
34.880        40
34.890         7
34.900        33
34.910        13
34.920        40
34.930        33
34.940         7
34.950        40
34.960         7
34.970        40
34.980        20
34.990        47
35.000        20
35.010        67
35.020        53
35.030        53
35.040        67
35.050        33
35.060        27
35.070        73
35.080        13
35.090        60
35.100        40
35.110        67
35.120        13
35.130        67
35.140        67
35.150        40
35.160        67
35.170        47
35.180        60
35.190        33
35.200        53
35.210        60
35.220        47
35.230        47
35.240        27
35.250         7
35.260         7
35.270        33
35.280        20
35.290        13
35.300        40
35.310        20
35.320        27
35.330        33
35.340        53
35.350        20
35.360        13
35.370        20
35.380        40
35.390        47
35.400         0
35.410        40
35.420        27
35.430        27
35.440        27
35.450        27
35.460        20
35.470         7
35.480        13
35.490        13
35.500        27
35.510        27
35.520        27
35.530        27
35.540        53
35.550        13
35.560        33
35.570         7
35.580        33
35.590        27
35.600        40
35.610        20
35.620        20
35.630        40
35.640        20
35.650        20
35.660         7
35.670         7
35.680        13
35.690        13
35.700        13
35.710        20
35.720        13
35.730        33
35.740        20
35.750         7
35.760         7
35.770        13
35.780        20
35.790        47
35.800        13
35.810         7
35.820        20
35.830         7
35.840        20
35.850        40
35.860        53
35.870        27
35.880        27
35.890        27
35.900        13
35.910        13
35.920        33
35.930        20
35.940        20
35.950        27
35.960        13
35.970        27
35.980        20
35.990         7
36.000        13
36.010        27
36.020        20
36.030         0
36.040        27
36.050        27
36.060        13
36.070        13
36.080        13
36.090        13
36.100        33
36.110         7
36.120        13
36.130        27
36.140        27
36.150        13
36.160        27
36.170        40
36.180        53
36.190        20
36.200        33
36.210        27
36.220        13
36.230        33
36.240        20
36.250         7
36.260        20
36.270        33
36.280         7
36.290        33
36.300        20
36.310        33
36.320        13
36.330         7
36.340        33
36.350        13
36.360        20
36.370        13
36.380        13
36.390        13
36.400        20
36.410        27
36.420        33
36.430        13
36.440        40
36.450        20
36.460        33
36.470         7
36.480        33
36.490        13
36.500        27
36.510        20
36.520         7
36.530        27
36.540        13
36.550        47
36.560        13
36.570        27
36.580        40
36.590        13
36.600        27
36.610        27
36.620        40
36.630        13
36.640        53
36.650        13
36.660         7
36.670         7
36.680        13
36.690        33
36.700        27
36.710        20
36.720        13
36.730        33
36.740        40
36.750        20
36.760        33
36.770        13
36.780        13
36.790        27
36.800        33
36.810        20
36.820        27
36.830         7
36.840         7
36.850        60
36.860         0
36.870        27
36.880        20
36.890        20
36.900        20
36.910        40
36.920        40
36.930         0
36.940        20
36.950        27
36.960         7
36.970        20
36.980        13
36.990        40
37.000        33
37.010        13
37.020         7
37.030         7
37.040         7
37.050        20
37.060        27
37.070        40
37.080        40
37.090         7
37.100        27
37.110         7
37.120         0
37.130        27
37.140        40
37.150        27
37.160         7
37.170        20
37.180        27
37.190         7
37.200        13
37.210        20
37.220        13
37.230        13
37.240        27
37.250        13
37.260        33
37.270        13
37.280        13
37.290        13
37.300        27
37.310        13
37.320         7
37.330        27
37.340        13
37.350        20
37.360        20
37.370         7
37.380        27
37.390        27
37.400        33
37.410        33
37.420        27
37.430        20
37.440        27
37.450        27
37.460        13
37.470        27
37.480        27
37.490         7
37.500        20
37.510        13
37.520        20
37.530        20
37.540         7
37.550        27
37.560        27
37.570        20
37.580        13
37.590        27
37.600        13
37.610         7
37.620        20
37.630        47
37.640        20
37.650        13
37.660        20
37.670        20
37.680        27
37.690        53
37.700        13
37.710        40
37.720        20
37.730        13
37.740        33
37.750        27
37.760        20
37.770        20
37.780        27
37.790        27
37.800        73
37.810        27
37.820        53
37.830        40
37.840        53
37.850        33
37.860        67
37.870        27
37.880        33
37.890        27
37.900        27
37.910        13
37.920        33
37.930        60
37.940        20
37.950        20
37.960        13
37.970        47
37.980        13
37.990         7
38.000         0
38.010        27
38.020        33
38.030        13
38.040        53
38.050        40
38.060        20
38.070        27
38.080        27
38.090        20
38.100        33
38.110        20
38.120        33
38.130        20
38.140        53
38.150        40
38.160        13
38.170        27
38.180        53
38.190        33
38.200        60
38.210        53
38.220        27
38.230        20
38.240        40
38.250        20
38.260        47
38.270        27
38.280        53
38.290        20
38.300        40
38.310        20
38.320        27
38.330        40
38.340        20
38.350        27
38.360        13
38.370        13
38.380        40
38.390        13
38.400        47
38.410        27
38.420        20
38.430        33
38.440        27
38.450        27
38.460        20
38.470        13
38.480        13
38.490        27
38.500        33
38.510        33
38.520         7
38.530         7
38.540        40
38.550        13
38.560        60
38.570        33
38.580         7
38.590        33
38.600        33
38.610         7
38.620        27
38.630        53
38.640        27
38.650        33
38.660        13
38.670        13
38.680        47
38.690        73
38.700        20
38.710        13
38.720        20
38.730        13
38.740        20
38.750         0
38.760        27
38.770        33
38.780        33
38.790         7
38.800        13
38.810        40
38.820        53
38.830        13
38.840         7
38.850        27
38.860        13
38.870        13
38.880        53
38.890        27
38.900        20
38.910         7
38.920         7
38.930        33
38.940        33
38.950        27
38.960        20
38.970        27
38.980        20
38.990        13
39.000        13
39.010        13
39.020        20
39.030        20
39.040        20
39.050        13
39.060        20
39.070        27
39.080        33
39.090        13
39.100         7
39.110         7
39.120        27
39.130        33
39.140        27
39.150        13
39.160        33
39.170        47
39.180        20
39.190        13
39.200        27
39.210        27
39.220        40
39.230        40
39.240        33
39.250        13
39.260        27
39.270        27
39.280        27
39.290        60
39.300         7
39.310        20
39.320        27
39.330        13
39.340         0
39.350        47
39.360        20
39.370        13
39.380        27
39.390        20
39.400        27
39.410        20
39.420         0
39.430        27
39.440        27
39.450        33
39.460        20
39.470        13
39.480        47
39.490        27
39.500        20
39.510        20
39.520         0
39.530        13
39.540         7
39.550        27
39.560        20
39.570        33
39.580        33
39.590        20
39.600        40
39.610        27
39.620         7
39.630        13
39.640        33
39.650         7
39.660        20
39.670        27
39.680        33
39.690        20
39.700        13
39.710         0
39.720        33
39.730        33
39.740        20
39.750         7
39.760         7
39.770        20
39.780        73
39.790        13
39.800        13
39.810        47
39.820        13
39.830        13
39.840        33
39.850         7
39.860        27
39.870        27
39.880        33
39.890        13
39.900         7
39.910         7
39.920        33
39.930        27
39.940        33
39.950        33
39.960        40
39.970        60
39.980        27
39.990        27
40.000        33
40.010        47
40.020        20
40.030        33
40.040        27
40.050        27
40.060        27
40.070        27
40.080        47
40.090        20
40.100        27
40.110        13
40.120        33
40.130        20
40.140        13
40.150        33
40.160        33
40.170        33
40.180        33
40.190        47
40.200        27
40.210        20
40.220        27
40.230        47
40.240        47
40.250        73
40.260         0
40.270        53
40.280        27
40.290        53
40.300        53
40.310        33
40.320        53
40.330        53
40.340        53
40.350        40
40.360        20
40.370         7
40.380        40
40.390        33
40.400        13
40.410        13
40.420        67
40.430        27
40.440        27
40.450        27
40.460        27
40.470        13
40.480        27
40.490        13
40.500        27
40.510        40
40.520        27
40.530        47
40.540        13
40.550        33
40.560        13
40.570        20
40.580         7
40.590        27
40.600         7
40.610        20
40.620        33
40.630        13
40.640         7
40.650         7
40.660        33
40.670        47
40.680        13
40.690        27
40.700        20
40.710        13
40.720        20
40.730        47
40.740        20
40.750        27
40.760        13
40.770         7
40.780        20
40.790         7
40.800        40
40.810        27
40.820         7
40.830        33
40.840         7
40.850        33
40.860        33
40.870        20
40.880        53
40.890        33
40.900        47
40.910        47
40.920         7
40.930        20
40.940        27
40.950        33
40.960        13
40.970        13
40.980        33
40.990        33
41.000        27
41.010        33
41.020        13
41.030        20
41.040        13
41.050        47
41.060        40
41.070        20
41.080        20
41.090        27
41.100        40
41.110         0
41.120        13
41.130        20
41.140        27
41.150         7
41.160         0
41.170        13
41.180        33
41.190        13
41.200        33
41.210        13
41.220        20
41.230        13
41.240         7
41.250        13
41.260        20
41.270         7
41.280        13
41.290        33
41.300        33
41.310        13
41.320        13
41.330        47
41.340         7
41.350        27
41.360        20
41.370        20
41.380        27
41.390        20
41.400         7
41.410        20
41.420        20
41.430        27
41.440        13
41.450        27
41.460        47
41.470        40
41.480        20
41.490        20
41.500        13
41.510        33
41.520        40
41.530        33
41.540        47
41.550        20
41.560        27
41.570        33
41.580        67
41.590        47
41.600        20
41.610        27
41.620       113
41.630        73
41.640        87
41.650        73
41.660        93
41.670        53
41.680        87
41.690       140
41.700       120
41.710        87
41.720        93
41.730        67
41.740        87
41.750        73
41.760        53
41.770        40
41.780        53
41.790        53
41.800        47
41.810       107
41.820        33
41.830        73
41.840        33
41.850        53
41.860        53
41.870        20
41.880        33
41.890        20
41.900        33
41.910        20
41.920        27
41.930        20
41.940        33
41.950        33
41.960        40
41.970        13
41.980        40
41.990        40
42.000        33
42.010        13
42.020         7
42.030        20
42.040        20
42.050        33
42.060         7
42.070        27
42.080        27
42.090        33
42.100        13
42.110        20
42.120        47
42.130        13
42.140        20
42.150        27
42.160        20
42.170        33
42.180        40
42.190        27
42.200        40
42.210        27
42.220        33
42.230         7
42.240        33
42.250        27
42.260        60
42.270        13
42.280        20
42.290        47
42.300        27
42.310        27
42.320        13
42.330        13
42.340        33
42.350        13
42.360         0
42.370        33
42.380        40
42.390        27
42.400        53
42.410        60
42.420         7
42.430        40
42.440        27
42.450        40
42.460        27
42.470        20
42.480        40
42.490        20
42.500        33
42.510        27
42.520        13
42.530        20
42.540        40
42.550        13
42.560        27
42.570        13
42.580        13
42.590        13
42.600        20
42.610        13
42.620        33
42.630        13
42.640        20
42.650        47
42.660        47
42.670        33
42.680        20
42.690        20
42.700        40
42.710        53
42.720        20
42.730        60
42.740         0
42.750         7
42.760        20
42.770        27
42.780        27
42.790        47
42.800        40
42.810        33
42.820        13
42.830        27
42.840        27
42.850        40
42.860        20
42.870        40
42.880        47
42.890        20
42.900        20
42.910        40
42.920        47
42.930        13
42.940         7
42.950        27
42.960        13
42.970        33
42.980        27
42.990        27
43.000        20
43.010        47
43.020         0
43.030         7
43.040        53
43.050        40
43.060        20
43.070        20
43.080        27
43.090        13
43.100        13
43.110        53
43.120        40
43.130        47
43.140        33
43.150        27
43.160        27
43.170        27
43.180        13
43.190        27
43.200        27
43.210        13
43.220        27
43.230        20
43.240        33
43.250        27
43.260        20
43.270        47
43.280        20
43.290        20
43.300        40
43.310        27
43.320        40
43.330        53
43.340        33
43.350        53
43.360        47
43.370        33
43.380        27
43.390        60
43.400        33
43.410        73
43.420        40
43.430        40
43.440        33
43.450        27
43.460        13
43.470        33
43.480        40
43.490        33
43.500        40
43.510        33
43.520        13
43.530        13
43.540        47
43.550        27
43.560        47
43.570        27
43.580        27
43.590         0
43.600         7
43.610         7
43.620         0
43.630        13
43.640         7
43.650        27
43.660        27
43.670        40
43.680        20
43.690        20
43.700        20
43.710         0
43.720         7
43.730         0
43.740        20
43.750        27
43.760        27
43.770        13
43.780        40
43.790        13
43.800        20
43.810        13
43.820        20
43.830        47
43.840        20
43.850        20
43.860         7
43.870        27
43.880         0
43.890        27
43.900        33
43.910        13
43.920        33
43.930        13
43.940        40
43.950        20
43.960        13
43.970        27
43.980        20
43.990         7
44.000         7
44.010        27
44.020         7
44.030         7
44.040        13
44.050        27
44.060        27
44.070         7
44.080        13
44.090        13
44.100        13
44.110         7
44.120        53
44.130        20
44.140        40
44.150        20
44.160        13
44.170        20
44.180        13
44.190        20
44.200        13
44.210        33
44.220        33
44.230        13
44.240         7
44.250        20
44.260        20
44.270        20
44.280         7
44.290        47
44.300        53
44.310        27
44.320        20
44.330        20
44.340        20
44.350         7
44.360        33
44.370        33
44.380        20
44.390         7
44.400         7
44.410        20
44.420        13
44.430         7
44.440        20
44.450        13
44.460        13
44.470        33
44.480        20
44.490        20
44.500        40
44.510        47
44.520        13
44.530        27
44.540        27
44.550        20
44.560        20
44.570        33
44.580        27
44.590        13
44.600        27
44.610        33
44.620         7
44.630        40
44.640        47
44.650        40
44.660        27
44.670        33
44.680         7
44.690        60
44.700        13
44.710        27
44.720        13
44.730        33
44.740        20
44.750        40
44.760        27
44.770        20
44.780        13
44.790        13
44.800        33
44.810        13
44.820        20
44.830        20
44.840        13
44.850        27
44.860        40
44.870        13
44.880        27
44.890         7
44.900        47
44.910        27
44.920        27
44.930         7
44.940        13
44.950        33
44.960         7
44.970        20
44.980         7
44.990        40
45.000        13
45.010        13
45.020        20
45.030        20
45.040        13
45.050        13
45.060         7
45.070        20
45.080         7
45.090         7
45.100        33
45.110        13
45.120        27
45.130        60
45.140        13
45.150        27
45.160        27
45.170        20
45.180        27
45.190         7
45.200        33
45.210        33
45.220         7
45.230        27
45.240        47
45.250        33
45.260        27
45.270        27
45.280         7
45.290        20
45.300        47
45.310        20
45.320        33
45.330         0
45.340        13
45.350        40
45.360        20
45.370        20
45.380        27
45.390        20
45.400        27
45.410         7
45.420        13
45.430        13
45.440        13
45.450        27
45.460         7
45.470        27
45.480        13
45.490        20
45.500        27
45.510         7
45.520         7
45.530        20
45.540        13
45.550        27
45.560        13
45.570        13
45.580         0
45.590        27
45.600        27
45.610        40
45.620        33
45.630        13
45.640        40
45.650        33
45.660        20
45.670        47
45.680        20
45.690        40
45.700        73
45.710        67
45.720        60
45.730        53
45.740       100
45.750        73
45.760        87
45.770        73
45.780        80
45.790       107
45.800       127
45.810        60
45.820        87
45.830       107
45.840        53
45.850       120
45.860       100
45.870       100
45.880       120
45.890       113
45.900        67
45.910       100
45.920       120
45.930        60
45.940        80
45.950       100
45.960        80
45.970        80
45.980       107
45.990       100
46.000       120
46.010        67
46.020        87
46.030        87
46.040        60
46.050        33
46.060        33
46.070        40
46.080        80
46.090        53
46.100        80
46.110        53
46.120        40
46.130        60
46.140        60
46.150        33
46.160        47
46.170        20
46.180        40
46.190        20
46.200        47
46.210        33
46.220         7
46.230        20
46.240        67
46.250        60
46.260        13
46.270        20
46.280         7
46.290        20
46.300        47
46.310        33
46.320        33
46.330        47
46.340        20
46.350        27
46.360        33
46.370        33
46.380        20
46.390        27
46.400        33
46.410        47
46.420        33
46.430        47
46.440        27
46.450        13
46.460        40
46.470        27
46.480        73
46.490        53
46.500        40
46.510        40
46.520        20
46.530        67
46.540        20
46.550        27
46.560        47
46.570        53
46.580       120
46.590        40
46.600        80
46.610        73
46.620        87
46.630        87
46.640       107
46.650        87
46.660        40
46.670       100
46.680        93
46.690       100
46.700       120
46.710       107
46.720       100
46.730       127
46.740        80
46.750       127
46.760       127
46.770       140
46.780       113
46.790       107
46.800        47
46.810        87
46.820        93
46.830        87
46.840        93
46.850       113
46.860       107
46.870        93
46.880       113
46.890       113
46.900       173
46.910        93
46.920       100
46.930       107
46.940        73
46.950        93
46.960        67
46.970        73
46.980        53
46.990       100
47.000        80
47.010        67
47.020        80
47.030        73
47.040        47
47.050        80
47.060        27
47.070        87
47.080        40
47.090       100
47.100        67
47.110        47
47.120        33
47.130        53
47.140        27
47.150        13
47.160        60
47.170        27
47.180        27
47.190        20
47.200        33
47.210        20
47.220        27
47.230        33
47.240        20
47.250        80
47.260        47
47.270        13
47.280        60
47.290        27
47.300        33
47.310        13
47.320        33
47.330        33
47.340        27
47.350        40
47.360         7
47.370        33
47.380        27
47.390        27
47.400        33
47.410        40
47.420        47
47.430        27
47.440        60
47.450        27
47.460        20
47.470        47
47.480        20
47.490         7
47.500         0
47.510        20
47.520        40
47.530        20
47.540        20
47.550        20
47.560        27
47.570        27
47.580        20
47.590         7
47.600         7
47.610        27
47.620        40
47.630        13
47.640        27
47.650        40
47.660        13
47.670        20
47.680        13
47.690         7
47.700        13
47.710        13
47.720        27
47.730        40
47.740        20
47.750        20
47.760        13
47.770        33
47.780        27
47.790        33
47.800        13
47.810        13
47.820        27
47.830        13
47.840        33
47.850        20
47.860        13
47.870        40
47.880        13
47.890        33
47.900        13
47.910        33
47.920        20
47.930        20
47.940        27
47.950        13
47.960        20
47.970        20
47.980         7
47.990         0
48.000        13
48.010        27
48.020        27
48.030        13
48.040        33
48.050         0
48.060        20
48.070        20
48.080        40
48.090        33
48.100        20
48.110        13
48.120         7
48.130         7
48.140        53
48.150        47
48.160        33
48.170        33
48.180        13
48.190        47
48.200        40
48.210        27
48.220        20
48.230        13
48.240         0
48.250        60
48.260        20
48.270        33
48.280        40
48.290        33
48.300        13
48.310        20
48.320        40
48.330        40
48.340        27
48.350        33
48.360        33
48.370        40
48.380        27
48.390        27
48.400        20
48.410        47
48.420        27
48.430        27
48.440        47
48.450        60
48.460        20
48.470        33
48.480        27
48.490        40
48.500        47
48.510        13
48.520        47
48.530        20
48.540        13
48.550        27
48.560        33
48.570        20
48.580        27
48.590        27
48.600        40
48.610        20
48.620        40
48.630        33
48.640        13
48.650        13
48.660        33
48.670        33
48.680        20
48.690        27
48.700         7
48.710        13
48.720        13
48.730         7
48.740        20
48.750        27
48.760        20
48.770        27
48.780        20
48.790        27
48.800        27
48.810        33
48.820        47
48.830        27
48.840        53
48.850        33
48.860         7
48.870        33
48.880        27
48.890         7
48.900        40
48.910        67
48.920        33
48.930        27
48.940        20
48.950        40
48.960        40
48.970        33
48.980        27
48.990        33
49.000        40
49.010         7
49.020        73
49.030        47
49.040        40
49.050        13
49.060        40
49.070        20
49.080         7
49.090        47
49.100        20
49.110        27
49.120        40
49.130        13
49.140        47
49.150        40
49.160        33
49.170        33
49.180        33
49.190        40
49.200        27
49.210        27
49.220        33
49.230        20
49.240         7
49.250        33
49.260         7
49.270        27
49.280        27
49.290         7
49.300        13
49.310        27
49.320        40
49.330        13
49.340        13
49.350        20
49.360        20
49.370        27
49.380        20
49.390        27
49.400        13
49.410        20
49.420        27
49.430        13
49.440         7
49.450        20
49.460        20
49.470        33
49.480        13
49.490        20
49.500        40
49.510        13
49.520        40
49.530        13
49.540        13
49.550        33
49.560        20
49.570        27
49.580        20
49.590        47
49.600        40
49.610        33
49.620        47
49.630        33
49.640         7
49.650        33
49.660        40
49.670        47
49.680        27
49.690        73
49.700        20
49.710        40
49.720        13
49.730        20
49.740        47
49.750        20
49.760        27
49.770        47
49.780        80
49.790        40
49.800        47
49.810        47
49.820        53
49.830        27
49.840        27
49.850        20
49.860        13
49.870        40
49.880        60
49.890        20
49.900        20
49.910        27
49.920        13
49.930        20
49.940        27
49.950        33
49.960        33
49.970        33
49.980        60
49.990        47
50.000        33
50.010        47
50.020        47
50.030        47
50.040        40
50.050        40
50.060        27
50.070        53
50.080        33
50.090        53
50.100        33
50.110        47
50.120        13
50.130        20
50.140        33
50.150        33
50.160        40
50.170        20
50.180        40
50.190        20
50.200        27
50.210        40
50.220         7
50.230        40
50.240        13
50.250        20
50.260        13
50.270        20
50.280        40
50.290        27
50.300        27
50.310        33
50.320        13
50.330        40
50.340        27
50.350        20
50.360         0
50.370        33
50.380        33
50.390        33
50.400        33
50.410         7
50.420        33
50.430        40
50.440        40
50.450        13
50.460        33
50.470        47
50.480        27
50.490        40
50.500        13
50.510        40
50.520        20
50.530        27
50.540        13
50.550        27
50.560        13
50.570        20
50.580        13
50.590         7
50.600        20
50.610        20
50.620        13
50.630        53
50.640         7
50.650        33
50.660         7
50.670         0
50.680        27
50.690        27
50.700        13
50.710        47
50.720        33
50.730        13
50.740        27
50.750         7
50.760         7
50.770        13
50.780        20
50.790        20
50.800        13
50.810        13
50.820         7
50.830        13
50.840         0
50.850        13
50.860        13
50.870         7
50.880        20
50.890        27
50.900        13
50.910        33
50.920        40
50.930         0
50.940        20
50.950        20
50.960        13
50.970        47
50.980         7
50.990        13
51.000         0
51.010         7
51.020         7
51.030         7
51.040        13
51.050        13
51.060         0
51.070         7
51.080        40
51.090        13
51.100        27
51.110        27
51.120         7
51.130        33
51.140        33
51.150        27
51.160         7
51.170        20
51.180         7
51.190        20
51.200        33
51.210        47
51.220         7
51.230        13
51.240         7
51.250        20
51.260         7
51.270        13
51.280         0
51.290        13
51.300        33
51.310         7
51.320         7
51.330        33
51.340        20
51.350        47
51.360        27
51.370        47
51.380        27
51.390        40
51.400        13
51.410        20
51.420        20
51.430        13
51.440        27
51.450        13
51.460        33
51.470         7
51.480        20
51.490        40
51.500        33
51.510        20
51.520        33
51.530        53
51.540        13
51.550        27
51.560        20
51.570        47
51.580        33
51.590        60
51.600        27
51.610        27
51.620         7
51.630        27
51.640        40
51.650        27
51.660        13
51.670        47
51.680        33
51.690        20
51.700        53
51.710        20
51.720        20
51.730        47
51.740        33
51.750        53
51.760        27
51.770        40
51.780        40
51.790        20
51.800        53
51.810        87
51.820        40
51.830        53
51.840        27
51.850        27
51.860        47
51.870        27
51.880        53
51.890        60
51.900        67
51.910        67
51.920        87
51.930        40
51.940        33
51.950        40
51.960        47
51.970        60
51.980         7
51.990        27
52.000        20
52.010        40
52.020        27
52.030        20
52.040        13
52.050        27
52.060        47
52.070        13
52.080        20
52.090        27
52.100        47
52.110        27
52.120         7
52.130        40
52.140        33
52.150        33
52.160        13
52.170        20
52.180        40
52.190        27
52.200        47
52.210        53
52.220        20
52.230        20
52.240        13
52.250        13
52.260        27
52.270        20
52.280         7
52.290        13
52.300        13
52.310        27
52.320        13
52.330        20
52.340        20
52.350        27
52.360        27
52.370        20
52.380        20
52.390        20
52.400        20
52.410        20
52.420        13
52.430         7
52.440        20
52.450        13
52.460        27
52.470        27
52.480        40
52.490        40
52.500         0
52.510        20
52.520         7
52.530        27
52.540        33
52.550        27
52.560        27
52.570        47
52.580        53
52.590        20
52.600        33
52.610        13
52.620        33
52.630        20
52.640         0
52.650        20
52.660        27
52.670        20
52.680        27
52.690         7
52.700        47
52.710        27
52.720        27
52.730        13
52.740        13
52.750        27
52.760        27
52.770        20
52.780        13
52.790        33
52.800        13
52.810        20
52.820        27
52.830        33
52.840         7
52.850        13
52.860        33
52.870        20
52.880        13
52.890        33
52.900        20
52.910        33
52.920        13
52.930        13
52.940        13
52.950        13
52.960        20
52.970        13
52.980        20
52.990        13
53.000        27
53.010        33
53.020         0
53.030         0
53.040        27
53.050        27
53.060        27
53.070        20
53.080        13
53.090        27
53.100        33
53.110         0
53.120        13
53.130         7
53.140         7
53.150         0
53.160        13
53.170         7
53.180        13
53.190        20
53.200         0
53.210        13
53.220        20
53.230         7
53.240        20
53.250        20
53.260        20
53.270        40
53.280        20
53.290         0
53.300         7
53.310        20
53.320        20
53.330        13
53.340        27
53.350         7
53.360        20
53.370         7
53.380        20
53.390        33
53.400        20
53.410        20
53.420        13
53.430        13
53.440         7
53.450        13
53.460        33
53.470        40
53.480        13
53.490         7
53.500        20
53.510        13
53.520        20
53.530        20
53.540         7
53.550        20
53.560        13
53.570         0
53.580         7
53.590        27
53.600        13
53.610         7
53.620        40
53.630        20
53.640        33
53.650         7
53.660         7
53.670        13
53.680        27
53.690        40
53.700        20
53.710        33
53.720         7
53.730         0
53.740        13
53.750        20
53.760         0
53.770         0
53.780        20
53.790        27
53.800        33
53.810        13
53.820        20
53.830        20
53.840        27
53.850        27
53.860        20
53.870        13
53.880        20
53.890        27
53.900        13
53.910        20
53.920        20
53.930        13
53.940         7
53.950        20
53.960        27
53.970        20
53.980        53
53.990        20
54.000        20
54.010        27
54.020         7
54.030         7
54.040        13
54.050        20
54.060         0
54.070         0
54.080        27
54.090         7
54.100        13
54.110         7
54.120        27
54.130         7
54.140        13
54.150        47
54.160        13
54.170        20
54.180        20
54.190        20
54.200         7
54.210        40
54.220        13
54.230        13
54.240         7
54.250        13
54.260        33
54.270        13
54.280        27
54.290        20
54.300         0
54.310        33
54.320        40
54.330         0
54.340        13
54.350         0
54.360        13
54.370        40
54.380        20
54.390        13
54.400         7
54.410        20
54.420        20
54.430        20
54.440        33
54.450        20
54.460        33
54.470        13
54.480        13
54.490        13
54.500        13
54.510         7
54.520        20
54.530         7
54.540        13
54.550        33
54.560        13
54.570        13
54.580         7
54.590        27
54.600        20
54.610        13
54.620        13
54.630        13
54.640        27
54.650        33
54.660        13
54.670        13
54.680        20
54.690        33
54.700        40
54.710         7
54.720        13
54.730        20
54.740        13
54.750        20
54.760        33
54.770         0
54.780        13
54.790         7
54.800        33
54.810        20
54.820         7
54.830        27
54.840        20
54.850        33
54.860        20
54.870        13
54.880        33
54.890        27
54.900         7
54.910        13
54.920        20
54.930        47
54.940         0
54.950        13
54.960        13
54.970         7
54.980         7
54.990         7
55.000        20
55.010        47
55.020        33
55.030        20
55.040        13
55.050        27
55.060         7
55.070        13
55.080        13
55.090        20
55.100         7
55.110        20
55.120         7
55.130        53
55.140        20
55.150         7
55.160         7
55.170         7
55.180        33
55.190        20
55.200         0
55.210        13
55.220         7
55.230        13
55.240         0
55.250         0
55.260        20
55.270        27
55.280        13
55.290        13
55.300        20
55.310        20
55.320         0
55.330        27
55.340        27
55.350        27
55.360         7
55.370        27
55.380         7
55.390         7
55.400        20
55.410        33
55.420        27
55.430         7
55.440        27
55.450        40
55.460        13
55.470        20
55.480        20
55.490        27
55.500         7
55.510        20
55.520         7
55.530        27
55.540        20
55.550        27
55.560        27
55.570        13
55.580        13
55.590        27
55.600         0
55.610        33
55.620        20
55.630         7
55.640        33
55.650        40
55.660        20
55.670        20
55.680        27
55.690        27
55.700        20
55.710        47
55.720        53
55.730        20
55.740        27
55.750        40
55.760        40
55.770        40
55.780        47
55.790        13
55.800        27
55.810        27
55.820        33
55.830        33
55.840        53
55.850         7
55.860        20
55.870        20
55.880        40
55.890        20
55.900        27
55.910        40
55.920        27
55.930        27
55.940        13
55.950        33
55.960        53
55.970        53
55.980        33
55.990        27
56.000        47
56.010        60
56.020        20
56.030        27
56.040        27
56.050        33
56.060        27
56.070        33
56.080        40
56.090        40
56.100        60
56.110        33
56.120        40
56.130        20
56.140        33
56.150        33
56.160        47
56.170        47
56.180        40
56.190        60
56.200        40
56.210        53
56.220        20
56.230        20
56.240        40
56.250        13
56.260        20
56.270        20
56.280        33
56.290         7
56.300        53
56.310        47
56.320        27
56.330         7
56.340        20
56.350        20
56.360        13
56.370        13
56.380        47
56.390        53
56.400        47
56.410        33
56.420        20
56.430        33
56.440        27
56.450        27
56.460        27
56.470        20
56.480        13
56.490        13
56.500         0
56.510        33
56.520        27
56.530        20
56.540         7
56.550        20
56.560        40
56.570        47
56.580         7
56.590        20
56.600        20
56.610        20
56.620        33
56.630        20
56.640        13
56.650        33
56.660        27
56.670        20
56.680         0
56.690         7
56.700        13
56.710        13
56.720        13
56.730        33
56.740        20
56.750        33
56.760         7
56.770        13
56.780        13
56.790         7
56.800        27
56.810        13
56.820        33
56.830         7
56.840         0
56.850         7
56.860        13
56.870        20
56.880         7
56.890         0
56.900        20
56.910         0
56.920        13
56.930         0
56.940        20
56.950        13
56.960        13
56.970         0
56.980        20
56.990        13
57.000        20
57.010        20
57.020         0
57.030        13
57.040        20
57.050        20
57.060        20
57.070         0
57.080        27
57.090        20
57.100         7
57.110        20
57.120        47
57.130         7
57.140        13
57.150        20
57.160        20
57.170        13
57.180        27
57.190        27
57.200        67
57.210        13
57.220        20
57.230        20
57.240        27
57.250        60
57.260        33
57.270        33
57.280        33
57.290        13
57.300        27
57.310        47
57.320        40
57.330        47
57.340        20
57.350        33
57.360        60
57.370        40
57.380        33
57.390        33
57.400        20
57.410        33
57.420        20
57.430        27
57.440        47
57.450        67
57.460        53
57.470        60
57.480        40
57.490        33
57.500       100
57.510        73
57.520        93
57.530        80
57.540       113
57.550       113
57.560       120
57.570        80
57.580       100
57.590        87
57.600        53
57.610        53
57.620        27
57.630        53
57.640        53
57.650        73
57.660        27
57.670        60
57.680        33
57.690        47
57.700        73
57.710        40
57.720        67
57.730        93
57.740        60
57.750        47
57.760        13
57.770        40
57.780        20
57.790        40
57.800        33
57.810         7
57.820        20
57.830        13
57.840        33
57.850        20
57.860        20
57.870        27
57.880        13
57.890        20
57.900        33
57.910         7
57.920        40
57.930        20
57.940        20
57.950        20
57.960        13
57.970        20
57.980        20
57.990        20
58.000        13
58.010        33
58.020        47
58.030        13
58.040        20
58.050        20
58.060        13
58.070         7
58.080        33
58.090        20
58.100         7
58.110        13
58.120        20
58.130        20
58.140        13
58.150         7
58.160        27
58.170        47
58.180         7
58.190        47
58.200        27
58.210        27
58.220        33
58.230        33
58.240        20
58.250        27
58.260        20
58.270        40
58.280        20
58.290        20
58.300        27
58.310        13
58.320        47
58.330         7
58.340        27
58.350        13
58.360        20
58.370        13
58.380         0
58.390        13
58.400        47
58.410        13
58.420        20
58.430        13
58.440         7
58.450        27
58.460        33
58.470        13
58.480        27
58.490        13
58.500         7
58.510         7
58.520        13
58.530         7
58.540        13
58.550        20
58.560        20
58.570         7
58.580        20
58.590        27
58.600         7
58.610        13
58.620         7
58.630         7
58.640        20
58.650        13
58.660        13
58.670         0
58.680        33
58.690         0
58.700        27
58.710        20
58.720        20
58.730        20
58.740        13
58.750        27
58.760         7
58.770        20
58.780        20
58.790        33
58.800        13
58.810        13
58.820        13
58.830        13
58.840        33
58.850        13
58.860         0
58.870        13
58.880        13
58.890         7
58.900         0
58.910         7
58.920        20
58.930        20
58.940        13
58.950         7
58.960         7
58.970        20
58.980        13
58.990        20
59.000         7
59.010        13
59.020         0
59.030        40
59.040        13
59.050        13
59.060        33
59.070        13
59.080        20
59.090         7
59.100        27
59.110        27
59.120        40
59.130        33
59.140         7
59.150        20
59.160        13
59.170         7
59.180         0
59.190        20
59.200        13
59.210        20
59.220         7
59.230        27
59.240        13
59.250         7
59.260        20
59.270        27
59.280        27
59.290        13
59.300        13
59.310        33
59.320        27
59.330         7
59.340        33
59.350        27
59.360        33
59.370        13
59.380        20
59.390        20
59.400        27
59.410        20
59.420        33
59.430        13
59.440        33
59.450        13
59.460        13
59.470        33
59.480        20
59.490         0
59.500        20
59.510        60
59.520        13
59.530        20
59.540        20
59.550        13
59.560        13
59.570        13
59.580        40
59.590         7
59.600         7
59.610         7
59.620        13
59.630        27
59.640         7
59.650        27
59.660        27
59.670        13
59.680        13
59.690        20
59.700        53
59.710        20
59.720        27
59.730        13
59.740        20
59.750        33
59.760        13
59.770        27
59.780         7
59.790        60
59.800        13
59.810        33
59.820        13
59.830         7
59.840        27
59.850        20
59.860        27
59.870        20
59.880        27
59.890        13
59.900        27
59.910        33
59.920        27
59.930        20
59.940         7
59.950        13
59.960        33
59.970         7
59.980        27
59.990         7
60.000         7
