20.000        67
20.010        67
20.020        53
20.030        33
20.040        40
20.050        60
20.060        67
20.070        53
20.080        67
20.090        67
20.100        67
20.110        80
20.120        60
20.130        87
20.140        27
20.150        80
20.160        53
20.170        60
20.180        93
20.190        60
20.200        40
20.210        40
20.220        27
20.230        60
20.240        47
20.250        60
20.260        80
20.270        40
20.280        67
20.290        47
20.300        53
20.310        40
20.320        33
20.330        67
20.340        47
20.350        67
20.360        60
20.370        67
20.380        40
20.390        40
20.400        60
20.410        73
20.420        60
20.430        40
20.440        53
20.450        20
20.460        53
20.470        47
20.480        53
20.490        53
20.500        33
20.510        40
20.520        33
20.530        60
20.540        53
20.550        67
20.560        33
20.570        53
20.580        33
20.590        80
20.600        27
20.610        13
20.620        47
20.630        33
20.640        33
20.650        67
20.660        67
20.670        47
20.680        13
20.690        60
20.700        60
20.710        53
20.720        33
20.730        67
20.740        40
20.750        27
20.760        47
20.770        40
20.780        73
20.790        47
20.800        33
20.810        67
20.820        13
20.830        47
20.840        53
20.850        73
20.860        40
20.870        73
20.880        80
20.890        60
20.900        33
20.910        40
20.920        47
20.930        47
20.940        47
20.950        47
20.960        20
20.970        27
20.980        60
20.990        27
21.000        27
21.010        27
21.020        40
21.030        47
21.040        20
21.050        47
21.060        40
21.070        40
21.080        40
21.090        40
21.100        40
21.110        60
21.120        47
21.130        40
21.140        20
21.150        73
21.160        60
21.170        13
21.180        67
21.190        20
21.200        73
21.210        40
21.220        13
21.230        33
21.240        20
21.250        27
21.260        73
21.270         7
21.280        20
21.290        40
21.300        20
21.310        20
21.320        60
21.330        40
21.340        40
21.350        67
21.360        53
21.370        27
21.380        40
21.390        33
21.400        47
21.410        27
21.420        53
21.430        20
21.440        60
21.450        53
21.460        53
21.470        53
21.480        60
21.490        33
21.500        33
21.510        87
21.520        33
21.530        20
21.540        33
21.550        27
21.560        40
21.570        40
21.580        27
21.590        47
21.600        40
21.610        33
21.620        67
21.630        33
21.640        40
21.650        27
21.660        33
21.670        53
21.680        40
21.690        27
21.700        27
21.710        27
21.720        20
21.730        20
21.740        40
21.750        27
21.760        47
21.770        40
21.780        53
21.790        40
21.800        33
21.810        40
21.820        47
21.830        33
21.840        73
21.850        60
21.860        27
21.870        20
21.880        53
21.890        40
21.900        73
21.910        47
21.920        13
21.930        80
21.940        60
21.950        20
21.960        20
21.970        47
21.980        40
21.990        47
22.000        67
22.010        47
22.020        47
22.030        27
22.040        33
22.050        27
22.060        13
22.070        33
22.080        80
22.090        47
22.100        13
22.110        53
22.120        47
22.130        27
22.140        53
22.150        53
22.160        80
22.170        53
22.180        53
22.190         7
22.200        40
22.210        33
22.220        47
22.230        33
22.240        60
22.250        33
22.260        60
22.270        73
22.280        93
22.290        73
22.300        60
22.310        93
22.320        53
22.330        60
22.340       100
22.350        93
22.360       147
22.370       107
22.380       153
22.390       220
22.400       113
22.410       160
22.420       220
22.430       147
22.440       247
22.450       220
22.460       253
22.470       307
22.480       373
22.490       413
22.500       520
22.510       340
22.520       540
22.530       520
22.540       540
22.550       480
22.560       480
22.570       460
22.580       446
22.590       433
22.600       347
22.610       313
22.620       280
22.630       267
22.640       287
22.650       213
22.660       207
22.670       173
22.680       160
22.690       140
22.700        60
22.710       120
22.720        67
22.730        80
22.740        80
22.750       133
22.760        47
22.770        40
22.780        60
22.790        73
22.800        60
22.810        80
22.820        33
22.830        80
22.840        80
22.850        40
22.860        13
22.870        73
22.880        60
22.890        53
22.900        80
22.910        40
22.920        33
22.930        40
22.940        67
22.950        27
22.960        33
22.970        53
22.980        73
22.990        53
23.000        67
23.010        60
23.020        47
23.030        60
23.040        87
23.050        80
23.060        40
23.070        80
23.080        47
23.090        67
23.100        53
23.110        73
23.120        47
23.130        40
23.140        33
23.150        87
23.160        53
23.170        53
23.180        33
23.190        53
23.200        20
23.210        47
23.220        40
23.230        33
23.240        53
23.250        40
23.260        20
23.270        20
23.280        53
23.290       107
23.300        20
23.310        53
23.320         7
23.330        27
23.340        40
23.350        47
23.360        27
23.370        40
23.380        47
23.390        47
23.400        73
23.410        40
23.420        40
23.430        27
23.440        27
23.450        13
23.460        33
23.470        13
23.480        40
23.490        67
23.500        67
23.510        47
23.520        13
23.530        27
23.540        27
23.550        13
23.560        20
23.570        47
23.580        40
23.590        27
23.600        13
23.610        47
23.620        40
23.630        27
23.640        33
23.650        40
23.660        20
23.670        60
23.680        33
23.690        27
23.700        67
23.710        27
23.720        27
23.730        40
23.740        20
23.750        27
23.760        20
23.770        47
23.780        13
23.790        40
23.800        67
23.810        27
23.820        33
23.830        33
23.840        60
23.850        33
23.860        33
23.870        20
23.880        27
23.890        60
23.900        33
23.910        20
23.920        40
23.930        47
23.940        20
23.950        40
23.960        60
23.970        13
23.980        20
23.990        53
24.000        40
24.010         7
24.020        20
24.030        60
24.040        27
24.050        53
24.060        33
24.070        73
24.080        53
24.090        40
24.100        27
24.110        33
24.120        33
24.130        33
24.140        33
24.150        60
24.160        13
24.170        47
24.180        33
24.190        47
24.200        60
24.210        27
24.220        20
24.230        33
24.240        27
24.250        13
24.260        33
24.270        53
24.280        40
24.290        47
24.300        53
24.310        40
24.320        13
24.330        40
24.340        47
24.350        33
24.360        53
24.370        53
24.380        47
24.390        40
24.400        27
24.410        40
24.420        53
24.430        27
24.440         7
24.450        27
24.460        27
24.470        47
24.480        33
24.490        33
24.500        40
24.510        33
24.520        47
24.530        40
24.540        47
24.550        40
24.560        47
24.570        13
24.580        13
24.590        33
24.600        40
24.610        33
24.620        67
24.630        53
24.640        13
24.650        60
24.660        27
24.670        40
24.680        20
24.690        47
24.700         0
24.710        33
24.720        53
24.730        47
24.740        27
24.750        47
24.760        13
24.770        47
24.780        33
24.790        27
24.800        40
24.810        47
24.820        40
24.830        27
24.840        20
24.850        53
24.860        27
24.870        60
24.880        27
24.890        33
24.900        40
24.910        40
24.920        47
24.930        27
24.940        60
24.950        20
24.960        80
24.970        33
24.980        60
24.990        53
25.000        33
25.010        13
25.020        47
25.030        40
25.040        47
25.050        27
25.060        60
25.070        33
25.080        20
25.090        73
25.100        13
25.110        33
25.120        33
25.130        67
25.140        20
25.150        40
25.160        27
25.170        40
25.180         7
25.190        67
25.200        53
25.210        40
25.220        47
25.230        53
25.240        67
25.250        47
25.260        33
25.270        60
25.280        33
25.290        20
25.300        60
25.310        33
25.320        80
25.330        80
25.340        13
25.350        60
25.360        20
25.370        60
25.380        40
25.390        47
25.400        53
25.410        40
25.420        40
25.430        13
25.440        40
25.450        33
25.460        73
25.470        27
25.480        40
25.490        60
25.500        87
25.510        40
25.520        67
25.530        60
25.540        33
25.550        53
25.560        60
25.570        53
25.580        27
25.590        67
25.600        80
25.610        67
25.620        80
25.630       113
25.640       127
25.650       133
25.660       147
25.670       173
25.680       187
25.690       140
25.700       200
25.710       233
25.720       227
25.730       267
25.740       240
25.750       240
25.760       247
25.770       247
25.780       273
25.790       247
25.800       133
25.810       207
25.820       153
25.830       207
25.840       200
25.850       127
25.860       107
25.870       140
25.880       100
25.890        67
25.900       107
25.910       140
25.920        60
25.930        40
25.940        53
25.950        33
25.960        60
25.970        80
25.980        20
25.990        80
26.000        27
26.010        47
26.020        33
26.030        33
26.040        20
26.050        33
26.060        60
26.070        33
26.080        47
26.090        20
26.100        47
26.110         7
26.120        47
26.130        33
26.140        40
26.150        33
26.160        20
26.170        53
26.180        33
26.190        53
26.200        20
26.210        20
26.220        40
26.230        20
26.240        20
26.250        33
26.260         7
26.270        27
26.280        27
26.290        20
26.300        40
26.310        60
26.320        60
26.330        27
26.340        20
26.350        40
26.360        40
26.370        27
26.380        20
26.390        47
26.400        20
26.410        40
26.420        20
26.430        13
26.440        33
26.450        33
26.460        33
26.470        27
26.480        33
26.490        20
26.500        47
26.510        40
26.520        20
26.530        33
26.540        27
26.550        33
26.560        13
26.570        13
26.580        47
26.590        33
26.600        33
26.610        40
26.620        27
26.630        33
26.640        13
26.650        27
26.660        13
26.670        27
26.680        33
26.690        53
26.700        20
26.710         0
26.720        33
26.730        20
26.740        47
26.750        40
26.760        60
26.770        27
26.780        27
26.790        33
26.800        33
26.810        40
26.820        20
26.830        20
26.840        13
26.850        27
26.860        40
26.870        33
26.880        40
26.890        27
26.900        47
26.910        13
26.920        13
26.930        27
26.940        33
26.950        47
26.960        27
26.970        13
26.980        33
26.990        33
27.000        13
27.010        20
27.020        47
27.030        33
27.040        33
27.050        33
27.060        33
27.070        33
27.080        20
27.090        53
27.100        27
27.110        60
27.120        27
27.130        33
27.140        13
27.150        47
27.160        47
27.170        47
27.180        47
27.190        47
27.200        33
27.210         7
27.220        33
27.230        53
27.240        27
27.250         7
27.260        40
27.270        13
27.280        20
27.290        27
27.300        40
27.310        53
27.320        33
27.330         7
27.340        33
27.350        33
27.360        33
27.370        13
27.380        40
27.390         7
27.400        67
27.410        27
27.420        27
27.430        13
27.440        20
27.450        13
27.460        20
27.470        53
27.480        33
27.490         0
27.500        27
27.510        33
27.520        40
27.530        27
27.540        53
27.550         7
27.560        27
27.570        20
27.580        47
27.590        20
27.600        13
27.610        13
27.620        13
27.630        40
27.640        13
27.650        27
27.660        27
27.670        27
27.680        47
27.690        27
27.700        33
27.710        33
27.720        40
27.730        27
27.740        13
27.750        67
27.760        27
27.770        40
27.780        33
27.790        20
27.800        33
27.810        27
27.820        27
27.830        13
27.840        27
27.850        40
27.860        60
27.870        47
27.880         7
27.890        27
27.900        33
27.910        33
27.920        33
27.930        67
27.940        20
27.950        27
27.960        40
27.970        27
27.980        27
27.990        27
28.000        27
28.010        60
28.020        20
28.030        27
28.040        27
28.050        53
28.060        13
28.070        20
28.080        53
28.090        47
28.100        27
28.110        40
28.120        40
28.130        47
28.140        40
28.150        60
28.160        27
28.170        73
28.180        40
28.190        60
28.200        53
28.210        47
28.220        73
28.230        80
28.240        47
28.250        67
28.260        40
28.270        33
28.280        20
28.290        67
28.300        67
28.310        73
28.320       100
28.330        53
28.340        73
28.350        67
28.360        93
28.370       107
28.380        80
28.390       100
28.400        87
28.410        33
28.420        53
28.430        53
28.440        80
28.450        33
28.460        67
28.470        47
28.480        40
28.490        40
28.500        53
28.510        73
28.520        60
28.530        27
28.540        40
28.550        47
28.560        33
28.570        47
28.580        67
28.590        67
28.600        47
28.610        20
28.620        33
28.630        33
28.640        40
28.650        40
28.660        53
28.670        67
28.680        53
28.690        73
28.700        87
28.710        87
28.720       100
28.730        33
28.740       107
28.750        87
28.760        67
28.770        87
28.780        67
28.790        87
28.800       127
28.810        93
28.820        80
28.830       100
28.840        93
28.850       107
28.860       147
28.870       140
28.880       100
28.890       107
28.900        87
28.910       173
28.920       120
28.930       147
28.940       153
28.950       173
28.960       247
28.970       180
28.980       233
28.990       193
29.000       200
29.010       200
29.020       273
29.030       293
29.040       233
29.050       273
29.060       313
29.070       367
29.080       380
29.090       353
29.100       320
29.110       433
29.120       387
29.130       500
29.140       433
29.150       387
29.160       440
29.170       446
29.180       460
29.190       387
29.200       380
29.210       333
29.220       340
29.230       327
29.240       227
29.250       300
29.260       247
29.270       213
29.280       213
29.290       113
29.300       153
29.310       173
29.320       100
29.330       133
29.340        93
29.350       107
29.360       113
29.370        73
29.380        93
29.390       107
29.400        87
29.410       187
29.420       173
29.430       113
29.440       167
29.450       227
29.460       147
29.470       240
29.480       300
29.490       300
29.500       267
29.510       360
29.520       446
29.530       353
29.540       367
29.550       387
29.560       580
29.570       520
29.580       506
29.590       513
29.600       540
29.610       506
29.620       560
29.630       426
29.640       466
29.650       440
29.660       466
29.670       353
29.680       360
29.690       293
29.700       200
29.710       307
29.720       247
29.730       213
29.740       200
29.750       193
29.760       227
29.770       187
29.780       133
29.790        93
29.800       107
29.810        53
29.820        73
29.830        33
29.840        73
29.850        53
29.860        67
29.870        53
29.880        53
29.890        87
29.900        47
29.910       100
29.920        40
29.930        33
29.940        47
29.950        20
29.960         0
29.970        40
29.980        47
29.990        40
30.000        27
30.010        47
30.020        13
30.030        27
30.040        27
30.050        33
30.060        53
30.070        27
30.080        47
30.090        33
30.100        33
30.110        53
30.120        53
30.130        40
30.140         0
30.150        33
30.160        67
30.170        27
30.180        13
30.190        33
30.200        47
30.210       113
30.220        67
30.230        60
30.240        60
30.250        80
30.260       107
30.270       120
30.280        80
30.290        87
30.300       133
30.310       113
30.320       173
30.330       160
30.340       173
30.350       147
30.360       107
30.370       213
30.380       240
30.390       227
30.400       113
30.410       267
30.420       207
30.430       207
30.440       193
30.450       227
30.460       173
30.470       127
30.480       200
30.490       153
30.500        87
30.510       100
30.520        60
30.530        80
30.540        80
30.550       107
30.560        60
30.570        53
30.580        67
30.590       100
30.600        40
30.610        60
30.620        40
30.630        67
30.640        33
30.650        60
30.660        20
30.670        33
30.680        40
30.690        33
30.700        40
30.710        53
30.720        27
30.730        40
30.740        20
30.750        33
30.760        47
30.770        13
30.780        27
30.790        20
30.800        20
30.810        60
30.820        33
30.830         7
30.840        40
30.850        13
30.860        13
30.870        33
30.880        20
30.890        27
30.900        13
30.910        53
30.920        40
30.930        40
30.940        20
30.950        47
30.960        27
30.970        40
30.980        27
30.990        27
31.000        27
31.010        47
31.020        40
31.030        13
31.040        27
31.050        27
31.060         7
31.070        13
31.080        13
31.090        33
31.100         7
31.110        27
31.120         7
31.130         7
31.140        13
31.150        40
31.160        40
31.170        40
31.180         7
31.190        33
31.200        27
31.210        47
31.220        13
31.230        33
31.240        27
31.250        67
31.260        13
31.270        40
31.280        33
31.290        33
31.300        20
31.310        20
31.320        33
31.330        53
31.340        53
31.350        33
31.360        60
31.370        13
31.380        53
31.390        60
31.400        60
31.410        40
31.420        20
31.430        60
31.440        33
31.450        47
31.460       113
31.470        67
31.480        47
31.490        53
31.500        60
31.510        67
31.520        87
31.530        47
31.540        73
31.550        87
31.560        87
31.570       120
31.580        87
31.590        93
31.600       147
31.610       127
31.620        33
31.630        80
31.640        93
31.650        93
31.660       100
31.670        60
31.680       113
31.690        93
31.700        67
31.710       127
31.720        80
31.730        53
31.740        93
31.750        87
31.760        27
31.770        80
31.780        47
31.790        40
31.800        53
31.810        73
31.820        60
31.830        80
31.840        47
31.850        47
31.860        67
31.870        60
31.880        47
31.890        53
31.900        33
31.910        47
31.920        67
31.930        60
31.940        47
31.950        27
31.960        73
31.970        53
31.980        60
31.990        60
32.000       107
32.010        53
32.020       140
32.030       120
32.040       107
32.050       120
32.060       147
32.070        93
32.080       133
32.090       160
32.100       100
32.110       107
32.120       153
32.130        93
32.140        80
32.150       147
32.160        93
32.170       113
32.180       180
32.190       140
32.200       133
32.210        80
32.220        80
32.230       127
32.240       100
32.250        60
32.260        73
32.270        67
32.280        67
32.290        60
32.300        67
32.310        47
32.320        47
32.330        47
32.340        33
32.350        27
32.360        33
32.370        40
32.380        47
32.390        13
32.400        27
32.410        20
32.420        53
32.430        13
32.440        27
32.450        33
32.460        27
32.470        60
32.480         7
32.490        40
32.500         7
32.510         7
32.520        33
32.530        40
32.540        13
32.550        33
32.560        20
32.570        27
32.580        47
32.590        27
32.600        47
32.610        27
32.620        20
32.630        20
32.640        40
32.650        33
32.660        53
32.670        67
32.680        47
32.690        27
32.700        53
32.710        20
32.720        27
32.730        20
32.740        27
32.750        53
32.760        87
32.770        33
32.780        40
32.790        60
32.800        53
32.810        20
32.820        40
32.830        20
32.840        27
32.850        40
32.860        60
32.870        27
32.880        20
32.890        40
32.900        47
32.910        40
32.920        20
32.930        27
32.940        20
32.950        40
32.960        27
32.970        27
32.980        27
32.990        20
33.000        27
33.010        27
33.020        27
33.030        20
33.040        13
33.050        27
33.060        20
33.070        20
33.080        27
33.090        20
33.100        33
33.110        40
33.120        13
33.130        13
33.140        27
33.150        27
33.160         7
33.170        40
33.180        40
33.190        47
33.200        27
33.210        27
33.220        20
33.230         7
33.240        27
33.250        47
33.260        47
33.270        33
33.280         7
33.290        47
33.300        47
33.310        20
33.320        13
33.330        20
33.340        13
33.350        20
33.360        53
33.370        40
33.380         7
33.390        27
33.400        40
33.410        27
33.420        40
33.430        33
33.440        13
33.450        47
33.460        40
33.470        20
33.480        13
33.490        60
33.500        20
33.510        40
33.520        20
33.530         7
33.540        13
33.550        40
33.560        20
33.570        27
33.580        47
33.590        13
33.600         7
33.610        20
33.620        13
33.630        33
33.640        20
33.650        47
33.660        20
33.670        13
33.680        20
33.690        40
33.700        40
33.710        13
33.720         0
33.730         0
33.740         0
33.750         0
33.760        20
33.770        27
33.780        13
33.790        20
33.800        20
33.810        47
33.820        20
33.830        20
33.840        33
33.850        13
33.860        20
33.870         7
33.880        20
33.890        20
33.900        20
33.910        20
33.920         7
33.930        27
33.940         0
33.950         7
33.960        13
33.970         7
33.980        20
33.990        27
34.000        20
34.010        20
34.020         7
34.030        20
34.040        27
34.050         7
34.060        33
34.070        33
34.080         7
34.090        20
34.100         7
34.110         0
34.120        27
34.130        20
34.140        20
34.150        27
34.160        33
34.170        20
34.180        27
34.190         7
34.200         0
34.210        13
34.220         7
34.230         7
34.240        53
34.250        27
34.260        67
34.270        20
34.280        33
34.290        27
34.300        20
34.310         0
34.320        33
34.330        20
34.340        20
34.350        20
34.360        27
34.370        13
34.380        20
34.390        27
34.400        27
34.410        27
34.420        53
34.430        27
34.440        27
34.450         7
34.460        13
34.470        47
34.480        40
34.490        33
34.500         7
34.510        13
34.520        13
34.530         7
34.540        20
34.550        33
34.560        27
34.570         0
34.580        13
34.590        40
34.600        40
34.610        27
34.620        13
34.630        20
34.640        27
34.650        33
34.660        20
34.670        20
34.680         7
34.690        53
34.700        27
34.710        33
34.720        27
34.730        13
34.740        20
34.750        13
34.760        20
34.770        20
34.780        33
34.790        40
34.800        20
34.810        13
34.820        13
34.830        27
34.840         0
34.850         7
34.860        33
34.870        20
34.880        13
34.890        27
34.900        53
34.910        20
34.920         7
34.930        20
34.940        13
34.950        13
34.960        20
34.970        13
34.980        20
34.990        40
35.000        47
35.010        33
35.020        33
35.030        47
35.040         7
35.050        27
35.060         7
35.070         7
35.080        13
35.090        13
35.100        27
35.110         7
35.120        40
35.130         0
35.140        33
35.150        27
35.160        20
35.170         7
35.180        13
35.190        13
35.200        27
35.210        40
35.220        13
35.230        40
35.240        47
35.250        27
35.260        13
35.270        20
35.280         0
35.290        20
35.300         7
35.310        13
35.320        13
35.330        20
35.340        33
35.350        13
35.360        27
35.370         0
35.380         7
35.390        27
35.400        20
35.410        27
35.420        47
35.430         7
35.440        20
35.450        27
35.460         0
35.470        13
35.480        20
35.490        13
35.500         7
35.510        27
35.520        27
35.530        40
35.540        33
35.550         0
35.560        13
35.570        13
35.580        20
35.590        13
35.600        27
35.610         0
35.620        27
35.630        20
35.640        33
35.650         7
35.660        13
35.670        27
35.680        13
35.690        40
35.700        20
35.710        33
35.720        13
35.730        13
35.740        13
35.750        40
35.760        27
35.770        13
35.780        27
35.790        20
35.800        20
35.810        13
35.820        33
35.830        20
35.840        33
35.850        20
35.860        20
35.870         7
35.880        13
35.890        13
35.900        33
35.910        20
35.920        27
35.930        27
35.940        20
35.950        20
35.960         7
35.970        20
35.980        20
35.990        53
36.000        20
36.010        27
36.020         7
36.030        13
36.040        20
36.050        27
36.060         7
36.070        13
36.080        20
36.090        13
36.100        27
36.110        20
36.120        27
36.130        27
36.140         7
36.150        20
36.160        13
36.170        20
36.180         7
36.190        20
36.200        40
36.210         7
36.220        27
36.230        53
36.240        13
36.250        33
36.260        13
36.270        27
36.280        20
36.290        27
36.300        13
36.310         7
36.320        20
36.330        20
36.340         7
36.350        20
36.360        20
36.370        13
36.380        27
36.390        20
36.400        13
36.410        20
36.420        47
36.430        33
36.440        40
36.450        27
36.460        40
36.470        33
36.480        20
36.490        33
36.500        47
36.510        47
36.520        33
36.530        80
36.540        33
36.550        53
36.560        20
36.570        40
36.580        27
36.590        40
36.600        13
36.610        33
36.620        33
36.630        33
36.640        33
36.650        20
36.660        47
36.670        47
36.680         7
36.690        47
36.700        20
36.710        33
36.720        27
36.730        27
36.740        27
36.750        33
36.760         7
36.770        40
36.780        13
36.790        27
36.800        20
36.810        20
36.820        27
36.830        27
36.840         0
36.850        40
36.860        53
36.870        47
36.880        33
36.890         7
36.900        27
36.910         7
36.920        13
36.930        20
36.940        33
36.950        20
36.960        20
36.970        40
36.980        40
36.990        13
37.000        27
37.010        13
37.020        20
37.030        33
37.040        13
37.050        27
37.060        20
37.070         7
37.080        13
37.090        33
37.100        13
37.110        40
37.120        27
37.130        20
37.140        13
37.150         0
37.160        13
37.170        20
37.180         0
37.190        27
37.200        33
37.210         7
37.220        33
37.230        27
37.240        13
37.250         7
37.260        13
37.270         7
37.280        33
37.290        20
37.300        27
37.310        27
37.320        20
37.330        20
37.340        13
37.350        20
37.360        33
37.370        27
37.380        20
37.390         0
37.400        27
37.410        20
37.420        13
37.430        20
37.440        13
37.450        13
37.460        13
37.470        20
37.480        20
37.490        13
37.500        27
37.510        13
37.520         7
37.530         0
37.540         0
37.550        13
37.560        13
37.570         7
37.580         7
37.590        20
37.600        13
37.610        13
37.620        33
37.630        13
37.640        13
37.650        33
37.660        13
37.670        27
37.680        33
37.690        53
37.700        20
37.710        20
37.720        20
37.730        20
37.740        40
37.750        27
37.760        20
37.770        40
37.780         7
37.790        20
37.800        27
37.810        20
37.820        27
37.830        13
37.840         7
37.850        20
37.860        20
37.870        20
37.880        13
37.890        20
37.900        20
37.910        47
37.920        13
37.930        47
37.940         7
37.950         0
37.960        47
37.970        27
37.980        13
37.990        33
38.000        20
38.010        40
38.020        20
38.030        13
38.040         7
38.050        20
38.060        13
38.070        27
38.080        40
38.090         7
38.100        27
38.110        20
38.120        20
38.130        20
38.140        27
38.150        33
38.160        33
38.170        20
38.180        40
38.190        33
38.200        13
38.210         7
38.220        27
38.230        27
38.240        27
38.250        27
38.260        67
38.270        13
38.280        27
38.290        40
38.300        47
38.310        40
38.320        13
38.330        20
38.340        47
38.350        33
38.360        73
38.370        53
38.380        47
38.390        47
38.400        20
38.410        33
38.420        20
38.430        47
38.440         7
38.450        93
38.460        40
38.470        47
38.480        47
38.490        33
38.500        33
38.510        40
38.520        53
38.530        33
38.540        40
38.550        20
38.560        33
38.570        53
38.580        53
38.590        53
38.600        27
38.610        20
38.620        33
38.630        33
38.640        40
38.650        40
38.660        27
38.670        53
38.680        33
38.690        47
38.700        20
38.710        27
38.720        47
38.730        13
38.740        20
38.750        40
38.760        40
38.770        53
38.780        47
38.790        27
38.800        47
38.810        47
38.820        60
38.830        27
38.840        40
38.850        40
38.860        27
38.870        13
38.880        20
38.890        27
38.900        20
38.910        33
38.920        27
38.930        20
38.940        53
38.950        60
38.960        33
38.970        33
38.980        47
38.990        47
39.000        27
39.010        20
39.020        20
39.030        20
39.040         7
39.050        33
39.060        40
39.070        40
39.080        13
39.090        20
39.100        20
39.110        13
39.120        13
39.130        20
39.140         7
39.150        13
39.160        33
39.170        13
39.180         7
39.190         7
39.200        33
39.210        33
39.220        20
39.230         7
39.240         7
39.250        27
39.260         0
39.270        20
39.280        40
39.290        40
39.300        27
39.310        13
39.320        13
39.330        13
39.340        20
39.350        20
39.360        27
39.370        13
39.380         7
39.390        20
39.400        13
39.410        27
39.420        13
39.430        13
39.440         7
39.450        33
39.460         7
39.470        13
39.480         7
39.490         7
39.500        13
39.510        13
39.520        13
39.530        27
39.540        13
39.550        13
39.560        27
39.570        33
39.580        27
39.590        27
39.600        20
39.610        20
39.620        20
39.630        20
39.640        27
39.650        20
39.660        13
39.670         7
39.680         7
39.690        20
39.700        13
39.710        20
39.720        20
39.730        27
39.740        53
39.750        20
39.760        33
39.770         0
39.780        13
39.790        13
39.800        20
39.810        13
39.820        20
39.830         7
39.840        13
39.850        13
39.860        13
39.870         0
39.880        27
39.890        20
39.900        13
39.910        27
39.920        13
39.930        27
39.940         7
39.950        27
39.960        33
39.970        40
39.980        20
39.990         7
40.000        27
40.010        13
40.020        20
40.030        40
40.040        13
40.050         7
40.060        13
40.070        20
40.080        13
40.090        27
40.100        20
40.110        40
40.120        53
40.130        27
40.140        47
40.150        33
40.160        53
40.170        33
40.180        27
40.190        47
40.200        27
40.210         7
40.220        20
40.230        13
40.240         0
40.250        27
40.260        47
40.270        33
40.280        33
40.290        20
40.300        27
40.310        53
40.320        47
40.330        60
40.340        40
40.350        47
40.360        33
40.370        20
40.380        53
40.390        47
40.400        27
40.410        40
40.420        67
40.430        27
40.440         0
40.450        33
40.460         7
40.470        13
40.480        67
40.490        40
40.500        13
40.510        33
40.520        13
40.530        33
40.540        27
40.550        13
40.560        20
40.570         7
40.580        20
40.590        20
40.600        47
40.610        20
40.620        20
40.630        27
40.640        33
40.650        13
40.660         7
40.670         0
40.680        27
40.690        40
40.700         7
40.710        13
40.720        27
40.730        20
40.740        20
40.750        20
40.760         7
40.770         7
40.780        27
40.790        13
40.800        13
40.810        27
40.820        47
40.830        13
40.840        33
40.850        27
40.860        13
40.870        13
40.880         7
40.890        20
40.900        33
40.910        27
40.920        20
40.930        27
40.940        13
40.950        27
40.960        27
40.970        20
40.980         7
40.990        13
41.000        20
41.010        20
41.020        40
41.030        27
41.040         7
41.050         7
41.060        20
41.070        13
41.080        27
41.090        20
41.100         7
41.110         0
41.120        20
41.130        27
41.140         0
41.150        33
41.160        13
41.170         7
41.180         7
41.190        27
41.200        27
41.210        20
41.220        33
41.230         7
41.240        20
41.250        13
41.260        20
41.270        13
41.280        13
41.290         0
41.300        33
41.310         0
41.320        27
41.330        13
41.340        13
41.350         0
41.360        33
41.370        13
41.380        13
41.390        20
41.400         7
41.410        20
41.420        33
41.430         7
41.440        33
41.450        33
41.460        20
41.470         7
41.480        27
41.490        27
41.500        13
41.510        13
41.520         7
41.530        27
41.540        13
41.550        27
41.560        13
41.570        27
41.580        13
41.590        33
41.600        53
41.610        13
41.620         7
41.630        33
41.640        20
41.650        20
41.660         7
41.670        20
41.680        33
41.690        20
41.700        13
41.710        27
41.720        13
41.730         0
41.740        33
41.750        13
41.760        27
41.770        33
41.780        13
41.790         7
41.800        33
41.810         0
41.820         7
41.830         0
41.840        40
41.850         7
41.860         7
41.870        33
41.880        13
41.890        47
41.900        27
41.910        20
41.920        20
41.930        13
41.940        13
41.950        33
41.960        33
41.970         7
41.980        40
41.990        20
42.000        40
42.010        27
42.020        40
42.030        20
42.040        40
42.050        27
42.060        20
42.070        27
42.080        53
42.090        33
42.100        40
42.110        87
42.120        20
42.130        47
42.140        60
42.150        60
42.160        40
42.170        80
42.180        67
42.190        80
42.200        67
42.210       100
42.220        47
42.230        73
42.240        67
42.250        87
42.260        53
42.270        67
42.280        67
42.290        87
42.300        93
42.310        20
42.320        53
42.330        53
42.340        47
42.350        47
42.360        53
42.370        40
42.380        80
42.390        40
42.400        40
42.410        27
42.420        33
42.430        27
42.440        27
42.450        20
42.460        47
42.470        40
42.480        80
42.490        40
42.500        13
42.510         7
42.520        33
42.530        40
42.540        53
42.550        40
42.560        33
42.570        40
42.580        33
42.590        13
42.600        20
42.610        33
42.620        27
42.630        13
42.640        20
42.650        20
42.660        47
42.670         7
42.680        20
42.690        33
42.700        20
42.710        13
42.720        53
42.730        60
42.740        13
42.750        40
42.760        20
42.770        40
42.780        20
42.790        33
42.800        33
42.810        27
42.820        47
42.830        20
42.840        27
42.850        40
42.860        33
42.870        33
42.880        20
42.890        20
42.900        27
42.910        33
42.920        27
42.930        13
42.940        33
42.950         0
42.960        13
42.970        27
42.980        33
42.990        13
43.000        40
43.010        40
43.020        27
43.030        27
43.040         7
43.050        13
43.060        20
43.070        40
43.080        20
43.090        27
43.100        40
43.110        27
43.120        33
43.130        33
43.140        27
43.150        20
43.160        33
43.170        33
43.180         7
43.190        33
43.200         7
43.210        47
43.220        13
43.230        13
43.240        20
43.250        13
43.260        27
43.270        27
43.280        27
43.290        40
43.300        47
43.310        20
43.320        40
43.330        20
43.340        27
43.350         7
43.360        13
43.370         7
43.380        40
43.390        20
43.400        13
43.410        13
43.420        13
43.430        20
43.440        20
43.450        20
43.460        27
43.470        33
43.480        40
43.490         0
43.500         7
43.510        13
43.520        13
43.530        27
43.540        20
43.550        33
43.560        13
43.570        33
43.580        20
43.590        20
43.600       107
43.610        33
43.620        13
43.630        20
43.640        27
43.650        20
43.660        20
43.670        20
43.680        33
43.690         7
43.700        33
43.710        67
43.720        27
43.730        27
43.740        47
43.750        40
43.760        27
43.770        20
43.780        40
43.790        27
43.800        20
43.810        13
43.820        53
43.830        33
43.840        27
43.850        27
43.860        27
43.870        33
43.880        27
43.890         7
43.900        13
43.910        33
43.920         0
43.930         7
43.940        20
43.950        33
43.960        13
43.970        20
43.980        13
43.990        27
44.000         7
44.010         7
44.020         0
44.030        20
44.040         7
44.050        13
44.060        40
44.070        13
44.080        20
44.090        20
44.100        13
44.110         7
44.120        40
44.130         0
44.140        13
44.150        13
44.160         7
44.170        13
44.180        40
44.190         7
44.200         7
44.210        27
44.220        27
44.230        53
44.240         7
44.250        20
44.260        40
44.270        40
44.280        33
44.290        27
44.300       107
44.310        27
44.320        20
44.330         7
44.340        13
44.350        27
44.360        33
44.370         7
44.380        33
44.390        13
44.400        27
44.410        40
44.420        47
44.430        40
44.440        47
44.450        40
44.460        27
44.470        33
44.480        47
44.490        27
44.500        13
44.510        27
44.520        33
44.530         7
44.540        27
44.550        27
44.560        40
44.570        20
44.580        13
44.590        40
44.600        27
44.610         0
44.620        27
44.630        27
44.640        20
44.650        13
44.660        33
44.670         7
44.680         7
44.690        40
44.700        27
44.710        33
44.720        20
44.730        27
44.740        20
44.750         7
44.760        67
44.770        27
44.780        47
44.790        33
44.800        20
44.810        27
44.820         0
44.830        13
44.840         7
44.850         7
44.860        13
44.870        13
44.880        33
44.890        33
44.900        13
44.910        13
44.920        40
44.930        20
44.940        20
44.950        27
44.960        27
44.970        13
44.980         7
44.990         7
45.000        27
45.010        13
45.020         0
45.030        47
45.040        20
45.050        33
45.060         7
45.070         7
45.080        33
45.090        27
45.100         7
45.110        20
45.120        27
45.130        47
45.140        27
45.150        20
45.160        13
45.170         7
45.180        27
45.190        20
45.200         0
45.210        27
45.220        13
45.230        20
45.240        27
45.250        27
45.260        27
45.270        13
45.280        27
45.290        13
45.300        40
45.310        13
45.320        20
45.330         7
45.340        27
45.350        40
45.360        13
45.370         7
45.380        27
45.390        13
45.400         0
45.410        33
45.420        27
45.430        13
45.440        20
45.450        33
45.460         7
45.470        13
45.480         7
45.490        20
45.500         7
45.510        47
45.520        27
45.530        13
45.540        13
45.550        27
45.560         7
45.570        13
45.580        20
45.590        47
45.600        27
45.610         7
45.620        33
45.630        13
45.640        13
45.650         7
45.660        13
45.670        53
45.680        33
45.690        47
45.700        27
45.710        27
45.720        13
45.730        20
45.740        40
45.750        27
45.760        73
45.770        87
45.780        73
45.790        60
45.800       153
45.810       100
45.820        40
45.830       127
45.840       133
45.850       180
45.860       100
45.870       160
45.880       187
45.890       187
45.900       193
45.910       240
45.920       187
45.930       227
45.940       180
45.950       173
45.960       167
45.970       213
45.980       253
45.990       233
46.000       233
46.010       173
46.020       287
46.030       213
46.040       173
46.050       193
46.060       153
46.070       213
46.080       127
46.090       187
46.100       187
46.110       187
46.120       120
46.130       107
46.140       153
46.150       153
46.160        80
46.170       127
46.180       133
46.190       120
46.200       107
46.210        87
46.220        80
46.230        87
46.240        73
46.250        60
46.260        87
46.270        93
46.280        60
46.290       107
46.300        60
46.310        47
46.320        33
46.330        60
46.340        47
46.350        47
46.360        33
46.370        40
46.380        47
46.390        60
46.400        20
46.410        47
46.420        20
46.430        13
46.440        27
46.450        33
46.460        40
46.470        33
46.480        13
46.490        33
46.500        33
46.510        33
46.520        13
46.530        27
46.540        13
46.550        27
46.560        33
46.570        33
46.580        33
46.590        27
46.600        27
46.610        20
46.620        27
46.630        20
46.640        60
46.650        33
46.660        13
46.670        40
46.680        13
46.690        13
46.700        47
46.710        27
46.720        33
46.730        20
46.740        20
46.750        33
46.760        20
46.770        47
46.780        47
46.790        33
46.800        40
46.810        33
46.820        33
46.830        33
46.840        73
46.850        33
46.860        33
46.870        27
46.880        20
46.890        40
46.900        33
46.910        33
46.920        27
46.930        27
46.940        27
46.950        47
46.960        53
46.970        33
46.980        40
46.990        20
47.000        13
47.010        40
47.020        47
47.030        53
47.040        20
47.050        20
47.060        27
47.070        47
47.080        20
47.090        20
47.100         7
47.110        53
47.120        13
47.130        27
47.140        13
47.150        40
47.160        13
47.170        13
47.180        13
47.190        20
47.200        20
47.210        13
47.220         7
47.230        13
47.240        20
47.250        40
47.260        13
47.270         0
47.280         7
47.290         7
47.300        13
47.310        13
47.320        40
47.330        27
47.340         7
47.350        13
47.360        13
47.370        47
47.380        13
47.390        40
47.400        20
47.410        27
47.420        13
47.430        13
47.440         7
47.450         7
47.460         0
47.470        13
47.480        33
47.490         7
47.500        33
47.510        13
47.520        13
47.530        20
47.540        20
47.550        27
47.560        33
47.570        27
47.580        20
47.590        27
47.600        27
47.610         0
47.620        27
47.630         0
47.640        27
47.650         0
47.660        27
47.670         7
47.680        13
47.690        27
47.700        13
47.710        13
47.720        40
47.730        13
47.740        20
47.750        33
47.760        13
47.770        40
47.780        27
47.790        13
47.800        27
47.810        33
47.820        20
47.830         7
47.840        27
47.850        20
47.860        20
47.870        20
47.880        20
47.890        33
47.900         0
47.910        47
47.920        20
47.930        27
47.940         0
47.950        47
47.960         7
47.970         0
47.980        13
47.990        47
48.000         7
48.010         7
48.020        13
48.030        33
48.040        13
48.050         0
48.060        13
48.070         7
48.080        20
48.090        20
48.100        33
48.110        20
48.120        33
48.130        60
48.140        40
48.150        13
48.160        20
48.170        40
48.180        20
48.190        13
48.200        13
48.210        20
48.220         7
48.230        40
48.240        27
48.250        47
48.260        20
48.270        13
48.280        13
48.290        47
48.300        13
48.310         7
48.320        33
48.330         7
48.340         7
48.350        33
48.360        27
48.370        27
48.380        20
48.390        33
48.400         7
48.410        33
48.420        33
48.430        47
48.440        13
48.450        20
48.460        20
48.470         7
48.480        20
48.490        20
48.500         7
48.510        33
48.520        40
48.530        13
48.540        33
48.550        27
48.560        20
48.570        40
48.580        27
48.590         7
48.600         7
48.610        13
48.620        27
48.630        27
48.640        27
48.650        33
48.660        13
48.670        47
48.680        33
48.690        40
48.700        27
48.710        33
48.720         0
48.730        40
48.740        13
48.750        47
48.760        20
48.770        47
48.780        47
48.790        13
48.800        20
48.810        27
48.820        27
48.830        40
48.840        60
48.850        60
48.860        60
48.870        87
48.880        73
48.890        73
48.900        80
48.910        87
48.920        73
48.930       120
48.940        80
48.950       113
48.960        67
48.970       127
48.980        87
48.990        93
49.000        73
49.010        80
49.020        53
49.030        93
49.040        87
49.050        80
49.060        87
49.070        67
49.080        73
49.090       100
49.100       127
49.110        67
49.120        87
49.130       100
49.140        93
49.150        60
49.160        60
49.170        27
49.180        27
49.190        47
49.200        73
49.210        40
49.220        73
49.230        27
49.240        13
49.250        40
49.260        33
49.270        53
49.280        27
49.290        20
49.300        40
49.310        20
49.320        27
49.330        47
49.340        40
49.350        47
49.360         0
49.370        13
49.380        40
49.390        27
49.400        20
49.410        47
49.420        20
49.430        20
49.440        27
49.450        20
49.460         7
49.470        33
49.480        33
49.490        20
49.500        20
49.510        27
49.520        20
49.530        27
49.540        20
49.550        40
49.560        20
49.570        40
49.580        20
49.590        33
49.600        20
49.610        20
49.620        13
49.630         7
49.640        20
49.650        27
49.660        27
49.670        33
49.680        27
49.690        27
49.700        33
49.710        20
49.720        33
49.730        33
49.740        53
49.750        67
49.760        33
49.770        47
49.780        40
49.790        13
49.800        40
49.810        20
49.820        73
49.830        87
49.840        40
49.850        60
49.860        40
49.870        27
49.880        80
49.890        67
49.900        80
49.910        87
49.920        60
49.930       100
49.940        93
49.950       120
49.960        60
49.970        93
49.980       127
49.990        73
50.000        80
50.010        80
50.020        73
50.030        87
50.040        67
50.050        93
50.060        40
50.070        53
50.080       100
50.090        20
50.100        60
50.110        60
50.120        27
50.130        60
50.140        47
50.150        87
50.160        60
50.170        87
50.180        47
50.190        33
50.200        47
50.210        40
50.220        53
50.230        33
50.240        33
50.250        60
50.260        47
50.270        73
50.280        33
50.290        53
50.300        40
50.310        40
50.320        13
50.330        47
50.340        33
50.350        40
50.360        53
50.370        53
50.380        33
50.390        20
50.400        27
50.410        53
50.420        20
50.430        27
50.440        20
50.450        53
50.460        47
50.470        13
50.480        20
50.490        47
50.500        27
50.510        40
50.520        27
50.530        60
50.540        47
50.550        20
50.560        53
50.570        47
50.580        20
50.590        20
50.600        27
50.610        27
50.620        13
50.630        27
50.640        27
50.650        27
50.660        20
50.670        47
50.680        27
50.690        13
50.700        20
50.710        53
50.720        13
50.730        40
50.740        47
50.750         7
50.760        13
50.770        33
50.780        20
50.790        13
50.800        13
50.810         0
50.820        33
50.830        33
50.840        33
50.850        20
50.860        40
50.870        33
50.880        40
50.890        13
50.900        20
50.910         0
50.920        80
50.930        27
50.940        20
50.950        40
50.960        13
50.970        60
50.980        27
50.990        53
51.000        27
51.010        20
51.020        33
51.030        20
51.040        33
51.050        33
51.060        20
51.070        27
51.080        20
51.090        33
51.100        33
51.110        27
51.120        13
51.130        40
51.140         7
51.150        27
51.160        40
51.170        20
51.180        33
51.190        13
51.200        27
51.210        47
51.220        40
51.230        27
51.240        27
51.250        20
51.260         7
51.270        27
51.280        40
51.290        27
51.300        33
51.310        27
51.320        20
51.330        20
51.340        27
51.350         7
51.360        47
51.370        20
51.380        27
51.390        13
51.400        33
51.410        40
51.420        33
51.430        33
51.440        40
51.450        27
51.460        13
51.470        47
51.480        33
51.490        33
51.500        27
51.510        67
51.520        80
51.530        40
51.540        27
51.550        13
51.560        47
51.570        73
51.580        53
51.590        53
51.600        80
51.610        40
51.620        47
51.630        60
51.640        40
51.650        73
51.660        93
51.670       107
51.680       120
51.690        67
51.700        73
51.710       100
51.720       127
51.730        93
51.740       120
51.750       107
51.760        87
51.770       133
51.780       147
51.790       147
51.800       147
51.810       147
51.820       187
51.830       147
51.840       127
51.850       167
51.860       127
51.870       120
51.880       153
51.890       127
51.900       167
51.910       147
51.920       120
51.930       147
51.940       127
51.950       173
51.960       180
51.970       113
51.980       167
51.990       200
52.000       160
52.010       180
52.020       127
52.030        87
52.040       113
52.050       107
52.060       180
52.070       120
52.080       127
52.090       127
52.100       100
52.110        73
52.120       127
52.130       127
52.140       100
52.150       113
52.160        80
52.170        80
52.180        53
52.190       100
52.200        60
52.210        60
52.220        80
52.230        73
52.240        47
52.250        67
52.260        60
52.270        40
52.280        67
52.290        47
52.300        87
52.310        47
52.320        40
52.330        93
52.340        40
52.350        40
52.360        20
52.370        60
52.380        20
52.390        53
52.400        47
52.410        20
52.420        27
52.430        33
52.440        87
52.450        27
52.460        27
52.470        53
52.480        40
52.490        40
52.500        40
52.510        27
52.520        27
52.530        60
52.540        53
52.550        67
52.560        67
52.570        93
52.580        40
52.590        47
52.600        87
52.610        33
52.620        47
52.630        27
52.640        87
52.650        53
52.660        53
52.670        60
52.680        47
52.690        40
52.700        93
52.710        53
52.720        53
52.730        73
52.740        33
52.750        40
52.760        53
52.770        53
52.780        47
52.790        67
52.800        27
52.810        20
52.820        47
52.830        60
52.840        13
52.850        40
52.860        60
52.870        20
52.880        67
52.890        60
52.900        33
52.910        33
52.920        73
52.930        27
52.940        47
52.950        33
52.960        27
52.970        27
52.980        53
52.990        13
53.000        20
53.010        53
53.020        40
53.030        47
53.040        47
53.050        67
53.060        20
53.070        53
53.080        33
53.090        13
53.100        40
53.110        73
53.120        20
53.130        20
53.140        40
53.150        73
53.160        13
53.170        27
53.180        20
53.190        60
53.200        20
53.210        40
53.220        27
53.230        53
53.240        33
53.250        27
53.260        67
53.270        27
53.280        27
53.290        40
53.300        47
53.310        20
53.320        20
53.330        40
53.340         0
53.350        27
53.360        33
53.370        20
53.380        20
53.390        27
53.400        33
53.410        40
53.420        20
53.430        33
53.440        33
53.450        27
53.460        20
53.470        33
53.480        27
53.490        13
53.500        40
53.510        67
53.520        20
53.530        33
53.540        27
53.550        27
53.560        33
53.570        13
53.580        33
53.590        40
53.600         0
53.610        33
53.620        33
53.630        33
53.640        40
53.650        53
53.660        33
53.670        33
53.680        40
53.690        27
53.700        33
53.710        27
53.720        27
53.730        27
53.740        20
53.750        20
53.760        27
53.770        27
53.780        33
53.790        20
53.800        20
53.810        20
53.820         7
53.830        13
53.840        27
53.850        33
53.860        20
53.870        20
53.880        20
53.890        20
53.900        20
53.910        13
53.920        47
53.930        47
53.940        20
53.950        27
53.960        40
53.970        33
53.980         7
53.990        13
54.000         7
54.010        20
54.020        13
54.030        33
54.040        13
54.050        53
54.060        20
54.070        27
54.080        33
54.090        20
54.100        20
54.110         7
54.120        27
54.130        20
54.140        33
54.150        40
54.160        47
54.170        20
54.180        13
54.190        13
54.200        13
54.210        20
54.220         7
54.230        40
54.240        27
54.250        33
54.260        53
54.270        40
54.280         0
54.290        53
54.300        20
54.310        40
54.320        13
54.330        20
54.340        33
54.350        40
54.360        13
54.370        20
54.380        20
54.390        40
54.400        13
54.410        53
54.420        13
54.430         7
54.440        27
54.450        27
54.460        67
54.470        13
54.480        40
54.490        40
54.500        13
54.510        20
54.520        60
54.530        20
54.540        20
54.550        27
54.560        53
54.570        20
54.580        40
54.590         0
54.600        80
54.610        13
54.620        40
54.630        20
54.640        20
54.650        53
54.660        33
54.670        20
54.680        13
54.690        27
54.700        53
54.710        27
54.720        73
54.730        20
54.740        73
54.750        40
54.760        53
54.770        53
54.780        40
54.790        47
54.800        47
54.810        53
54.820        60
54.830        40
54.840        40
54.850        40
54.860        33
54.870        67
54.880        33
54.890        47
54.900        27
54.910        33
54.920        47
54.930        40
54.940        53
54.950        40
54.960        53
54.970        20
54.980        67
54.990        20
55.000        40
55.010        40
55.020        53
55.030        20
55.040        13
55.050        40
55.060        20
55.070        53
55.080        33
55.090        33
55.100        60
55.110        20
55.120        27
55.130        40
55.140        27
55.150        27
55.160        33
55.170         7
55.180        27
55.190        20
55.200        20
55.210        20
55.220        13
55.230        13
55.240         7
55.250        27
55.260         0
55.270        27
55.280        20
55.290        13
55.300         7
55.310        20
55.320        27
55.330        27
55.340         7
55.350         7
55.360         0
55.370        40
55.380        13
55.390        20
55.400        20
55.410        27
55.420        13
55.430         7
55.440         7
55.450        47
55.460         7
55.470        27
55.480        13
55.490        27
55.500        13
55.510        33
55.520        20
55.530        33
55.540        27
55.550        20
55.560        13
55.570        13
55.580        20
55.590         0
55.600         0
55.610        33
55.620        33
55.630        13
55.640        27
55.650        13
55.660        40
55.670        13
55.680        13
55.690        27
55.700        20
55.710        13
55.720        13
55.730        40
55.740        33
55.750        13
55.760        13
55.770        13
55.780        13
55.790        27
55.800        33
55.810        27
55.820        13
55.830        13
55.840        27
55.850        20
55.860        20
55.870        20
55.880        20
55.890         7
55.900        40
55.910        53
55.920        40
55.930         7
55.940        47
55.950        27
55.960        20
55.970        13
55.980        40
55.990        20
56.000        20
56.010        53
56.020        40
56.030        33
56.040        47
56.050        40
56.060        53
56.070        33
56.080        27
56.090        47
56.100        33
56.110        20
56.120        47
56.130        27
56.140        47
56.150        47
56.160        40
56.170        33
56.180        27
56.190        27
56.200        47
56.210        40
56.220        60
56.230        33
56.240        13
56.250        47
56.260        47
56.270        73
56.280        40
56.290        33
56.300        27
56.310        67
56.320        67
56.330        47
56.340        13
56.350        33
56.360        33
56.370        40
56.380        33
56.390        53
56.400        13
56.410        20
56.420        33
56.430        80
56.440        53
56.450         0
56.460        33
56.470        20
56.480        13
56.490        27
56.500        20
56.510        33
56.520        33
56.530         7
56.540         0
56.550        27
56.560         7
56.570        13
56.580        27
56.590        33
56.600        53
56.610        13
56.620        27
56.630        33
56.640        27
56.650        33
56.660        20
56.670        13
56.680        33
56.690        20
56.700        13
56.710        13
56.720        33
56.730        40
56.740        20
56.750         7
56.760         0
56.770        20
56.780         7
56.790        20
56.800         0
56.810         7
56.820        13
56.830        13
56.840        20
56.850        27
56.860        33
56.870         0
56.880        33
56.890        20
56.900         0
56.910         0
56.920        13
56.930         7
56.940        27
56.950        13
56.960        13
56.970         7
56.980        27
56.990         7
57.000        27
57.010        27
57.020        20
57.030        20
57.040        33
57.050        20
57.060        20
57.070         7
57.080        20
57.090        13
57.100        13
57.110        20
57.120        33
57.130        13
57.140        13
57.150        13
57.160        13
57.170        13
57.180        20
57.190        13
57.200        13
57.210        20
57.220        33
57.230        20
57.240        27
57.250        13
57.260        13
57.270         7
57.280        13
57.290         7
57.300         7
57.310        47
57.320        20
57.330        20
57.340        33
57.350         7
57.360        13
57.370        27
57.380        27
57.390        33
57.400        27
57.410        27
57.420        27
57.430        20
57.440        13
57.450        20
57.460        20
57.470        33
57.480        20
57.490        27
57.500        13
57.510        13
57.520        40
57.530        33
57.540        13
57.550         0
57.560        40
57.570        27
57.580        27
57.590         7
57.600        20
57.610         0
57.620        33
57.630        20
57.640         7
57.650        20
57.660        27
57.670        33
57.680       100
57.690        13
57.700        33
57.710        27
57.720         7
57.730        13
57.740        27
57.750        27
57.760        27
57.770        47
57.780        27
57.790         7
57.800        20
57.810         7
57.820        20
57.830         7
57.840        13
57.850        20
57.860        20
57.870        20
57.880        20
57.890        47
57.900        40
57.910        20
57.920        20
57.930        33
57.940        13
57.950         7
57.960         7
57.970        20
57.980        47
57.990        53
58.000        40
58.010        13
58.020        33
58.030        27
58.040        13
58.050        33
58.060         7
58.070        13
58.080        33
58.090        33
58.100        33
58.110         7
58.120         7
58.130        40
58.140        20
58.150        27
58.160        27
58.170        13
58.180        27
58.190        47
58.200         7
58.210        33
58.220        33
58.230        33
58.240        13
58.250        33
58.260        20
58.270        13
58.280        20
58.290        20
58.300        20
58.310        13
58.320        13
58.330         0
58.340        40
58.350        40
58.360        13
58.370        73
58.380        33
58.390        20
58.400        13
58.410         0
58.420        27
58.430        13
58.440        40
58.450        53
58.460        20
58.470         0
58.480        27
58.490        13
58.500        27
58.510        13
58.520        20
58.530         0
58.540         7
58.550        20
58.560        27
58.570        33
58.580        13
58.590        40
58.600        20
58.610        13
58.620        33
58.630        13
58.640        20
58.650        20
58.660        27
58.670         7
58.680        13
58.690         7
58.700         7
58.710        20
58.720        13
58.730        20
58.740        27
58.750         7
58.760         7
58.770         7
58.780        20
58.790         7
58.800        13
58.810         7
58.820         7
58.830        40
58.840        20
58.850         0
58.860         7
58.870        20
58.880        13
58.890        13
58.900         7
58.910         0
58.920         7
58.930        27
58.940        13
58.950        13
58.960        53
58.970        13
58.980       173
58.990        27
59.000        27
59.010         7
59.020        27
59.030        20
59.040         7
59.050        27
59.060         7
59.070         7
59.080        13
59.090        20
59.100        27
59.110        13
59.120        33
59.130        20
59.140        47
59.150        20
59.160        20
59.170        13
59.180        13
59.190        13
59.200         7
59.210         7
59.220        13
59.230        33
59.240        27
59.250        13
59.260         7
59.270         0
59.280        40
59.290        33
59.300        20
59.310        27
59.320        13
59.330        20
59.340        33
59.350        20
59.360        67
59.370        53
59.380        27
59.390        47
59.400        13
59.410        27
59.420        27
59.430        33
59.440        20
59.450        47
59.460        13
59.470        33
59.480        27
59.490        40
59.500        40
59.510        40
59.520        13
59.530        33
59.540        47
59.550        40
59.560        20
59.570        47
59.580        33
59.590        47
59.600        13
59.610        27
59.620        47
59.630        27
59.640        27
59.650        27
59.660        33
59.670        20
59.680        20
59.690        53
59.700        33
59.710        33
59.720        67
59.730        33
59.740        27
59.750        20
59.760        40
59.770        53
59.780         7
59.790        40
59.800        40
59.810        27
59.820        47
59.830        60
59.840        20
59.850        13
59.860        27
59.870        80
59.880        20
59.890        27
59.900        13
59.910         7
59.920        13
59.930        20
59.940        40
59.950        27
59.960        33
59.970        27
59.980        13
59.990        27
60.000        20
