20.000        40
20.010        40
20.020        53
20.030        47
20.040        47
20.050        47
20.060        33
20.070        33
20.080        47
20.090        67
20.100        60
20.110        67
20.120        47
20.130        40
20.140        33
20.150        27
20.160        40
20.170        27
20.180        60
20.190        40
20.200        87
20.210        27
20.220        13
20.230        60
20.240        20
20.250        60
20.260        20
20.270        33
20.280        20
20.290        60
20.300        20
20.310        60
20.320        53
20.330        40
20.340        33
20.350        40
20.360        33
20.370        47
20.380        20
20.390        13
20.400        73
20.410        53
20.420        87
20.430        53
20.440        40
20.450        73
20.460        33
20.470        33
20.480        40
20.490        67
20.500        47
20.510        33
20.520        27
20.530        33
20.540        47
20.550        73
20.560        27
20.570        40
20.580        40
20.590        67
20.600        73
20.610        27
20.620        33
20.630        33
20.640        67
20.650        47
20.660         7
20.670        27
20.680        20
20.690        33
20.700        33
20.710        40
20.720        40
20.730        33
20.740        20
20.750        20
20.760        27
20.770        47
20.780        73
20.790        47
20.800        33
20.810        27
20.820        40
20.830        60
20.840        33
20.850        47
20.860        33
20.870        53
20.880        40
20.890        27
20.900        33
20.910        40
20.920        67
20.930        20
20.940        60
20.950        60
20.960        33
20.970        53
20.980        60
20.990        33
21.000        27
21.010         7
21.020        27
21.030        60
21.040        20
21.050        53
21.060        33
21.070        47
21.080        53
21.090        73
21.100        53
21.110        40
21.120        27
21.130        67
21.140        53
21.150        53
21.160        27
21.170        53
21.180        40
21.190        47
21.200        33
21.210        33
21.220        33
21.230        60
21.240         7
21.250        33
21.260        20
21.270        33
21.280        27
21.290        60
21.300        33
21.310        47
21.320        73
21.330        33
21.340        27
21.350        27
21.360        67
21.370        40
21.380        40
21.390        80
21.400        27
21.410        73
21.420        47
21.430        67
21.440        60
21.450        47
21.460        73
21.470        47
21.480        60
21.490        67
21.500        40
21.510        67
21.520        47
21.530        13
21.540        40
21.550        20
21.560        27
21.570        20
21.580        33
21.590        47
21.600        20
21.610        20
21.620        27
21.630        33
21.640        67
21.650        27
21.660        60
21.670        53
21.680        60
21.690        60
21.700        40
21.710        40
21.720        27
21.730        67
21.740        20
21.750        20
21.760         7
21.770        53
21.780        20
21.790        40
21.800        40
21.810        27
21.820        27
21.830        40
21.840        27
21.850        33
21.860        47
21.870        60
21.880        33
21.890        13
21.900        40
21.910        40
21.920        47
21.930        53
21.940        33
21.950        53
21.960        40
21.970        20
21.980        20
21.990        27
22.000        47
22.010        27
22.020        40
22.030        40
22.040        80
22.050        27
22.060        47
22.070        13
22.080        27
22.090        53
22.100        20
22.110        40
22.120        27
22.130        27
22.140        60
22.150        27
22.160        67
22.170        47
22.180        47
22.190        33
22.200        27
22.210        33
22.220        53
22.230        13
22.240        73
22.250        40
22.260        20
22.270        27
22.280        53
22.290        33
22.300        47
22.310        60
22.320        60
22.330        47
22.340        67
22.350        67
22.360        33
22.370        53
22.380        47
22.390        60
22.400        60
22.410        73
22.420        47
22.430        40
22.440        80
22.450        60
22.460        33
22.470        60
22.480       100
22.490        60
22.500        73
22.510        67
22.520        67
22.530        93
22.540        40
22.550        87
22.560       133
22.570        53
22.580       100
22.590        73
22.600       100
22.610       147
22.620        47
22.630        87
22.640       160
22.650        93
22.660        93
22.670        87
22.680       107
22.690        67
22.700       127
22.710        87
22.720       127
22.730       120
22.740       100
22.750       160
22.760        87
22.770       147
22.780       160
22.790       147
22.800       240
22.810       247
22.820       253
22.830       307
22.840       307
22.850       327
22.860       320
22.870       360
22.880       387
22.890       393
22.900       360
22.910       407
22.920       347
22.930       413
22.940       320
22.950       267
22.960       233
22.970       233
22.980       233
22.990       193
23.000       200
23.010       147
23.020        80
23.030       147
23.040        80
23.050        93
23.060        87
23.070        40
23.080        93
23.090        60
23.100        53
23.110        67
23.120       113
23.130        47
23.140        47
23.150        40
23.160        53
23.170        53
23.180        53
23.190        40
23.200        27
23.210        47
23.220        27
23.230        20
23.240        40
23.250        47
23.260        47
23.270        53
23.280        33
23.290        67
23.300        40
23.310        20
23.320        53
23.330        40
23.340        20
23.350        67
23.360        40
23.370        40
23.380         0
23.390        67
23.400        73
23.410        27
23.420        47
23.430        47
23.440        40
23.450        40
23.460        27
23.470        67
23.480        33
23.490        33
23.500        13
23.510        40
23.520        33
23.530        13
23.540        20
23.550        27
23.560        27
23.570        20
23.580        40
23.590        53
23.600        67
23.610        60
23.620        13
23.630        47
23.640        33
23.650        27
23.660        40
23.670        53
23.680        40
23.690        13
23.700        53
23.710        67
23.720        27
23.730        27
23.740        20
23.750        20
23.760        40
23.770        20
23.780         7
23.790        73
23.800        47
23.810        47
23.820        40
23.830        27
23.840         7
23.850        33
23.860        27
23.870        60
23.880        33
23.890        47
23.900        40
23.910        20
23.920        33
23.930        13
23.940        27
23.950        67
23.960        47
23.970        33
23.980        47
23.990        53
24.000        13
24.010        60
24.020        13
24.030        47
24.040        60
24.050        33
24.060        67
24.070        53
24.080        60
24.090        40
24.100        13
24.110        20
24.120        33
24.130        20
24.140        20
24.150        33
24.160        60
24.170        53
24.180        33
24.190        40
24.200        40
24.210        53
24.220        33
24.230        47
24.240        33
24.250        40
24.260        53
24.270        20
24.280        27
24.290        33
24.300        27
24.310        40
24.320        20
24.330        40
24.340        67
24.350         7
24.360        60
24.370        33
24.380        27
24.390        67
24.400        27
24.410        67
24.420         7
24.430        87
24.440        20
24.450        20
24.460        20
24.470        13
24.480        27
24.490        33
24.500        47
24.510        13
24.520        60
24.530        33
24.540        20
24.550        20
24.560        47
24.570        33
24.580        60
24.590        20
24.600        40
24.610        33
24.620        13
24.630        33
24.640        27
24.650        40
24.660        13
24.670        33
24.680        27
24.690        33
24.700        33
24.710        33
24.720        33
24.730        40
24.740        33
24.750        53
24.760        33
24.770        20
24.780        20
24.790        27
24.800        27
24.810        67
24.820        47
24.830        20
24.840        27
24.850        13
24.860        27
24.870        40
24.880        33
24.890        40
24.900        40
24.910        40
24.920        27
24.930        33
24.940        53
24.950        27
24.960        20
24.970        33
24.980        27
24.990        93
25.000        13
25.010        20
25.020        33
25.030        40
25.040        33
25.050        13
25.060         7
25.070        40
25.080         7
25.090        27
25.100        47
25.110        13
25.120        27
25.130        27
25.140        33
25.150        20
25.160        33
25.170        40
25.180        53
25.190        27
25.200        27
25.210        27
25.220        20
25.230        47
25.240        40
25.250        20
25.260        53
25.270        53
25.280        47
25.290        20
25.300        20
25.310        47
25.320        33
25.330        27
25.340        27
25.350        27
25.360        47
25.370        40
25.380        33
25.390         7
25.400        33
25.410        20
25.420        33
25.430        33
25.440        27
25.450        27
25.460        53
25.470        40
25.480        33
25.490        40
25.500        27
25.510        53
25.520        60
25.530        73
25.540        80
25.550        60
25.560        87
25.570       120
25.580       107
25.590       120
25.600       160
25.610        93
25.620        80
25.630        73
25.640       113
25.650        93
25.660        60
25.670        73
25.680        73
25.690        67
25.700        33
25.710        33
25.720        40
25.730        40
25.740        80
25.750       107
25.760        53
25.770        27
25.780        60
25.790        60
25.800        80
25.810        47
25.820        33
25.830         7
25.840        80
25.850        60
25.860        60
25.870        60
25.880        47
25.890        67
25.900        27
25.910        20
25.920        40
25.930        53
25.940        13
25.950        27
25.960        40
25.970        27
25.980        47
25.990        33
26.000        33
26.010        27
26.020        40
26.030        40
26.040        33
26.050        40
26.060        47
26.070        27
26.080         7
26.090        27
26.100        13
26.110        53
26.120        53
26.130        60
26.140        40
26.150        27
26.160        20
26.170        53
26.180        33
26.190         7
26.200        60
26.210        47
26.220        40
26.230        60
26.240        13
26.250        53
26.260        47
26.270        47
26.280        27
26.290        33
26.300        40
26.310         7
26.320        20
26.330        20
26.340        33
26.350         7
26.360        13
26.370        60
26.380        20
26.390        20
26.400        53
26.410        13
26.420        60
26.430        20
26.440        20
26.450        20
26.460        53
26.470        27
26.480        33
26.490        33
26.500        20
26.510        33
26.520        47
26.530        20
26.540        53
26.550        33
26.560        27
26.570        33
26.580        20
26.590        27
26.600         7
26.610        33
26.620        60
26.630        20
26.640        47
26.650        33
26.660        27
26.670        27
26.680        40
26.690        33
26.700        33
26.710        27
26.720        33
26.730        53
26.740        47
26.750        20
26.760        47
26.770        40
26.780        27
26.790        47
26.800        33
26.810        20
26.820        20
26.830        33
26.840        27
26.850        20
26.860        20
26.870        27
26.880        33
26.890        33
26.900        20
26.910        20
26.920        13
26.930        33
26.940        33
26.950        13
26.960        47
26.970        33
26.980        27
26.990        27
27.000         0
27.010        33
27.020        60
27.030        33
27.040        40
27.050        33
27.060        33
27.070        47
27.080        47
27.090        13
27.100        40
27.110         7
27.120        33
27.130        33
27.140        67
27.150        33
27.160        13
27.170        13
27.180         0
27.190        67
27.200        53
27.210        33
27.220        60
27.230        33
27.240        40
27.250        40
27.260        27
27.270        47
27.280        47
27.290        20
27.300        20
27.310        40
27.320         7
27.330         7
27.340        20
27.350        27
27.360        33
27.370        27
27.380        33
27.390        40
27.400        60
27.410        47
27.420        27
27.430        13
27.440        13
27.450        33
27.460        33
27.470        20
27.480        13
27.490         7
27.500        40
27.510        40
27.520        13
27.530        13
27.540        40
27.550         7
27.560        53
27.570        33
27.580        53
27.590        33
27.600        13
27.610        20
27.620         7
27.630        20
27.640        20
27.650        33
27.660        20
27.670        47
27.680        33
27.690        40
27.700        40
27.710        27
27.720        33
27.730        47
27.740        60
27.750        40
27.760        13
27.770        53
27.780        47
27.790        40
27.800        33
27.810        47
27.820        40
27.830        33
27.840        33
27.850        33
27.860        47
27.870        33
27.880       107
27.890        33
27.900        53
27.910        53
27.920        60
27.930        13
27.940        47
27.950        80
27.960        27
27.970        53
27.980        67
27.990        53
28.000        73
28.010        93
28.020        47
28.030        67
28.040        67
28.050        73
28.060       153
28.070        73
28.080        40
28.090        67
28.100        60
28.110        93
28.120        40
28.130        73
28.140       140
28.150       113
28.160        33
28.170       107
28.180        80
28.190       107
28.200        80
28.210       113
28.220       153
28.230       147
28.240        67
28.250       147
28.260       127
28.270       133
28.280       127
28.290        80
28.300       147
28.310       167
28.320       107
28.330       127
28.340        87
28.350        93
28.360        93
28.370        93
28.380       127
28.390        60
28.400        80
28.410        73
28.420        40
28.430        93
28.440        67
28.450        80
28.460        53
28.470        67
28.480        60
28.490        40
28.500        40
28.510        13
28.520        60
28.530        47
28.540        47
28.550        67
28.560        47
28.570        33
28.580        40
28.590        87
28.600        47
28.610        73
28.620        53
28.630        33
28.640        60
28.650       100
28.660        73
28.670        80
28.680        20
28.690        73
28.700        73
28.710        33
28.720       107
28.730        60
28.740        67
28.750        67
28.760        47
28.770        60
28.780        47
28.790        87
28.800       100
28.810       147
28.820        93
28.830        80
28.840       160
28.850       127
28.860       173
28.870       120
28.880       213
28.890       113
28.900       180
28.910       187
28.920       220
28.930       260
28.940       187
28.950       253
28.960       280
28.970       340
28.980       287
28.990       313
29.000       347
29.010       280
29.020       253
29.030       347
29.040       213
29.050       307
29.060       207
29.070       193
29.080       240
29.090       267
29.100       227
29.110       167
29.120       307
29.130       187
29.140       133
29.150       153
29.160       173
29.170       120
29.180        93
29.190       147
29.200        73
29.210       107
29.220       107
29.230        73
29.240        47
29.250        73
29.260        80
29.270       113
29.280       100
29.290        47
29.300       133
29.310        60
29.320        33
29.330        47
29.340        33
29.350        40
29.360        47
29.370       107
29.380        87
29.390        67
29.400        27
29.410        53
29.420        67
29.430       107
29.440        80
29.450       113
29.460       140
29.470        60
29.480       113
29.490       120
29.500       147
29.510        67
29.520        80
29.530       113
29.540        87
29.550        93
29.560       120
29.570       113
29.580        73
29.590       107
29.600        80
29.610        60
29.620       100
29.630        53
29.640        80
29.650        60
29.660        47
29.670        47
29.680        47
29.690        33
29.700        53
29.710        40
29.720        67
29.730        33
29.740        60
29.750        47
29.760        13
29.770        33
29.780        33
29.790        40
29.800        27
29.810        33
29.820        40
29.830        60
29.840        40
29.850        20
29.860         7
29.870        40
29.880        40
29.890        47
29.900        20
29.910        47
29.920        27
29.930        33
29.940        13
29.950        67
29.960        33
29.970        53
29.980        27
29.990        40
30.000        40
30.010        33
30.020        27
30.030         7
30.040        40
30.050        27
30.060        33
30.070        20
30.080        33
30.090        27
30.100        27
30.110        40
30.120        40
30.130        33
30.140        33
30.150        47
30.160        40
30.170        40
30.180        40
30.190        27
30.200        13
30.210        13
30.220        27
30.230        20
30.240        20
30.250        40
30.260        20
30.270        20
30.280        60
30.290        27
30.300        20
30.310        60
30.320        20
30.330        20
30.340        13
30.350         7
30.360        27
30.370        60
30.380        13
30.390        27
30.400        33
30.410        53
30.420        27
30.430        27
30.440        27
30.450        20
30.460        33
30.470        20
30.480        27
30.490        27
30.500        20
30.510        67
30.520        33
30.530        13
30.540        47
30.550         7
30.560        53
30.570        27
30.580         7
30.590        47
30.600        27
30.610        20
30.620        33
30.630        27
30.640        13
30.650        33
30.660        13
30.670        20
30.680        47
30.690         7
30.700        33
30.710        27
30.720        27
30.730        33
30.740        53
30.750        20
30.760        27
30.770        20
30.780        40
30.790        53
30.800        27
30.810        67
30.820        20
30.830        20
30.840        27
30.850        27
30.860        13
30.870        13
30.880        33
30.890        33
30.900        13
30.910        40
30.920         7
30.930        47
30.940        27
30.950        20
30.960        27
30.970        40
30.980         7
30.990        40
31.000        20
31.010        13
31.020        33
31.030         7
31.040        33
31.050        27
31.060        27
31.070        40
31.080        27
31.090        13
31.100        27
31.110        53
31.120        20
31.130         7
31.140        27
31.150         7
31.160        13
31.170         0
31.180        47
31.190        33
31.200        40
31.210        53
31.220        20
31.230        40
31.240        33
31.250        27
31.260        13
31.270        27
31.280        40
31.290        40
31.300        13
31.310        13
31.320        13
31.330        13
31.340        13
31.350        20
31.360        13
31.370        33
31.380        20
31.390        27
31.400        33
31.410         0
31.420         7
31.430        27
31.440         7
31.450        20
31.460        40
31.470        40
31.480        13
31.490        20
31.500        33
31.510        13
31.520        27
31.530        47
31.540        40
31.550        40
31.560        40
31.570        27
31.580        27
31.590         7
31.600        20
31.610        27
31.620        13
31.630        13
31.640        53
31.650        33
31.660        67
31.670        27
31.680        27
31.690        13
31.700        20
31.710        47
31.720        60
31.730        20
31.740        33
31.750         7
31.760        27
31.770        13
31.780        27
31.790        27
31.800        20
31.810        20
31.820        60
31.830        27
31.840        40
31.850        27
31.860        40
31.870        40
31.880        40
31.890        33
31.900        40
31.910        47
31.920        33
31.930        60
31.940        27
31.950        20
31.960        20
31.970        47
31.980        20
31.990        67
32.000        40
32.010        33
32.020        20
32.030        33
32.040        47
32.050        67
32.060        40
32.070       100
32.080        47
32.090        33
32.100        73
32.110        33
32.120        47
32.130        73
32.140        33
32.150        67
32.160        67
32.170        40
32.180        33
32.190        33
32.200        33
32.210        67
32.220        27
32.230        20
32.240        60
32.250        67
32.260        33
32.270        80
32.280        27
32.290        33
32.300        40
32.310        47
32.320        47
32.330        20
32.340        13
32.350        27
32.360        40
32.370        40
32.380        47
32.390        47
32.400        27
32.410        40
32.420        40
32.430        27
32.440        20
32.450        13
32.460        47
32.470        40
32.480        67
32.490        13
32.500        13
32.510        33
32.520        53
32.530        73
32.540        47
32.550        80
32.560        33
32.570        60
32.580        40
32.590        53
32.600        67
32.610        33
32.620        47
32.630        33
32.640        20
32.650        47
32.660        53
32.670        40
32.680        47
32.690        27
32.700        73
32.710        47
32.720        67
32.730       100
32.740        87
32.750        33
32.760        47
32.770        53
32.780        40
32.790        53
32.800        40
32.810        67
32.820        27
32.830        13
32.840        33
32.850        20
32.860        33
32.870        27
32.880        33
32.890        20
32.900        27
32.910        20
32.920        13
32.930        20
32.940        27
32.950        33
32.960        27
32.970        40
32.980        27
32.990        60
33.000        27
33.010        27
33.020        33
33.030        33
33.040        27
33.050        27
33.060        13
33.070        27
33.080        27
33.090        20
33.100        13
33.110         0
33.120        20
33.130        33
33.140        13
33.150        20
33.160        20
33.170        27
33.180         7
33.190        20
33.200        33
33.210        27
33.220        27
33.230         7
33.240        40
33.250        27
33.260        20
33.270        13
33.280        27
33.290        27
33.300        33
33.310        33
33.320        40
33.330        53
33.340        13
33.350        13
33.360         7
33.370         0
33.380        47
33.390        20
33.400        27
33.410         7
33.420        33
33.430        27
33.440        27
33.450         7
33.460        27
33.470        33
33.480        33
33.490        47
33.500        13
33.510        33
33.520        27
33.530        33
33.540        20
33.550        27
33.560        27
33.570        20
33.580        20
33.590        40
33.600         7
33.610        33
33.620         7
33.630        20
33.640        33
33.650         0
33.660         0
33.670        33
33.680        47
33.690        13
33.700        20
33.710         7
33.720         7
33.730        20
33.740        53
33.750        13
33.760        13
33.770         7
33.780        20
33.790        40
33.800        13
33.810        27
33.820        20
33.830        20
33.840        13
33.850        20
33.860        27
33.870        33
33.880        13
33.890        20
33.900         7
33.910        27
33.920        20
33.930        20
33.940        33
33.950         7
33.960        27
33.970        13
33.980        20
33.990        27
34.000        13
34.010        20
34.020        33
34.030        13
34.040        33
34.050        13
34.060        27
34.070        40
34.080        20
34.090        27
34.100        20
34.110        40
34.120        53
34.130        13
34.140        20
34.150        20
34.160        20
34.170        20
34.180        27
34.190         0
34.200        27
34.210        27
34.220        60
34.230        13
34.240        13
34.250        13
34.260        13
34.270        47
34.280        13
34.290        47
34.300        13
34.310        20
34.320        33
34.330        20
34.340        20
34.350        13
34.360        27
34.370        40
34.380        20
34.390        47
34.400        13
34.410        13
34.420        27
34.430        13
34.440        60
34.450         7
34.460        33
34.470        13
34.480         7
34.490        33
34.500        20
34.510        40
34.520        40
34.530        13
34.540        33
34.550        40
34.560        27
34.570        27
34.580        60
34.590        53
34.600        47
34.610        13
34.620        20
34.630        47
34.640        47
34.650        47
34.660        27
34.670        33
34.680        13
34.690        27
34.700        33
34.710        20
34.720        20
34.730        20
34.740        13
34.750        40
34.760        47
34.770        27
34.780        20
34.790        33
34.800        27
34.810        47
34.820        33
34.830        33
34.840        20
34.850        33
34.860        27
34.870         7
34.880        47
34.890        27
34.900        53
34.910        20
34.920        33
34.930        13
34.940        20
34.950        20
34.960        73
34.970        20
34.980        33
34.990        40
35.000        47
35.010        47
35.020        93
35.030        73
35.040        87
35.050        87
35.060        93
35.070        67
35.080        33
35.090       120
35.100        80
35.110       120
35.120       133
35.130       107
35.140       120
35.150       113
35.160       127
35.170       147
35.180       127
35.190       140
35.200        60
35.210       133
35.220        73
35.230        93
35.240        67
35.250       107
35.260        73
35.270        53
35.280        67
35.290        60
35.300        87
35.310        60
35.320        40
35.330        53
35.340        13
35.350        33
35.360        27
35.370        20
35.380        13
35.390        20
35.400         7
35.410        33
35.420        27
35.430        13
35.440        27
35.450        27
35.460        27
35.470        27
35.480        13
35.490        27
35.500        20
35.510         7
35.520        33
35.530         7
35.540         0
35.550        13
35.560        40
35.570         7
35.580        27
35.590        27
35.600        27
35.610        33
35.620        13
35.630        33
35.640        13
35.650        13
35.660        27
35.670         0
35.680        27
35.690        13
35.700        33
35.710        27
35.720         7
35.730        40
35.740        20
35.750        20
35.760        20
35.770        20
35.780        40
35.790         7
35.800         7
35.810         7
35.820        20
35.830        33
35.840         7
35.850        33
35.860        27
35.870        13
35.880        33
35.890        53
35.900        27
35.910         0
35.920         7
35.930        27
35.940        27
35.950        27
35.960        20
35.970        20
35.980        53
35.990        20
36.000        27
36.010        27
36.020        40
36.030        13
36.040        40
36.050        33
36.060        20
36.070        20
36.080        40
36.090        27
36.100        33
36.110        33
36.120        13
36.130        13
36.140        27
36.150        13
36.160         7
36.170        27
36.180        60
36.190        20
36.200        20
36.210        27
36.220        13
36.230        20
36.240        33
36.250        13
36.260        33
36.270        20
36.280         7
36.290        40
36.300        40
36.310        13
36.320        20
36.330        27
36.340        20
36.350        20
36.360        20
36.370        33
36.380        33
36.390        53
36.400        33
36.410        20
36.420        33
36.430        20
36.440        27
36.450        20
36.460        27
36.470        13
36.480         0
36.490        53
36.500        20
36.510         7
36.520         7
36.530        20
36.540        33
36.550        40
36.560        13
36.570        27
36.580         7
36.590        33
36.600        33
36.610        20
36.620        13
36.630        33
36.640        33
36.650        27
36.660         7
36.670        20
36.680        27
36.690        20
36.700        33
36.710        40
36.720        13
36.730        27
36.740        27
36.750        20
36.760         7
36.770        40
36.780        33
36.790        20
36.800         7
36.810        13
36.820        27
36.830        20
36.840        53
36.850        27
36.860        20
36.870        33
36.880        27
36.890        13
36.900        53
36.910        27
36.920        27
36.930        13
36.940        20
36.950        33
36.960        40
36.970        33
36.980         7
36.990        13
37.000        20
37.010        40
37.020        13
37.030        40
37.040        27
37.050        33
37.060        20
37.070        13
37.080        20
37.090        13
37.100        60
37.110        13
37.120        20
37.130        27
37.140        13
37.150        20
37.160        33
37.170        13
37.180        53
37.190        13
37.200        33
37.210        27
37.220         7
37.230        33
37.240         7
37.250        20
37.260        13
37.270        27
37.280        27
37.290        27
37.300        40
37.310        40
37.320        20
37.330        13
37.340        13
37.350        33
37.360        20
37.370        20
37.380        33
37.390        33
37.400         7
37.410        13
37.420        33
37.430        20
37.440        33
37.450         7
37.460        27
37.470        40
37.480        20
37.490        40
37.500         7
37.510        27
37.520        20
37.530        20
37.540        20
37.550        53
37.560        27
37.570        13
37.580         7
37.590        47
37.600         7
37.610        13
37.620        33
37.630        27
37.640         7
37.650        47
37.660        13
37.670        40
37.680        40
37.690        40
37.700        40
37.710        73
37.720        67
37.730        87
37.740        53
37.750        53
37.760        53
37.770        47
37.780        20
37.790        53
37.800        27
37.810        67
37.820        67
37.830        40
37.840        13
37.850        33
37.860        13
37.870        47
37.880        27
37.890        40
37.900        20
37.910        40
37.920        33
37.930        27
37.940        20
37.950        20
37.960        20
37.970        47
37.980         0
37.990        27
38.000        27
38.010        40
38.020        33
38.030        27
38.040        27
38.050        40
38.060        33
38.070        27
38.080        13
38.090        27
38.100         7
38.110        33
38.120        47
38.130        40
38.140        40
38.150        40
38.160        40
38.170        40
38.180         7
38.190        20
38.200        33
38.210        33
38.220        27
38.230        40
38.240         7
38.250        20
38.260        20
38.270        40
38.280        27
38.290        47
38.300        47
38.310         7
38.320        67
38.330        33
38.340        27
38.350        47
38.360        13
38.370        40
38.380        13
38.390        47
38.400        20
38.410        20
38.420        33
38.430        27
38.440        60
38.450        40
38.460        13
38.470        40
38.480        27
38.490        40
38.500        33
38.510        33
38.520        27
38.530        27
38.540        27
38.550        20
38.560        13
38.570        33
38.580        20
38.590        13
38.600        33
38.610        33
38.620        60
38.630        20
38.640        40
38.650        27
38.660        27
38.670        20
38.680        40
38.690         0
38.700        47
38.710         7
38.720        27
38.730        27
38.740         7
38.750        27
38.760        33
38.770        27
38.780        27
38.790        47
38.800        47
38.810        27
38.820        27
38.830        47
38.840        27
38.850        20
38.860        47
38.870         7
38.880        27
38.890        20
38.900        33
38.910        20
38.920        13
38.930        20
38.940        27
38.950        27
38.960        40
38.970        33
38.980        20
38.990        20
39.000        33
39.010        27
39.020        27
39.030        13
39.040        33
39.050        27
39.060        33
39.070        27
39.080        20
39.090        40
39.100        27
39.110        13
39.120        40
39.130        27
39.140         0
39.150        27
39.160        47
39.170        20
39.180        13
39.190        40
39.200        20
39.210        20
39.220        27
39.230        27
39.240        27
39.250        33
39.260        13
39.270         7
39.280        27
39.290        27
39.300        40
39.310        20
39.320        20
39.330        40
39.340        47
39.350        20
39.360        33
39.370        27
39.380        33
39.390         0
39.400        13
39.410        13
39.420        20
39.430        33
39.440        20
39.450        27
39.460        53
39.470         7
39.480        13
39.490         7
39.500        40
39.510        20
39.520        20
39.530        33
39.540        33
39.550        40
39.560        20
39.570        27
39.580        40
39.590        13
39.600        13
39.610        33
39.620        33
39.630        27
39.640        20
39.650        13
39.660         0
39.670        40
39.680        33
39.690        27
39.700         7
39.710         7
39.720        33
39.730        20
39.740        13
39.750         7
39.760        40
39.770        20
39.780        27
39.790        13
39.800        27
39.810        40
39.820        13
39.830        53
39.840        40
39.850        47
39.860        20
39.870         7
39.880        87
39.890        27
39.900        27
39.910        40
39.920        47
39.930        60
39.940        67
39.950        47
39.960        67
39.970        47
39.980        67
39.990       100
40.000        60
40.010        60
40.020        60
40.030        93
40.040        67
40.050        73
40.060        93
40.070        67
40.080       127
40.090       153
40.100       100
40.110       113
40.120       113
40.130       173
40.140       133
40.150       160
40.160       153
40.170       127
40.180       147
40.190       200
40.200       133
40.210       147
40.220       140
40.230       133
40.240       200
40.250       207
40.260       140
40.270        93
40.280       167
40.290       140
40.300        87
40.310       173
40.320       133
40.330       193
40.340        93
40.350       120
40.360       107
40.370       113
40.380       107
40.390        67
40.400        73
40.410       147
40.420        93
40.430        87
40.440       140
40.450       113
40.460        93
40.470        67
40.480        87
40.490        87
40.500       113
40.510        87
40.520       147
40.530       107
40.540        67
40.550       100
40.560        80
40.570        73
40.580        93
40.590       100
40.600        60
40.610        27
40.620        73
40.630        93
40.640        80
40.650        40
40.660        47
40.670        33
40.680        40
40.690        13
40.700        60
40.710        27
40.720        27
40.730        53
40.740        67
40.750         7
40.760        20
40.770        33
40.780        60
40.790        33
40.800        33
40.810        67
40.820        27
40.830        27
40.840        20
40.850        27
40.860        40
40.870        47
40.880        40
40.890        40
40.900        53
40.910        20
40.920        33
40.930        33
40.940        27
40.950        27
40.960        60
40.970        27
40.980        33
40.990        33
41.000        20
41.010        60
41.020         0
41.030        13
41.040        40
41.050        13
41.060        53
41.070         7
41.080         0
41.090        13
41.100        33
41.110        20
41.120        20
41.130        33
41.140        20
41.150        33
41.160        27
41.170         0
41.180         7
41.190        40
41.200        33
41.210         7
41.220         7
41.230        13
41.240        20
41.250         7
41.260        20
41.270        27
41.280         7
41.290        47
41.300        27
41.310        40
41.320        33
41.330         7
41.340        20
41.350         7
41.360        13
41.370        27
41.380        27
41.390        27
41.400        20
41.410        40
41.420        20
41.430        27
41.440        20
41.450        13
41.460        20
41.470        13
41.480        60
41.490        27
41.500        20
41.510         7
41.520        33
41.530        33
41.540        33
41.550        40
41.560        47
41.570        40
41.580        20
41.590        27
41.600        13
41.610        33
41.620         7
41.630        67
41.640        60
41.650       107
41.660       133
41.670       160
41.680       140
41.690       180
41.700       127
41.710       220
41.720       160
41.730       220
41.740       127
41.750       160
41.760       127
41.770       160
41.780        93
41.790       107
41.800        80
41.810        87
41.820        67
41.830        93
41.840        80
41.850       100
41.860        53
41.870        73
41.880        73
41.890        53
41.900        33
41.910        33
41.920        33
41.930        47
41.940        33
41.950         7
41.960        13
41.970         7
41.980        33
41.990        60
42.000        27
42.010        27
42.020        47
42.030         0
42.040         7
42.050        20
42.060        20
42.070        27
42.080        20
42.090        20
42.100        53
42.110        60
42.120        33
42.130        33
42.140        20
42.150        53
42.160        40
42.170        40
42.180        27
42.190        20
42.200        40
42.210        13
42.220        20
42.230        13
42.240        33
42.250        13
42.260        20
42.270        40
42.280        40
42.290        13
42.300         7
42.310         7
42.320         7
42.330        40
42.340        13
42.350        33
42.360        27
42.370        20
42.380        20
42.390        20
42.400        13
42.410        20
42.420        20
42.430        13
42.440        33
42.450        27
42.460        33
42.470        40
42.480        13
42.490        13
42.500        47
42.510        13
42.520        13
42.530        33
42.540        27
42.550        20
42.560         0
42.570        20
42.580        40
42.590        27
42.600        40
42.610        13
42.620        20
42.630        13
42.640        67
42.650        27
42.660        27
42.670        13
42.680        20
42.690        13
42.700        47
42.710        13
42.720        13
42.730        20
42.740        20
42.750        27
42.760        47
42.770        53
42.780        33
42.790        27
42.800        40
42.810        40
42.820        13
42.830        13
42.840        27
42.850        20
42.860        20
42.870        27
42.880        20
42.890        40
42.900        27
42.910        27
42.920        27
42.930        27
42.940        20
42.950        27
42.960        40
42.970        20
42.980        33
42.990        13
43.000        27
43.010         7
43.020        27
43.030        27
43.040        27
43.050        40
43.060        27
43.070        33
43.080         7
43.090        53
43.100         7
43.110        20
43.120        27
43.130        40
43.140        13
43.150        47
43.160        33
43.170        33
43.180        20
43.190        33
43.200        40
43.210        27
43.220        40
43.230        53
43.240        40
43.250        67
43.260        67
43.270        47
43.280        20
43.290        33
43.300        53
43.310        67
43.320        73
43.330        40
43.340        60
43.350        93
43.360        73
43.370        73
43.380        33
43.390        67
43.400        47
43.410        27
43.420        53
43.430        60
43.440        33
43.450        47
43.460        67
43.470        40
43.480        20
43.490        60
43.500        67
43.510        33
43.520        40
43.530        33
43.540        47
43.550        27
43.560        40
43.570        13
43.580        13
43.590        33
43.600        27
43.610        20
43.620        40
43.630        60
43.640         7
43.650        40
43.660         7
43.670        53
43.680        27
43.690        20
43.700        13
43.710         7
43.720        20
43.730        13
43.740        27
43.750        20
43.760         0
43.770        27
43.780        27
43.790        33
43.800        40
43.810        13
43.820        27
43.830        13
43.840        13
43.850        33
43.860        47
43.870        27
43.880        27
43.890        13
43.900        20
43.910         7
43.920        13
43.930        40
43.940        13
43.950        20
43.960        33
43.970        27
43.980         0
43.990        40
44.000        20
44.010        27
44.020        27
44.030        13
44.040        27
44.050        13
44.060        33
44.070        20
44.080        27
44.090         7
44.100        40
44.110        27
44.120        40
44.130        33
44.140        27
44.150        20
44.160        40
44.170        13
44.180        47
44.190        33
44.200        27
44.210        13
44.220        33
44.230        20
44.240        47
44.250        13
44.260        27
44.270        20
44.280        20
44.290         7
44.300        27
44.310        13
44.320        20
44.330        27
44.340         7
44.350        20
44.360        13
44.370        13
44.380        33
44.390         7
44.400        13
44.410        33
44.420        27
44.430        13
44.440        27
44.450        27
44.460        20
44.470        20
44.480        27
44.490        40
44.500        33
44.510        13
44.520         7
44.530        20
44.540        13
44.550        47
44.560        33
44.570        13
44.580        20
44.590        27
44.600        20
44.610        33
44.620        60
44.630        27
44.640         7
44.650        40
44.660        27
44.670        27
44.680        13
44.690        20
44.700         7
44.710        40
44.720        13
44.730         7
44.740        27
44.750        13
44.760        13
44.770         7
44.780         0
44.790        20
44.800        27
44.810        13
44.820        40
44.830        13
44.840         7
44.850         7
44.860        20
44.870        13
44.880        33
44.890        47
44.900        27
44.910        13
44.920        33
44.930        40
44.940        20
44.950        27
44.960        13
44.970        47
44.980         0
44.990        27
45.000        40
45.010        20
45.020        27
45.030        27
45.040         7
45.050        20
45.060        33
45.070        33
45.080        40
45.090        20
45.100         0
45.110        40
45.120        20
45.130        40
45.140         0
45.150        27
45.160         0
45.170        13
45.180         7
45.190        20
45.200        27
45.210        20
45.220        13
45.230        27
45.240        20
45.250        40
45.260        27
45.270        40
45.280        27
45.290        20
45.300        33
45.310        33
45.320        33
45.330        20
45.340        13
45.350        13
45.360        20
45.370        27
45.380        20
45.390        20
45.400        27
45.410        27
45.420        20
45.430        13
45.440        27
45.450        27
45.460        20
45.470        27
45.480        20
45.490        27
45.500        13
45.510        40
45.520         7
45.530        27
45.540         0
45.550        47
45.560        20
45.570        27
45.580        47
45.590        20
45.600        40
45.610        27
45.620        47
45.630        40
45.640        20
45.650        53
45.660        47
45.670        53
45.680        13
45.690        33
45.700        20
45.710        27
45.720        20
45.730        40
45.740        20
45.750        27
45.760        33
45.770         7
45.780        33
45.790        20
45.800        27
45.810        67
45.820        27
45.830        20
45.840        20
45.850        40
45.860        33
45.870        47
45.880        53
45.890        47
45.900        20
45.910        27
45.920        53
45.930        53
45.940        53
45.950        53
45.960        53
45.970        20
45.980        40
45.990        27
46.000        73
46.010        73
46.020        40
46.030        40
46.040        67
46.050        73
46.060        67
46.070        40
46.080        53
46.090        53
46.100        67
46.110        53
46.120        40
46.130        60
46.140        40
46.150        67
46.160        53
46.170        60
46.180        20
46.190        80
46.200        53
46.210        40
46.220        20
46.230        47
46.240        47
46.250        47
46.260        67
46.270        60
46.280        73
46.290        33
46.300         7
46.310        40
46.320        27
46.330        27
46.340        40
46.350        40
46.360        40
46.370        73
46.380        60
46.390        40
46.400        60
46.410        67
46.420        53
46.430        47
46.440        40
46.450        53
46.460        53
46.470        47
46.480        67
46.490        73
46.500        73
46.510        87
46.520        87
46.530       107
46.540        87
46.550       140
46.560       120
46.570        93
46.580       180
46.590       120
46.600       220
46.610       160
46.620       207
46.630       213
46.640       233
46.650       213
46.660       307
46.670       273
46.680       227
46.690       333
46.700       247
46.710       287
46.720       300
46.730       393
46.740       353
46.750       260
46.760       167
46.770       307
46.780       240
46.790       260
46.800       213
46.810       287
46.820       227
46.830       260
46.840       220
46.850       180
46.860       213
46.870       133
46.880       153
46.890       153
46.900       147
46.910       160
46.920       107
46.930       113
46.940       107
46.950        67
46.960       107
46.970        73
46.980       100
46.990        80
47.000        53
47.010        47
47.020        73
47.030        20
47.040        47
47.050        60
47.060        73
47.070        60
47.080        53
47.090        33
47.100        40
47.110        27
47.120        33
47.130        27
47.140        27
47.150        33
47.160        40
47.170        67
47.180        47
47.190        13
47.200        53
47.210        27
47.220        27
47.230        33
47.240        20
47.250        40
47.260        40
47.270        33
47.280        13
47.290        20
47.300        47
47.310        33
47.320        33
47.330        20
47.340        13
47.350         7
47.360        20
47.370        13
47.380        40
47.390        27
47.400        20
47.410         7
47.420         7
47.430        47
47.440         0
47.450        20
47.460        13
47.470        20
47.480        33
47.490        20
47.500        13
47.510        20
47.520         7
47.530        13
47.540        40
47.550        20
47.560        33
47.570        40
47.580        13
47.590         7
47.600        20
47.610        13
47.620        13
47.630        20
47.640        20
47.650         7
47.660        27
47.670        33
47.680         7
47.690        20
47.700        13
47.710        20
47.720         7
47.730        13
47.740        27
47.750        27
47.760         7
47.770        33
47.780        33
47.790        20
47.800        13
47.810        13
47.820        40
47.830         7
47.840        27
47.850        20
47.860        27
47.870        13
47.880        33
47.890        27
47.900         7
47.910        27
47.920        33
47.930        40
47.940        27
47.950        20
47.960        20
47.970        20
47.980        27
47.990        20
48.000        27
48.010        27
48.020        40
48.030        20
48.040         7
48.050        27
48.060        20
48.070        40
48.080        33
48.090        27
48.100        40
48.110        33
48.120        20
48.130        33
48.140         0
48.150        33
48.160        27
48.170        40
48.180        60
48.190        47
48.200        27
48.210        27
48.220        33
48.230        20
48.240        27
48.250        27
48.260        47
48.270        47
48.280        20
48.290        27
48.300        40
48.310        33
48.320       100
48.330        53
48.340        40
48.350        53
48.360        20
48.370        47
48.380        40
48.390        27
48.400        33
48.410        27
48.420        13
48.430        53
48.440        40
48.450        27
48.460        60
48.470        13
48.480        27
48.490        20
48.500        13
48.510        33
48.520        33
48.530        33
48.540        27
48.550        27
48.560        47
48.570        53
48.580        13
48.590        33
48.600        47
48.610        13
48.620        27
48.630        27
48.640        13
48.650        20
48.660        20
48.670        27
48.680        33
48.690        20
48.700        33
48.710        40
48.720        33
48.730        67
48.740        47
48.750        27
48.760        40
48.770        47
48.780         7
48.790        40
48.800        47
48.810        40
48.820        20
48.830         7
48.840        27
48.850        27
48.860        20
48.870        20
48.880        13
48.890         7
48.900        20
48.910        20
48.920        80
48.930        33
48.940        33
48.950        33
48.960        40
48.970        33
48.980        13
48.990        33
49.000        40
49.010         7
49.020        47
49.030         0
49.040         7
49.050        13
49.060         7
49.070        47
49.080        33
49.090         7
49.100        33
49.110        20
49.120        40
49.130        27
49.140        20
49.150        47
49.160        13
49.170        27
49.180        20
49.190        33
49.200        40
49.210        13
49.220        33
49.230        20
49.240        20
49.250         7
49.260        67
49.270        13
49.280        13
49.290        27
49.300        13
49.310        20
49.320        40
49.330        20
49.340        20
49.350        40
49.360        27
49.370        27
49.380         7
49.390        40
49.400        13
49.410         0
49.420         7
49.430        47
49.440        20
49.450        40
49.460        13
49.470        27
49.480        20
49.490        27
49.500        13
49.510        20
49.520        13
49.530        40
49.540        20
49.550         7
49.560        13
49.570        47
49.580        60
49.590        60
49.600        53
49.610        87
49.620        27
49.630        60
49.640        73
49.650        33
49.660        33
49.670        47
49.680        33
49.690        53
49.700        40
49.710        60
49.720        60
49.730        27
49.740        20
49.750        73
49.760        40
49.770        47
49.780        47
49.790        47
49.800        67
49.810        20
49.820        53
49.830        53
49.840        33
49.850        53
49.860        27
49.870        80
49.880        27
49.890        40
49.900        40
49.910        47
49.920       100
49.930        53
49.940        27
49.950        87
49.960        47
49.970        20
49.980        33
49.990        20
50.000        33
50.010        27
50.020        73
50.030        20
50.040        53
50.050        40
50.060        27
50.070        13
50.080       100
50.090        40
50.100        33
50.110        53
50.120        47
50.130        20
50.140        60
50.150        47
50.160        53
50.170        53
50.180        33
50.190        40
50.200        33
50.210        13
50.220        47
50.230        40
50.240        27
50.250        13
50.260        47
50.270        67
50.280        67
50.290        60
50.300        47
50.310        27
50.320        33
50.330        40
50.340       113
50.350        53
50.360        27
50.370         7
50.380        27
50.390        40
50.400        27
50.410        67
50.420        53
50.430        47
50.440        60
50.450        20
50.460        20
50.470        47
50.480        20
50.490        33
50.500        13
50.510        13
50.520        33
50.530        33
50.540        40
50.550        13
50.560        13
50.570        20
50.580        47
50.590        13
50.600        27
50.610        20
50.620         0
50.630        53
50.640        20
50.650        40
50.660         7
50.670        33
50.680        40
50.690        13
50.700        47
50.710        13
50.720        13
50.730        20
50.740         7
50.750        20
50.760        40
50.770         0
50.780         0
50.790        47
50.800         7
50.810        27
50.820        13
50.830        20
50.840         7
50.850        27
50.860        20
50.870        27
50.880        33
50.890        47
50.900         7
50.910        13
50.920        20
50.930        20
50.940         7
50.950         7
50.960        27
50.970        20
50.980         0
50.990         7
51.000        13
51.010        20
51.020        13
51.030        33
51.040        13
51.050        20
51.060        20
51.070        33
51.080         7
51.090        27
51.100         7
51.110        20
51.120         7
51.130        40
51.140        27
51.150         7
51.160        20
51.170        27
51.180        20
51.190        33
51.200        20
51.210        13
51.220        13
51.230        40
51.240        20
51.250        27
51.260        13
51.270        47
51.280         7
51.290        20
51.300        13
51.310        13
51.320        13
51.330         0
51.340        53
51.350        27
51.360        27
51.370        60
51.380        20
51.390        27
51.400        20
51.410         7
51.420        20
51.430        20
51.440        13
51.450        27
51.460        13
51.470        27
51.480        20
51.490        20
51.500        13
51.510        27
51.520         7
51.530        27
51.540         7
51.550        33
51.560        33
51.570        40
51.580        13
51.590        27
51.600         7
51.610        20
51.620        20
51.630        20
51.640        33
51.650        27
51.660        33
51.670        27
51.680        27
51.690        40
51.700        53
51.710        33
51.720        20
51.730        40
51.740        13
51.750        33
51.760        47
51.770        40
51.780        27
51.790        27
51.800        20
51.810         7
51.820        13
51.830        40
51.840        27
51.850        47
51.860        47
51.870        27
51.880        27
51.890        53
51.900        40
51.910        40
51.920        33
51.930        40
51.940        13
51.950         0
51.960        33
51.970        27
51.980        13
51.990        47
52.000        40
52.010        27
52.020        40
52.030        33
52.040         0
52.050        33
52.060        33
52.070        27
52.080        20
52.090        13
52.100        20
52.110        33
52.120         7
52.130        20
52.140        40
52.150        27
52.160         0
52.170         7
52.180        13
52.190         7
52.200        13
52.210        13
52.220        13
52.230        20
52.240        20
52.250        33
52.260        13
52.270        20
52.280        20
52.290        13
52.300        20
52.310        33
52.320        27
52.330        20
52.340         7
52.350        27
52.360         7
52.370        20
52.380        33
52.390        33
52.400        20
52.410        67
52.420        27
52.430        27
52.440        33
52.450        27
52.460        20
52.470        20
52.480         7
52.490         7
52.500        53
52.510        40
52.520        13
52.530        47
52.540        53
52.550        27
52.560        47
52.570        20
52.580        33
52.590        27
52.600        27
52.610        60
52.620        73
52.630        20
52.640        13
52.650        27
52.660        13
52.670        20
52.680        13
52.690        33
52.700        60
52.710        20
52.720         0
52.730        47
52.740        33
52.750        47
52.760        13
52.770         7
52.780        27
52.790        20
52.800        13
52.810         0
52.820        13
52.830         7
52.840        20
52.850        27
52.860         7
52.870         7
52.880        13
52.890        13
52.900        33
52.910        13
52.920         7
52.930        13
52.940         0
52.950         7
52.960         7
52.970        20
52.980        40
52.990        20
53.000        13
53.010        27
53.020         7
53.030        20
53.040        13
53.050        20
53.060        27
53.070        47
53.080        20
53.090        20
53.100         7
53.110         0
53.120        27
53.130         0
53.140        13
53.150        13
53.160        13
53.170        13
53.180        47
53.190        20
53.200        13
53.210        13
53.220        13
53.230        20
53.240        20
53.250         7
53.260         7
53.270         7
53.280         7
53.290        27
53.300         7
53.310        13
53.320        20
53.330         7
53.340         7
53.350         7
53.360        13
53.370        27
53.380        13
53.390        27
53.400        20
53.410        40
53.420         7
53.430        53
53.440         0
53.450        27
53.460        20
53.470        27
53.480        13
53.490        13
53.500        33
53.510         0
53.520        13
53.530        13
53.540        40
53.550        33
53.560         7
53.570        13
53.580        20
53.590        20
53.600        13
53.610         7
53.620        47
53.630        20
53.640        20
53.650        13
53.660        27
53.670        13
53.680        20
53.690        40
53.700        13
53.710        20
53.720        13
53.730         0
53.740        13
53.750        13
53.760        20
53.770         7
53.780        33
53.790        33
53.800         7
53.810        13
53.820         0
53.830        13
53.840         7
53.850        27
53.860         0
53.870         0
53.880         7
53.890         7
53.900        33
53.910        13
53.920        13
53.930         7
53.940        13
53.950        20
53.960        13
53.970         7
53.980        13
53.990        27
54.000        20
54.010        13
54.020        33
54.030        20
54.040        13
54.050         7
54.060        20
54.070        13
54.080         7
54.090        27
54.100         7
54.110         7
54.120         0
54.130        33
54.140        13
54.150        13
54.160        27
54.170         7
54.180        20
54.190        13
54.200         0
54.210         7
54.220        47
54.230        33
54.240         7
54.250         0
54.260        20
54.270         7
54.280        27
54.290         7
54.300         7
54.310         7
54.320        20
54.330        20
54.340        13
54.350        13
54.360        20
54.370         7
54.380        40
54.390        20
54.400         0
54.410        20
54.420        20
54.430        20
54.440        33
54.450        40
54.460        20
54.470        13
54.480        20
54.490         0
54.500        27
54.510         7
54.520        13
54.530        13
54.540        40
54.550        20
54.560        20
54.570        13
54.580        13
54.590         0
54.600        20
54.610        20
54.620        33
54.630         7
54.640        13
54.650        20
54.660        13
54.670        27
54.680        13
54.690        33
54.700         7
54.710        13
54.720        13
54.730         7
54.740        20
54.750         7
54.760        20
54.770        20
54.780        20
54.790         7
54.800        20
54.810        27
54.820        13
54.830        27
54.840        33
54.850        33
54.860        13
54.870        33
54.880        27
54.890         7
54.900        20
54.910        13
54.920        40
54.930        20
54.940        20
54.950         7
54.960        13
54.970        13
54.980        13
54.990        27
55.000        33
55.010        27
55.020        13
55.030        13
55.040        33
55.050        20
55.060         7
55.070        13
55.080        33
55.090         7
55.100         7
55.110         0
55.120         7
55.130        20
55.140        13
55.150         7
55.160        20
55.170        20
55.180        27
55.190        13
55.200        27
55.210         7
55.220         7
55.230        27
55.240        20
55.250        13
55.260        13
55.270         7
55.280        33
55.290        40
55.300         0
55.310        27
55.320        13
55.330        27
55.340        13
55.350        27
55.360        27
55.370        53
55.380        13
55.390        33
55.400         7
55.410        13
55.420        13
55.430         0
55.440        20
55.450        40
55.460        20
55.470        13
55.480        27
55.490         7
55.500        20
55.510        27
55.520        20
55.530        33
55.540        20
55.550        40
55.560        13
55.570        27
55.580        40
55.590        40
55.600        27
55.610        27
55.620        20
55.630        20
55.640        27
55.650        40
55.660        13
55.670        53
55.680        27
55.690        33
55.700        27
55.710        20
55.720        13
55.730        20
55.740        33
55.750         7
55.760        33
55.770        33
55.780        53
55.790        47
55.800        27
55.810        27
55.820        33
55.830        40
55.840        53
55.850        20
55.860        27
55.870        40
55.880        33
55.890        47
55.900        40
55.910        47
55.920        47
55.930        27
55.940        33
55.950        47
55.960        40
55.970        20
55.980        73
55.990        47
56.000        47
56.010        40
56.020        20
56.030        27
56.040        60
56.050        40
56.060        27
56.070        33
56.080        33
56.090        47
56.100        33
56.110        47
56.120        20
56.130        13
56.140        40
56.150        47
56.160        53
56.170        13
56.180        27
56.190        73
56.200        13
56.210        27
56.220        47
56.230        33
56.240        40
56.250        33
56.260        33
56.270        20
56.280        40
56.290        20
56.300        20
56.310        27
56.320        27
56.330        13
56.340        27
56.350         7
56.360         7
56.370         7
56.380        33
56.390        13
56.400        33
56.410        40
56.420        53
56.430        33
56.440        40
56.450        33
56.460        40
56.470         7
56.480        13
56.490        20
56.500        47
56.510         7
56.520        33
56.530        53
56.540         7
56.550        13
56.560        13
56.570        13
56.580         7
56.590         7
56.600        27
56.610        20
56.620        20
56.630        20
56.640        20
56.650        13
56.660        13
56.670        27
56.680        13
56.690         0
56.700        20
56.710         7
56.720        27
56.730        13
56.740         7
56.750         0
56.760         7
56.770        20
56.780        27
56.790        20
56.800        33
56.810        13
56.820        27
56.830        13
56.840        13
56.850        33
56.860        33
56.870         7
56.880        27
56.890        20
56.900         7
56.910        13
56.920         7
56.930        20
56.940        13
56.950        20
56.960        33
56.970        20
56.980        33
56.990        27
57.000        20
57.010        33
57.020        13
57.030        20
57.040        13
57.050        13
57.060         7
57.070        33
57.080        20
57.090        27
57.100        20
57.110        13
57.120        33
57.130        13
57.140        20
57.150        20
57.160        27
57.170        27
57.180        27
57.190        27
57.200        40
57.210        13
57.220        53
57.230        20
57.240        27
57.250        47
57.260        40
57.270        27
57.280        20
57.290        67
57.300        27
57.310        27
57.320        13
57.330        27
57.340        67
57.350        53
57.360        47
57.370        40
57.380        40
57.390        67
57.400        60
57.410        47
57.420        67
57.430        67
57.440        93
57.450        33
57.460        60
57.470        80
57.480       120
57.490       147
57.500       153
57.510       200
57.520       280
57.530       400
57.540       300
57.550       413
57.560       227
57.570       187
57.580       180
57.590       160
57.600        87
57.610       127
57.620        60
57.630        53
57.640       107
57.650        87
57.660       120
57.670        93
57.680       133
57.690       160
57.700       160
57.710       153
57.720       107
57.730        93
57.740        93
57.750        67
57.760        27
57.770        40
57.780        53
57.790        47
57.800        13
57.810        27
57.820        20
57.830         7
57.840        53
57.850        20
57.860        13
57.870        33
57.880        20
57.890         7
57.900        20
57.910        13
57.920        13
57.930         0
57.940        27
57.950        33
57.960        33
57.970         0
57.980         0
57.990        20
58.000        13
58.010        47
58.020        27
58.030        13
58.040        47
58.050        53
58.060        40
58.070        20
58.080        13
58.090        13
58.100        53
58.110        27
58.120        27
58.130        27
58.140        33
58.150        33
58.160        13
58.170        27
58.180         7
58.190        27
58.200        27
58.210        20
58.220        20
58.230        27
58.240        33
58.250        20
58.260        13
58.270        20
58.280        27
58.290        13
58.300        13
58.310        13
58.320        13
58.330        13
58.340        33
58.350         7
58.360        20
58.370         7
58.380         7
58.390        33
58.400        13
58.410        20
58.420         0
58.430        40
58.440        27
58.450        13
58.460         7
58.470        27
58.480        13
58.490        20
58.500        27
58.510        20
58.520        33
58.530        13
58.540        33
58.550        13
58.560         7
58.570         0
58.580         7
58.590        20
58.600        20
58.610        20
58.620        13
58.630        13
58.640         7
58.650        20
58.660        33
58.670        20
58.680        13
58.690         0
58.700        13
58.710         7
58.720        27
58.730        20
58.740        40
58.750        13
58.760         7
58.770        20
58.780        33
58.790        20
58.800         7
58.810        13
58.820         0
58.830        20
58.840        13
58.850        20
58.860        27
58.870         7
58.880        13
58.890        20
58.900        20
58.910        20
58.920        27
58.930        33
58.940         7
58.950         7
58.960         0
58.970        13
58.980         0
58.990        13
59.000        20
59.010         7
59.020        20
59.030        20
59.040        27
59.050        20
59.060        13
59.070        20
59.080        13
59.090        13
59.100        33
59.110        27
59.120         7
59.130        27
59.140        40
59.150         0
59.160         7
59.170        33
59.180        27
59.190        27
59.200         7
59.210        33
59.220        13
59.230         0
59.240         0
59.250         7
59.260        20
59.270        13
59.280         7
59.290        33
59.300         7
59.310        20
59.320        20
59.330        40
59.340         7
59.350        20
59.360        20
59.370        20
59.380        13
59.390         7
59.400        20
59.410        20
59.420        13
59.430        33
59.440        13
59.450         0
59.460         7
59.470         7
59.480         7
59.490        20
59.500        13
59.510         7
59.520        27
59.530         7
59.540        13
59.550        13
59.560        20
59.570         7
59.580        13
59.590        13
59.600         0
59.610        13
59.620        20
59.630        40
59.640        20
59.650         0
59.660        13
59.670        33
59.680        20
59.690        13
59.700        20
59.710        13
59.720         7
59.730        13
59.740        13
59.750         7
59.760        47
59.770        20
59.780        40
59.790        27
59.800        20
59.810         7
59.820        20
59.830        20
59.840        20
59.850        20
59.860        13
59.870        27
59.880        40
59.890        20
59.900        20
59.910        27
59.920        27
59.930        47
59.940        27
59.950        13
59.960        20
59.970        27
59.980        20
59.990         7
60.000        27
