20.000       107
20.010        67
20.020       107
20.030        27
20.040       173
20.050        80
20.060        53
20.070        40
20.080       120
20.090        40
20.100        27
20.110       120
20.120        93
20.130       120
20.140       107
20.150       107
20.160        93
20.170        40
20.180       133
20.190       120
20.200       107
20.210       107
20.220       107
20.230       120
20.240       107
20.250        67
20.260        40
20.270        93
20.280        80
20.290        80
20.300       133
20.310        53
20.320        80
20.330        80
20.340       107
20.350        80
20.360       120
20.370       120
20.380        67
20.390        67
20.400        67
20.410        80
20.420        80
20.430       133
20.440        67
20.450        93
20.460        53
20.470        93
20.480        67
20.490        67
20.500        80
20.510       187
20.520       120
20.530        40
20.540        93
20.550        53
20.560        80
20.570       107
20.580       133
20.590       107
20.600       107
20.610       107
20.620       160
20.630        80
20.640        40
20.650       147
20.660       147
20.670        53
20.680       107
20.690        80
20.700        67
20.710        53
20.720       160
20.730       107
20.740        40
20.750        93
20.760        80
20.770       107
20.780        80
20.790        67
20.800        93
20.810        53
20.820       107
20.830       107
20.840        93
20.850        40
20.860        93
20.870        40
20.880        53
20.890        80
20.900        67
20.910        93
20.920       133
20.930        93
20.940       173
20.950       133
20.960        67
20.970        53
20.980       133
20.990        93
21.000       160
21.010        80
21.020        93
21.030        93
21.040        80
21.050       160
21.060        80
21.070       120
21.080        67
21.090        27
21.100        40
21.110       173
21.120        27
21.130        67
21.140        40
21.150        40
21.160       107
21.170       120
21.180       107
21.190       160
21.200        27
21.210        93
21.220       133
21.230       133
21.240        53
21.250       120
21.260       133
21.270        93
21.280        80
21.290        53
21.300       107
21.310        53
21.320       120
21.330        80
21.340       133
21.350        80
21.360        93
21.370        93
21.380       107
21.390        53
21.400        53
21.410       133
21.420        67
21.430        40
21.440        67
21.450        53
21.460       107
21.470        67
21.480        80
21.490       173
21.500        67
21.510        93
21.520        80
21.530       133
21.540        80
21.550        53
21.560       173
21.570        40
21.580       107
21.590       173
21.600       147
21.610        40
21.620        80
21.630       187
21.640       107
21.650        80
21.660       120
21.670        93
21.680       120
21.690       107
21.700       120
21.710       173
21.720       120
21.730       160
21.740        67
21.750        67
21.760       107
21.770        67
21.780        40
21.790        93
21.800       173
21.810       107
21.820        80
21.830       107
21.840        67
21.850        80
21.860        80
21.870        67
21.880        93
21.890       160
21.900       160
21.910       120
21.920       107
21.930       107
21.940       173
21.950       147
21.960        53
21.970       120
21.980       147
21.990       120
22.000       107
22.010       187
22.020        93
22.030       173
22.040       120
22.050       107
22.060       187
22.070       160
22.080       133
22.090       160
22.100        80
22.110       120
22.120       200
22.130       147
22.140        80
22.150       213
22.160       213
22.170       187
22.180       187
22.190       147
22.200       107
22.210       160
22.220       120
22.230       147
22.240       200
22.250       147
22.260       133
22.270       147
22.280       187
22.290       147
22.300       133
22.310       147
22.320       173
22.330       120
22.340       107
22.350        67
22.360       173
22.370        93
22.380       160
22.390       253
22.400       173
22.410       160
22.420       173
22.430       147
22.440       253
22.450       160
22.460       173
22.470       240
22.480       187
22.490       187
22.500       187
22.510       173
22.520       120
22.530       293
22.540       173
22.550       213
22.560       213
22.570       213
22.580       227
22.590       267
22.600       173
22.610       320
22.620       187
22.630       267
22.640       333
22.650       147
22.660       293
22.670       200
22.680       253
22.690       173
22.700       187
22.710       293
22.720       187
22.730       213
22.740       280
22.750       173
22.760       160
22.770       240
22.780       187
22.790       280
22.800       173
22.810       187
22.820       267
22.830       133
22.840       227
22.850       200
22.860       120
22.870       213
22.880       160
22.890       147
22.900       267
22.910       293
22.920       333
22.930       293
22.940       293
22.950       253
22.960       333
22.970       200
22.980       240
22.990       187
23.000       227
23.010       227
23.020       147
23.030       200
23.040       200
23.050       253
23.060       506
23.070       307
23.080       546
23.090       760
23.100       906
23.110       906
23.120      1093
23.130      1133
23.140       920
23.150       840
23.160       626
23.170       373
23.180       240
23.190       320
23.200       187
23.210       160
23.220       267
23.230       200
23.240       227
23.250       280
23.260       253
23.270       307
23.280       293
23.290       107
23.300       213
23.310       280
23.320       253
23.330       133
23.340       200
23.350       253
23.360       147
23.370       160
23.380       240
23.390       227
23.400       187
23.410       120
23.420       227
23.430       187
23.440       200
23.450       133
23.460       160
23.470       200
23.480       147
23.490       120
23.500       187
23.510       107
23.520       253
23.530       213
23.540       267
23.550       200
23.560       187
23.570       253
23.580       133
23.590       213
23.600       213
23.610       200
23.620       213
23.630       240
23.640       200
23.650       187
23.660       213
23.670       173
23.680       147
23.690       173
23.700       187
23.710       200
23.720       213
23.730       187
23.740       253
23.750       267
23.760       160
23.770       147
23.780       227
23.790       227
23.800       213
23.810       133
23.820       173
23.830       227
23.840       160
23.850       160
23.860       173
23.870       240
23.880       280
23.890       307
23.900       147
23.910       293
23.920       133
23.930       213
23.940       187
23.950       160
23.960       173
23.970       200
23.980       320
23.990       200
24.000       240
24.010       107
24.020       213
24.030       147
24.040       133
24.050       160
24.060       213
24.070       213
24.080       160
24.090       173
24.100       213
24.110       173
24.120       173
24.130       187
24.140       253
24.150       200
24.160       187
24.170       227
24.180       187
24.190       187
24.200       187
24.210       293
24.220       307
24.230       307
24.240       120
24.250       160
24.260       213
24.270       173
24.280       120
24.290       147
24.300       160
24.310       200
24.320       240
24.330       280
24.340       240
24.350       133
24.360       200
24.370       227
24.380       133
24.390       187
24.400       240
24.410       160
24.420       227
24.430       200
24.440       160
24.450       173
24.460       240
24.470       173
24.480       133
24.490       200
24.500       240
24.510       227
24.520       213
24.530       187
24.540        27
24.550       240
24.560       267
24.570       213
24.580       213
24.590       267
24.600       253
24.610       160
24.620       187
24.630       173
24.640       267
24.650       107
24.660       187
24.670       160
24.680       133
24.690       466
24.700       320
24.710       400
24.720       426
24.730       373
24.740       347
24.750       413
24.760       400
24.770       533
24.780       533
24.790       453
24.800       573
24.810       493
24.820       546
24.830       440
24.840       626
24.850       413
24.860       413
24.870       533
24.880       440
24.890       400
24.900       640
24.910       586
24.920       586
24.930       453
24.940       653
24.950       560
24.960       586
24.970       653
24.980       400
24.990       506
25.000       466
25.010       480
25.020       573
25.030       600
25.040       440
25.050       600
25.060       533
25.070       573
25.080       613
25.090       640
25.100       466
25.110       533
25.120       453
25.130       546
25.140       440
25.150       573
25.160       533
25.170       466
25.180       613
25.190       506
25.200       560
25.210       640
25.220       480
25.230       426
25.240       453
25.250       560
25.260       520
25.270       560
25.280       586
25.290       666
25.300       773
25.310       680
25.320       720
25.330       813
25.340       960
25.350      1133
25.360      1439
25.370      1773
25.380      1559
25.390      2372
25.400      2386
25.410      2852
25.420      3412
25.430      3972
25.440      4372
25.450      3812
25.460      4478
25.470      5291
25.480      5664
25.490      5371
25.500      6131
25.510      6717
25.520      7304
25.530      7264
25.540      8450
25.550     11729
25.560     17660
25.570     29362
25.580     48061
25.590     69039
25.600     85099
25.610     95282
25.620    103199
25.630    106944
25.640    106597
25.650     96095
25.660     80195
25.670     68653
25.680     61002
25.690     58790
25.700     55245
25.710     48461
25.720     34853
25.730     20085
25.740     10303
25.750      6024
25.760      3665
25.770      3039
25.780      2426
25.790      2106
25.800      1773
25.810      1546
25.820      1639
25.830      1240
25.840      1266
25.850      1213
25.860      1000
25.870       973
25.880       866
25.890       733
25.900       853
25.910       960
25.920       933
25.930       786
25.940       893
25.950       666
25.960       893
25.970       586
25.980       693
25.990       666
26.000       746
26.010       720
26.020       826
26.030       773
26.040       586
26.050       573
26.060       493
26.070       653
26.080       573
26.090       666
26.100       493
26.110       440
26.120       480
26.130       720
26.140       453
26.150       440
26.160       533
26.170       520
26.180       546
26.190       533
26.200       413
26.210       466
26.220       533
26.230       493
26.240       760
26.250       626
26.260       560
26.270       600
26.280       387
26.290       400
26.300       546
26.310       453
26.320       413
26.330       600
26.340       546
26.350       440
26.360       560
26.370       373
26.380       506
26.390       426
26.400       373
26.410       387
26.420       413
26.430       440
26.440       360
26.450       387
26.460       613
26.470       400
26.480       520
26.490       453
26.500       387
26.510       426
26.520       413
26.530       373
26.540       520
26.550       480
26.560       426
26.570       520
26.580       413
26.590       520
26.600       347
26.610       373
26.620       387
26.630       466
26.640       333
26.650       426
26.660       493
26.670       413
26.680       626
26.690       413
26.700       453
26.710       360
26.720       466
26.730       466
26.740       480
26.750       546
26.760       400
26.770       413
26.780       480
26.790       360
26.800       360
26.810       267
26.820       560
26.830       453
26.840       520
26.850       400
26.860       426
26.870       466
26.880       546
26.890       387
26.900       613
26.910       466
26.920       613
26.930       453
26.940       400
26.950       360
26.960       493
26.970       413
26.980       360
26.990       360
27.000       440
27.010       240
27.020       413
27.030       400
27.040       546
27.050       253
27.060       506
27.070       426
27.080       373
27.090       413
27.100       213
27.110       360
27.120       253
27.130       280
27.140       333
27.150       347
27.160       400
27.170       360
27.180       240
27.190       426
27.200       360
27.210       440
27.220       506
27.230       400
27.240       426
27.250       280
27.260       360
27.270       360
27.280       373
27.290       320
27.300       360
27.310       426
27.320       360
27.330       400
27.340       373
27.350       360
27.360       360
27.370       360
27.380       293
27.390       360
27.400       333
27.410       400
27.420       533
27.430       347
27.440       280
27.450       293
27.460       506
27.470       333
27.480       506
27.490       506
27.500       493
27.510       413
27.520       480
27.530       387
27.540       360
27.550       320
27.560       373
27.570       466
27.580       400
27.590       480
27.600       347
27.610       347
27.620       373
27.630       413
27.640       307
27.650       360
27.660       413
27.670       387
27.680       293
27.690       413
27.700       347
27.710       360
27.720       333
27.730       466
27.740       347
27.750       387
27.760       400
27.770       533
27.780       200
27.790       387
27.800       453
27.810       320
27.820       413
27.830       387
27.840       440
27.850       373
27.860       280
27.870       333
27.880       520
27.890       387
27.900       426
27.910       426
27.920       400
27.930       267
27.940       440
27.950       240
27.960       347
27.970       373
27.980       320
27.990       360
28.000       307
28.010       347
28.020       360
28.030       307
28.040       466
28.050       480
28.060       253
28.070       360
28.080       453
28.090       280
28.100       440
28.110       413
28.120       573
28.130       480
28.140       333
28.150       280
28.160       387
28.170       360
28.180       333
28.190       400
28.200       320
28.210       320
28.220       360
28.230       560
28.240       307
28.250       453
28.260       453
28.270       360
28.280       347
28.290       333
28.300       333
28.310       493
28.320       453
28.330       240
28.340       520
28.350       387
28.360       426
28.370       253
28.380       320
28.390       307
28.400       200
28.410       347
28.420       373
28.430       426
28.440       293
28.450       320
28.460       373
28.470       267
28.480       373
28.490       373
28.500       360
28.510       213
28.520       333
28.530       293
28.540       373
28.550       493
28.560       360
28.570       347
28.580       426
28.590       413
28.600       400
28.610       387
28.620       293
28.630       453
28.640       466
28.650       240
28.660       453
28.670       480
28.680       426
28.690       440
28.700       546
28.710       453
28.720       373
28.730       493
28.740       293
28.750       453
28.760       413
28.770       586
28.780       440
28.790       520
28.800       400
28.810       400
28.820       440
28.830       613
28.840       480
28.850       480
28.860       653
28.870       533
28.880       493
28.890       480
28.900       600
28.910       546
28.920       653
28.930       626
28.940       546
28.950       680
28.960       720
28.970       480
28.980       560
28.990       600
29.000       546
29.010       666
29.020       733
29.030       640
29.040       706
29.050       546
29.060       680
29.070       640
29.080       600
29.090       493
29.100       613
29.110       600
29.120       640
29.130       640
29.140       506
29.150       546
29.160       480
29.170       267
29.180       347
29.190       520
29.200       613
29.210       347
29.220       293
29.230       280
29.240       466
29.250       240
29.260       466
29.270       373
29.280       440
29.290       413
29.300       466
29.310       440
29.320       426
29.330       293
29.340       413
29.350       320
29.360       280
29.370       373
29.380       293
29.390       413
29.400       373
29.410       453
29.420       426
29.430       426
29.440       293
29.450       413
29.460       426
29.470       506
29.480       480
29.490       440
29.500       493
29.510       493
29.520       600
29.530       453
29.540       520
29.550       373
29.560       453
29.570       480
29.580       520
29.590       520
29.600       466
29.610       520
29.620       520
29.630       413
29.640       546
29.650       426
29.660       413
29.670       400
29.680       440
29.690       413
29.700       440
29.710       506
29.720       440
29.730       387
29.740       413
29.750       333
29.760       307
29.770       333
29.780       320
29.790       267
29.800       240
29.810       187
29.820       400
29.830       280
29.840       253
29.850       307
29.860       307
29.870       360
29.880       360
29.890       360
29.900       280
29.910       333
29.920       360
29.930       307
29.940       320
29.950       320
29.960       347
29.970       293
29.980       307
29.990       307
30.000       280
30.010       227
30.020       307
30.030       133
30.040       320
30.050       280
30.060       307
30.070       307
30.080       333
30.090       240
30.100       227
30.110       280
30.120       147
30.130       347
30.140       267
30.150       200
30.160       373
30.170       253
30.180       293
30.190       293
30.200       200
30.210       227
30.220       347
30.230       347
30.240       240
30.250       253
30.260       227
30.270       360
30.280       280
30.290       293
30.300       240
30.310       320
30.320       267
30.330       240
30.340       253
30.350       227
30.360       187
30.370       267
30.380       200
30.390       307
30.400       200
30.410       267
30.420       333
30.430       240
30.440       253
30.450       267
30.460       280
30.470       280
30.480       307
30.490       280
30.500       333
30.510       267
30.520       293
30.530       240
30.540       147
30.550       267
30.560       320
30.570       307
30.580       253
30.590       320
30.600       267
30.610       253
30.620       213
30.630       227
30.640       240
30.650       373
30.660       253
30.670       187
30.680       253
30.690       280
30.700       213
30.710       253
30.720       387
30.730       160
30.740       307
30.750       253
30.760       240
30.770       293
30.780       187
30.790       187
30.800       227
30.810       173
30.820       240
30.830       227
30.840       307
30.850       347
30.860       213
30.870       227
30.880       253
30.890       267
30.900       267
30.910       227
30.920       213
30.930       173
30.940       267
30.950       293
30.960       227
30.970       227
30.980       240
30.990       360
31.000       200
31.010       387
31.020       187
31.030       227
31.040       240
31.050       280
31.060       293
31.070       173
31.080       200
31.090       267
31.100       253
31.110       147
31.120       320
31.130       280
31.140       387
31.150       160
31.160       267
31.170       173
31.180       213
31.190       253
31.200       133
31.210       213
31.220       320
31.230       227
31.240       187
31.250       253
31.260       213
31.270       213
31.280       293
31.290       147
31.300       240
31.310       160
31.320       227
31.330       213
31.340       173
31.350       240
31.360       240
31.370       200
31.380       173
31.390       147
31.400       173
31.410       147
31.420       120
31.430       160
31.440       227
31.450       240
31.460       213
31.470       253
31.480       160
31.490       280
31.500       293
31.510       147
31.520       147
31.530       187
31.540       200
31.550       133
31.560       147
31.570       133
31.580       227
31.590       280
31.600       160
31.610       227
31.620       293
31.630       253
31.640       227
31.650       133
31.660       240
31.670       147
31.680       187
31.690       253
31.700       200
31.710       253
31.720       240
31.730       200
31.740       240
31.750       120
31.760       240
31.770       200
31.780       240
31.790       187
31.800       147
31.810       293
31.820       187
31.830       253
31.840       213
31.850       240
31.860       147
31.870       147
31.880       200
31.890       227
31.900       160
31.910       187
31.920       307
31.930       187
31.940        80
31.950       173
31.960       240
31.970       200
31.980       280
31.990       227
32.000       160
32.010       200
32.020       147
32.030       293
32.040       160
32.050       280
32.060       187
32.070       213
32.080       200
32.090       253
32.100       253
32.110       347
32.120       253
32.130       253
32.140       307
32.150       307
32.160       373
32.170       293
32.180       426
32.190       307
32.200       293
32.210       200
32.220       173
32.230       307
32.240       227
32.250       160
32.260       200
32.270       213
32.280       293
32.290       293
32.300       227
32.310       173
32.320       160
32.330       147
32.340       307
32.350       227
32.360       227
32.370       160
32.380       147
32.390       267
32.400       187
32.410       187
32.420       133
32.430       187
32.440       173
32.450       187
32.460       160
32.470       240
32.480       240
32.490       120
32.500       187
32.510       253
32.520       187
32.530       173
32.540       200
32.550       187
32.560       120
32.570       173
32.580       200
32.590       173
32.600       173
32.610       187
32.620       133
32.630       227
32.640       173
32.650       187
32.660       200
32.670       187
32.680       253
32.690       187
32.700       107
32.710       160
32.720       307
32.730       253
32.740       160
32.750       147
32.760       107
32.770       173
32.780       173
32.790       280
32.800       147
32.810        93
32.820       187
32.830       240
32.840       120
32.850       227
32.860       120
32.870       200
32.880       173
32.890       213
32.900       240
32.910       160
32.920        80
32.930        80
32.940       147
32.950       147
32.960       107
32.970       120
32.980       200
32.990       133
33.000       253
33.010       227
33.020       187
33.030       120
33.040        80
33.050       187
33.060       160
33.070        93
33.080       160
33.090       187
33.100        93
33.110       173
33.120       173
33.130       120
33.140       187
33.150       200
33.160       160
33.170       133
33.180       107
33.190       107
33.200       120
33.210       227
33.220       187
33.230       147
33.240       173
33.250       227
33.260       187
33.270       160
33.280       107
33.290       107
33.300       120
33.310       147
33.320       173
33.330       213
33.340       160
33.350        53
33.360       120
33.370       120
33.380       160
33.390       107
33.400       147
33.410       227
33.420       173
33.430       107
33.440       173
33.450       133
33.460       160
33.470        93
33.480       133
33.490       187
33.500       160
33.510       240
33.520        93
33.530       173
33.540       187
33.550       147
33.560       147
33.570       173
33.580       240
33.590        67
33.600       120
33.610       120
33.620        67
33.630       187
33.640        80
33.650       107
33.660        80
33.670       147
33.680       107
33.690        93
33.700        93
33.710       200
33.720       267
33.730       160
33.740       147
33.750       173
33.760       173
33.770       147
33.780       187
33.790       160
33.800        67
33.810       200
33.820       147
33.830        40
33.840       120
33.850       133
33.860       173
33.870        93
33.880       173
33.890       120
33.900       173
33.910       147
33.920       187
33.930       147
33.940       147
33.950       120
33.960       147
33.970       173
33.980       107
33.990        80
34.000       160
34.010       107
34.020       213
34.030       120
34.040       173
34.050       107
34.060        67
34.070       173
34.080       187
34.090       213
34.100       120
34.110       173
34.120        67
34.130       213
34.140       187
34.150       147
34.160       160
34.170        53
34.180       187
34.190       133
34.200       160
34.210       187
34.220       173
34.230       120
34.240        93
34.250       213
34.260       173
34.270       133
34.280        80
34.290       187
34.300       147
34.310       173
34.320        80
34.330       147
34.340       173
34.350       120
34.360       107
34.370       120
34.380       187
34.390       173
34.400       147
34.410        93
34.420       133
34.430       107
34.440        93
34.450        93
34.460        93
34.470       147
34.480       227
34.490       133
34.500       200
34.510       107
34.520        93
34.530       120
34.540       173
34.550       107
34.560       173
34.570       120
34.580       120
34.590       133
34.600       147
34.610       173
34.620       160
34.630       173
34.640        80
34.650       147
34.660       147
34.670       160
34.680       120
34.690       133
34.700        93
34.710       173
34.720       120
34.730       133
34.740       173
34.750       147
34.760       107
34.770       107
34.780       187
34.790       213
34.800       107
34.810       213
34.820       173
34.830        67
34.840       107
34.850       133
34.860       187
34.870        93
34.880       147
34.890        67
34.900       120
34.910       173
34.920        80
34.930       147
34.940       160
34.950        53
34.960        93
34.970        80
34.980        67
34.990       107
35.000       107
35.010       120
35.020       107
35.030       120
35.040        40
35.050        53
35.060       160
35.070       147
35.080       133
35.090       187
35.100       160
35.110       133
35.120        80
35.130       200
35.140       120
35.150       107
35.160        53
35.170        80
35.180        93
35.190        53
35.200        93
35.210       120
35.220        53
35.230        67
35.240       240
35.250       120
35.260       160
35.270       107
35.280       133
35.290        80
35.300        93
35.310        93
35.320        80
35.330       213
35.340        80
35.350       147
35.360        80
35.370       160
35.380       107
35.390        80
35.400       107
35.410       133
35.420       147
35.430       133
35.440        67
35.450       160
35.460        67
35.470       107
35.480        93
35.490        93
35.500       133
35.510       120
35.520       160
35.530       160
35.540        93
35.550        80
35.560        53
35.570        67
35.580       133
35.590       120
35.600        67
35.610       120
35.620        80
35.630       133
35.640        80
35.650        80
35.660       133
35.670       107
35.680       133
35.690       147
35.700        40
35.710       107
35.720        93
35.730       120
35.740       173
35.750       107
35.760       147
35.770       160
35.780        93
35.790       187
35.800        93
35.810       133
35.820       107
35.830       120
35.840       107
35.850       133
35.860       107
35.870        80
35.880       107
35.890        80
35.900       147
35.910       107
35.920        93
35.930       147
35.940       133
35.950        53
35.960       107
35.970        80
35.980        53
35.990        80
36.000       107
36.010        93
36.020       213
36.030        93
36.040        67
36.050        80
36.060       120
36.070       120
36.080       133
36.090        93
36.100       147
36.110        93
36.120        67
36.130       133
36.140       267
36.150        93
36.160       160
36.170       120
36.180        93
36.190       120
36.200        80
36.210        40
36.220        80
36.230        93
36.240       120
36.250       120
36.260        67
36.270        80
36.280       133
36.290       120
36.300       107
36.310        53
36.320       120
36.330        67
36.340       120
36.350       160
36.360        67
36.370       147
36.380        27
36.390        67
36.400        80
36.410       120
36.420        93
36.430       120
36.440        80
36.450        93
36.460        80
36.470       120
36.480       133
36.490        80
36.500        40
36.510       107
36.520       160
36.530        80
36.540        80
36.550       107
36.560        80
36.570        67
36.580        93
36.590       107
36.600        53
36.610       187
36.620        40
36.630       107
36.640       120
36.650       120
36.660        93
36.670       160
36.680        67
36.690        80
36.700       147
36.710        67
36.720        80
36.730       107
36.740       120
36.750        93
36.760        93
36.770        53
36.780       160
36.790        67
36.800        67
36.810        80
36.820        93
36.830        80
36.840        80
36.850        53
36.860        40
36.870        67
36.880        80
36.890       107
36.900       107
36.910       107
36.920       200
36.930        93
36.940        93
36.950        93
36.960        80
36.970        80
36.980       107
36.990        93
37.000        93
37.010        53
37.020       107
37.030       107
37.040       120
37.050        80
37.060       120
37.070       107
37.080       120
37.090       147
37.100       160
37.110       173
37.120       133
37.130        93
37.140        67
37.150        67
37.160        93
37.170       160
37.180        93
37.190        93
37.200        67
37.210       133
37.220        80
37.230        53
37.240        40
37.250        93
37.260        67
37.270        80
37.280        93
37.290        53
37.300        93
37.310        53
37.320       133
37.330       133
37.340       160
37.350        93
37.360       133
37.370       147
37.380        53
37.390       133
37.400        80
37.410        67
37.420       107
37.430        67
37.440        93
37.450       120
37.460       107
37.470        80
37.480        67
37.490       107
37.500        93
37.510        67
37.520       187
37.530        40
37.540        93
37.550       160
37.560        67
37.570        40
37.580        67
37.590       133
37.600       107
37.610        93
37.620        67
37.630        67
37.640        13
37.650        93
37.660        67
37.670       160
37.680        93
37.690        67
37.700       120
37.710        27
37.720        53
37.730        93
37.740        27
37.750        93
37.760        67
37.770       120
37.780        67
37.790        80
37.800        93
37.810        80
37.820        53
37.830       120
37.840       107
37.850        93
37.860        53
37.870       107
37.880        80
37.890        40
37.900        80
37.910        53
37.920       120
37.930        53
37.940        27
37.950        80
37.960        93
37.970        40
37.980        93
37.990        93
38.000       107
38.010        40
38.020       133
38.030        67
38.040        53
38.050       133
38.060        40
38.070        80
38.080        93
38.090        40
38.100        53
38.110        93
38.120        93
38.130        80
38.140        53
38.150       133
38.160        40
38.170        80
38.180        80
38.190        53
38.200       133
38.210        80
38.220       120
38.230       107
38.240        80
38.250       160
38.260        67
38.270        93
38.280        67
38.290        40
38.300       107
38.310        40
38.320        80
38.330       107
38.340        40
38.350       120
38.360        53
38.370        67
38.380        93
38.390        67
38.400        27
38.410        53
38.420        93
38.430        53
38.440        40
38.450        67
38.460        67
38.470        40
38.480       120
38.490        40
38.500        53
38.510        93
38.520        53
38.530        13
38.540        93
38.550        93
38.560         0
38.570        67
38.580        53
38.590        53
38.600        67
38.610        40
38.620        67
38.630       147
38.640        27
38.650         0
38.660       147
38.670        53
38.680        53
38.690        67
38.700       120
38.710        67
38.720        53
38.730       107
38.740        80
38.750        53
38.760        93
38.770        80
38.780        80
38.790        93
38.800       133
38.810       120
38.820        93
38.830        27
38.840        53
38.850        13
38.860        80
38.870        80
38.880        80
38.890        93
38.900        53
38.910        67
38.920        67
38.930        93
38.940        13
38.950        53
38.960       133
38.970       133
38.980        93
38.990        93
39.000         0
39.010        67
39.020        53
39.030        80
39.040        40
39.050        80
39.060       120
39.070        80
39.080        53
39.090        67
39.100        53
39.110        67
39.120        53
39.130        80
39.140        67
39.150        67
39.160        27
39.170        40
39.180        80
39.190        80
39.200        80
39.210        53
39.220       107
39.230        53
39.240        27
39.250        80
39.260        93
39.270        40
39.280        67
39.290        53
39.300       107
39.310        40
39.320        67
39.330        40
39.340        27
39.350        67
39.360        67
39.370       107
39.380        80
39.390        53
39.400        80
39.410        93
39.420        27
39.430        80
39.440       120
39.450        27
39.460        27
39.470        53
39.480        93
39.490        80
39.500        93
39.510        67
39.520        53
39.530        93
39.540        80
39.550        40
39.560        67
39.570        40
39.580        27
39.590        53
39.600        67
39.610        40
39.620        53
39.630        67
39.640        53
39.650        80
39.660        80
39.670        67
39.680        40
39.690        53
39.700        40
39.710       107
39.720        80
39.730        80
39.740        80
39.750        67
39.760        13
39.770        40
39.780        27
39.790        53
39.800        67
39.810        53
39.820        53
39.830       107
39.840        53
39.850        40
39.860        53
39.870        27
39.880        93
39.890        67
39.900        67
39.910        27
39.920       120
39.930       107
39.940        13
39.950        13
39.960        93
39.970       107
39.980        40
39.990        80
40.000        67
40.010        67
40.020        27
40.030        27
40.040       120
40.050       120
40.060        53
40.070        40
40.080        27
40.090        67
40.100       107
40.110        40
40.120        67
40.130       107
40.140        53
40.150       147
40.160       147
40.170        40
40.180        67
40.190        93
40.200        67
40.210        80
40.220        53
40.230        80
40.240        53
40.250        27
40.260        13
40.270        67
40.280        40
40.290        80
40.300        67
40.310        80
40.320        80
40.330        40
40.340        80
40.350        67
40.360        27
40.370       120
40.380        53
40.390       133
40.400        67
40.410         0
40.420        53
40.430       107
40.440        93
40.450        93
40.460        53
40.470        53
40.480        27
40.490        53
40.500        53
40.510        53
40.520        80
40.530        67
40.540        53
40.550        80
40.560        93
40.570        67
40.580        93
40.590        93
40.600        13
40.610        13
40.620        40
40.630        53
40.640        40
40.650        27
40.660       107
40.670        93
40.680        40
40.690        53
40.700        53
40.710        40
40.720       107
40.730        67
40.740        53
40.750        67
40.760        67
40.770        40
40.780        80
40.790        93
40.800        53
40.810        80
40.820        27
40.830        80
40.840        93
40.850        67
40.860        27
40.870        80
40.880        80
40.890        13
40.900        53
40.910        40
40.920        93
40.930        27
40.940        40
40.950        27
40.960        27
40.970        67
40.980        80
40.990        53
41.000        53
41.010        80
41.020        80
41.030       107
41.040        40
41.050        67
41.060        67
41.070        93
41.080       107
41.090       120
41.100        80
41.110        40
41.120        53
41.130        80
41.140        80
41.150        53
41.160        80
41.170         0
41.180       120
41.190        27
41.200        27
41.210        53
41.220        67
41.230        67
41.240        80
41.250        13
41.260        40
41.270        27
41.280        53
41.290        67
41.300       107
41.310        67
41.320        13
41.330        40
41.340       133
41.350        53
41.360       120
41.370       107
41.380        27
41.390        53
41.400        67
41.410        40
41.420        40
41.430        27
41.440        53
41.450        53
41.460        67
41.470        40
41.480       133
41.490        80
41.500         0
41.510         0
41.520        40
41.530       107
41.540        67
41.550        80
41.560        27
41.570        27
41.580        27
41.590        40
41.600        27
41.610        53
41.620         0
41.630        93
41.640        40
41.650        27
41.660        93
41.670        67
41.680        53
41.690        27
41.700        67
41.710        27
41.720        67
41.730        67
41.740        40
41.750        53
41.760        40
41.770        27
41.780        27
41.790        40
41.800        53
41.810        27
41.820        53
41.830        80
41.840        27
41.850        80
41.860        53
41.870        80
41.880        53
41.890        27
41.900        67
41.910        40
41.920        40
41.930        67
41.940        13
41.950        27
41.960        53
41.970        67
41.980        53
41.990        27
42.000        53
42.010        13
42.020        27
42.030        27
42.040        27
42.050        27
42.060        40
42.070        53
42.080        53
42.090        53
42.100        80
42.110        27
42.120        40
42.130        80
42.140        13
42.150        40
42.160        67
42.170        40
42.180        80
42.190         0
42.200        27
42.210        40
42.220        80
42.230        67
42.240        40
42.250        27
42.260        93
42.270       107
42.280        27
42.290        93
42.300        67
42.310       107
42.320        80
42.330        13
42.340        93
42.350        27
42.360       160
42.370       120
42.380        67
42.390        93
42.400        67
42.410        67
42.420        93
42.430       120
42.440        67
42.450        53
42.460        67
42.470        40
42.480        80
42.490        93
42.500        67
42.510        53
42.520        67
42.530        93
42.540       107
42.550        53
42.560         0
42.570        67
42.580        67
42.590        40
42.600       107
42.610        80
42.620        27
42.630        53
42.640        27
42.650        40
42.660        67
42.670        80
42.680        80
42.690        67
42.700        53
42.710       133
42.720        80
42.730        80
42.740        93
42.750        53
42.760        67
42.770        53
42.780        80
42.790        67
42.800        40
42.810        53
42.820        80
42.830       120
42.840        80
42.850        53
42.860        40
42.870        80
42.880        40
42.890        93
42.900        67
42.910       133
42.920        67
42.930        40
42.940        67
42.950        80
42.960        93
42.970        53
42.980       133
42.990        53
43.000       120
43.010        67
43.020        40
43.030        67
43.040        27
43.050        53
43.060        27
43.070        93
43.080        13
43.090        67
43.100       107
43.110        80
43.120        13
43.130        67
43.140        53
43.150        40
43.160        67
43.170        40
43.180        53
43.190        80
43.200        53
43.210        27
43.220        80
43.230        53
43.240        27
43.250        53
43.260        27
43.270        27
43.280        13
43.290        27
43.300        13
43.310        13
43.320        13
43.330        13
43.340        67
43.350        53
43.360        80
43.370        53
43.380        53
43.390        53
43.400       107
43.410        53
43.420        80
43.430        40
43.440        27
43.450       107
43.460        27
43.470        13
43.480        13
43.490         0
43.500        53
43.510        27
43.520        53
43.530        67
43.540        93
43.550        27
43.560        93
43.570        27
43.580        67
43.590        27
43.600        53
43.610        40
43.620        27
43.630        13
43.640        67
43.650        67
43.660        53
43.670        40
43.680        67
43.690        53
43.700        53
43.710        27
43.720        80
43.730        27
43.740        53
43.750        40
43.760        67
43.770        53
43.780        53
43.790        40
43.800        53
43.810         0
43.820        13
43.830        13
43.840         0
43.850        40
43.860        40
43.870        40
43.880        53
43.890        27
43.900        40
43.910        27
43.920        40
43.930        13
43.940        53
43.950        40
43.960        40
43.970        53
43.980        67
43.990        67
44.000        13
44.010       107
44.020        40
44.030        67
44.040        27
44.050        53
44.060        67
44.070        40
44.080       147
44.090        80
44.100        13
44.110        40
44.120        40
44.130        40
44.140        80
44.150        40
44.160        67
44.170        27
44.180        27
44.190        27
44.200        27
44.210        40
44.220        40
44.230        53
44.240        27
44.250        27
44.260        67
44.270        40
44.280         0
44.290        40
44.300        80
44.310        53
44.320        67
44.330       107
44.340        67
44.350        67
44.360        40
44.370        67
44.380        40
44.390        40
44.400        67
44.410         0
44.420        13
44.430        27
44.440        93
44.450        40
44.460        80
44.470        13
44.480        67
44.490        53
44.500        27
44.510        67
44.520         0
44.530        27
44.540        40
44.550        40
44.560        67
44.570        27
44.580        67
44.590        53
44.600        53
44.610        93
44.620        67
44.630        53
44.640        27
44.650        27
44.660        27
44.670        27
44.680        67
44.690        13
44.700        40
44.710         0
44.720        53
44.730        27
44.740        40
44.750        40
44.760        27
44.770         0
44.780        67
44.790        40
44.800        27
44.810        53
44.820       107
44.830        40
44.840        40
44.850        40
44.860        53
44.870        93
44.880        27
44.890        13
44.900        93
44.910        27
44.920        53
44.930        53
44.940        27
44.950        67
44.960        53
44.970        13
44.980        27
44.990        53
45.000        27
45.010        67
45.020        27
45.030        13
45.040        27
45.050        40
45.060        67
45.070        53
45.080        53
45.090        93
45.100        53
45.110        13
45.120        27
45.130        67
45.140        53
45.150        13
45.160        27
45.170        53
45.180       120
45.190        53
45.200         0
45.210        40
45.220        13
45.230        27
45.240        53
45.250        40
45.260        13
45.270        13
45.280        53
45.290        53
45.300        27
45.310        13
45.320        93
45.330       107
45.340        53
45.350        13
45.360        53
45.370        27
45.380        27
45.390        40
45.400        27
45.410        53
45.420        40
45.430         0
45.440        40
45.450        27
45.460        40
45.470        27
45.480        53
45.490        27
45.500        53
45.510        67
45.520        93
45.530        27
45.540        53
45.550        27
45.560        67
45.570        67
45.580        13
45.590        93
45.600        13
45.610        67
45.620         0
45.630        40
45.640        53
45.650        67
45.660        27
45.670        13
45.680        80
45.690       107
45.700        80
45.710        53
45.720        13
45.730        53
45.740       107
45.750        13
45.760        53
45.770        27
45.780        40
45.790        53
45.800        53
45.810        13
45.820        40
45.830        80
45.840        40
45.850        67
45.860        53
45.870        53
45.880       133
45.890        40
45.900        67
45.910        80
45.920       107
45.930        53
45.940        93
45.950        67
45.960        93
45.970        40
45.980        80
45.990        53
46.000       120
46.010       147
46.020       120
46.030       120
46.040        40
46.050        67
46.060        93
46.070       147
46.080        67
46.090        93
46.100       160
46.110        93
46.120       120
46.130       160
46.140       147
46.150        80
46.160        93
46.170        40
46.180        93
46.190       107
46.200        80
46.210        67
46.220        93
46.230       107
46.240       133
46.250        40
46.260       107
46.270        67
46.280        53
46.290        67
46.300        53
46.310        93
46.320        80
46.330        80
46.340       147
46.350        13
46.360        67
46.370        27
46.380        40
46.390        93
46.400        67
46.410        27
46.420        27
46.430        40
46.440        40
46.450        27
46.460        93
46.470        67
46.480        40
46.490        40
46.500        93
46.510       107
46.520        67
46.530        40
46.540        40
46.550        53
46.560        27
46.570        40
46.580        53
46.590       133
46.600        27
46.610        67
46.620        27
46.630        53
46.640        27
46.650        53
46.660        80
46.670        13
46.680        27
46.690       120
46.700        27
46.710        40
46.720       133
46.730        67
46.740        80
46.750        80
46.760        53
46.770        53
46.780       133
46.790        40
46.800       120
46.810       120
46.820       160
46.830       147
46.840        80
46.850       120
46.860        93
46.870       160
46.880        13
46.890       120
46.900       107
46.910        67
46.920        93
46.930       107
46.940       120
46.950       173
46.960       107
46.970       147
46.980       120
46.990        67
47.000       147
47.010       133
47.020       120
47.030        93
47.040       187
47.050       133
47.060       107
47.070       120
47.080       133
47.090       120
47.100       293
47.110       200
47.120       200
47.130       253
47.140       213
47.150       413
47.160       600
47.170       866
47.180      1133
47.190      1306
47.200      1666
47.210      1693
47.220      1839
47.230      1426
47.240      1253
47.250      1226
47.260      1026
47.270       506
47.280       453
47.290       240
47.300       227
47.310       280
47.320       160
47.330       200
47.340       133
47.350        53
47.360        93
47.370       120
47.380       160
47.390        93
47.400        93
47.410       133
47.420        80
47.430        80
47.440        93
47.450        80
47.460        67
47.470        40
47.480       133
47.490        80
47.500        67
47.510        93
47.520       107
47.530       147
47.540        93
47.550        27
47.560        67
47.570        40
47.580        93
47.590        27
47.600       120
47.610        93
47.620        80
47.630       107
47.640        53
47.650        67
47.660        67
47.670        40
47.680        40
47.690       107
47.700        80
47.710       120
47.720       133
47.730        80
47.740        40
47.750       107
47.760        80
47.770        53
47.780        27
47.790        40
47.800       107
47.810        80
47.820        80
47.830        40
47.840       107
47.850        80
47.860        67
47.870        27
47.880        53
47.890        67
47.900        67
47.910        93
47.920        80
47.930        67
47.940         0
47.950        67
47.960        40
47.970         0
47.980        67
47.990        40
48.000        40
48.010        13
48.020        40
48.030        13
48.040        67
48.050        93
48.060        80
48.070        53
48.080       107
48.090        13
48.100        67
48.110        80
48.120        67
48.130        80
48.140        80
48.150        27
48.160        53
48.170        53
48.180        53
48.190        53
48.200        80
48.210        93
48.220        67
48.230        67
48.240        27
48.250        40
48.260        53
48.270        67
48.280        53
48.290        53
48.300        27
48.310        13
48.320        53
48.330        80
48.340        40
48.350       107
48.360        53
48.370        40
48.380        67
48.390        53
48.400        67
48.410        53
48.420        67
48.430        40
48.440        67
48.450        53
48.460       107
48.470       107
48.480        93
48.490        27
48.500        67
48.510        53
48.520        27
48.530        13
48.540         0
48.550        53
48.560        40
48.570        53
48.580        40
48.590        53
48.600        40
48.610        67
48.620        27
48.630        40
48.640        80
48.650        53
48.660        53
48.670        40
48.680        67
48.690        40
48.700       107
48.710        93
48.720        40
48.730        40
48.740       133
48.750        40
48.760        93
48.770        40
48.780       120
48.790        80
48.800        40
48.810        53
48.820       107
48.830        27
48.840        67
48.850        40
48.860        80
48.870       107
48.880        53
48.890       120
48.900        13
48.910        67
48.920         0
48.930        53
48.940        27
48.950       120
48.960        53
48.970        67
48.980        27
48.990       107
49.000        67
49.010        67
49.020       107
49.030        80
49.040        40
49.050        53
49.060        80
49.070       107
49.080        53
49.090        67
49.100        67
49.110        93
49.120        53
49.130        80
49.140       107
49.150        53
49.160        67
49.170        53
49.180        67
49.190        80
49.200        53
49.210        67
49.220        53
49.230        40
49.240        93
49.250        40
49.260        67
49.270        67
49.280        13
49.290        27
49.300        67
49.310        80
49.320        53
49.330        40
49.340        27
49.350        67
49.360        93
49.370        80
49.380       107
49.390        27
49.400        53
49.410        93
49.420        53
49.430        80
49.440        27
49.450        27
49.460        27
49.470        13
49.480        80
49.490        27
49.500        67
49.510        53
49.520        27
49.530        40
49.540        67
49.550       120
49.560        27
49.570        80
49.580        27
49.590        40
49.600        80
49.610        40
49.620        27
49.630        27
49.640        27
49.650        27
49.660        13
49.670        53
49.680        93
49.690        40
49.700        53
49.710        53
49.720        13
49.730        13
49.740        67
49.750        93
49.760        27
49.770        27
49.780        40
49.790        93
49.800        40
49.810       107
49.820        67
49.830        40
49.840        67
49.850        67
49.860        13
49.870        40
49.880        40
49.890        80
49.900        53
49.910        80
49.920        67
49.930        53
49.940        27
49.950        40
49.960        40
49.970        80
49.980        40
49.990        53
50.000       107
50.010        53
50.020        67
50.030        40
50.040        67
50.050        80
50.060        80
50.070        27
50.080        13
50.090        27
50.100        27
50.110        13
50.120        27
50.130        93
50.140        40
50.150        80
50.160        40
50.170        13
50.180        13
50.190        67
50.200        27
50.210        27
50.220        53
50.230        53
50.240        40
50.250        40
50.260        40
50.270        40
50.280       133
50.290        67
50.300        40
50.310        67
50.320        67
50.330        13
50.340        80
50.350        80
50.360        53
50.370        27
50.380        53
50.390        67
50.400        27
50.410        93
50.420        27
50.430       107
50.440        27
50.450       147
50.460        27
50.470        67
50.480        40
50.490        93
50.500        40
50.510        93
50.520        27
50.530        53
50.540        53
50.550        67
50.560        67
50.570        53
50.580        53
50.590        53
50.600        53
50.610        93
50.620        80
50.630       107
50.640       120
50.650       133
50.660       160
50.670       213
50.680       147
50.690       253
50.700       280
50.710       240
50.720       413
50.730       320
50.740       400
50.750       200
50.760       466
50.770       400
50.780       413
50.790       466
50.800       387
50.810       293
50.820       453
50.830       493
50.840       480
50.850       373
50.860       320
50.870       453
50.880       320
50.890       426
50.900       413
50.910       307
50.920       426
50.930       307
50.940       360
50.950       347
50.960       373
50.970       413
50.980       347
50.990       440
51.000       307
51.010       320
51.020       373
51.030       440
51.040       387
51.050       413
51.060       480
51.070       453
51.080       506
51.090       453
51.100       400
51.110       320
51.120       493
51.130       426
51.140       347
51.150       267
51.160       533
51.170       347
51.180       413
51.190       440
51.200       413
51.210       347
51.220       413
51.230       413
51.240       360
51.250       453
51.260       453
51.270       440
51.280       400
51.290       360
51.300       413
51.310       280
51.320       387
51.330       453
51.340       413
51.350       440
51.360       573
51.370       333
51.380       573
51.390       333
51.400       493
51.410       480
51.420       440
51.430       360
51.440       466
51.450       453
51.460       426
51.470       413
51.480       466
51.490       440
51.500       333
51.510       373
51.520       506
51.530       373
51.540       373
51.550       280
51.560       466
51.570       613
51.580       440
51.590       573
51.600       533
51.610       520
51.620       426
51.630       347
51.640       373
51.650       426
51.660       480
51.670       600
51.680       493
51.690       387
51.700       506
51.710       293
51.720       440
51.730       586
51.740       333
51.750       440
51.760       493
51.770       400
51.780       520
51.790       520
51.800       440
51.810       520
51.820       373
51.830       453
51.840       413
51.850       613
51.860       493
51.870       493
51.880       413
51.890       413
51.900       586
51.910       466
51.920       506
51.930       586
51.940       600
51.950       560
51.960       573
51.970       693
51.980       413
51.990       733
52.000       533
52.010       680
52.020       573
52.030       626
52.040       666
52.050       640
52.060       546
52.070       560
52.080       586
52.090       653
52.100       880
52.110       733
52.120       653
52.130       893
52.140       666
52.150       746
52.160      1040
52.170       893
52.180       840
52.190      1093
52.200      1133
52.210       960
52.220       786
52.230      1279
52.240       946
52.250      1106
52.260      1346
52.270      1559
52.280      1853
52.290      1786
52.300      1773
52.310      2212
52.320      2906
52.330      3039
52.340      3439
52.350      3878
52.360      4238
52.370      4878
52.380      5558
52.390      5771
52.400      6664
52.410      6664
52.420      7397
52.430      8317
52.440      7530
52.450      8343
52.460      9703
52.470      8956
52.480     10343
52.490     10889
52.500     12955
52.510     15234
52.520     18579
52.530     23857
52.540     33480
52.550     51859
52.560     78835
52.570    108943
52.580    136719
52.590    153272
52.600    167999
52.610    169812
52.620    163455
52.630    148900
52.640    122484
52.650     89404
52.660     63108
52.670     46355
52.680     38078
52.690     42850
52.700     51699
52.710     67333
52.720     79435
52.730     89737
52.740     96841
52.750     95828
52.760     93882
52.770     81914
52.780     66094
52.790     48647
52.800     32147
52.810     21645
52.820     14314
52.830     10622
52.840      7930
52.850      6531
52.860      5531
52.870      4558
52.880      4118
52.890      3265
52.900      2652
52.910      2666
52.920      2226
52.930      1986
52.940      2092
52.950      1799
52.960      1759
52.970      1533
52.980      1519
52.990      1399
53.000       986
53.010      1226
53.020      1146
53.030      1200
53.040      1213
53.050       906
53.060      1186
53.070      1066
53.080       933
53.090      1093
53.100       880
53.110       800
53.120       893
53.130       853
53.140       853
53.150       826
53.160       773
53.170       760
53.180       573
53.190       773
53.200       693
53.210       653
53.220       813
53.230       786
53.240       653
53.250       626
53.260       840
53.270       573
53.280       600
53.290       546
53.300       533
53.310       666
53.320       640
53.330       546
53.340       586
53.350       706
53.360       573
53.370       573
53.380       586
53.390       706
53.400       506
53.410       600
53.420       560
53.430       493
53.440       546
53.450       573
53.460       493
53.470       453
53.480       573
53.490       480
53.500       560
53.510       440
53.520       453
53.530       400
53.540       307
53.550       506
53.560       413
53.570       360
53.580       400
53.590       347
53.600       400
53.610       373
53.620       400
53.630       387
53.640       373
53.650       387
53.660       466
53.670       520
53.680       426
53.690       426
53.700       347
53.710       426
53.720       373
53.730       347
53.740       387
53.750       493
53.760       307
53.770       466
53.780       466
53.790       253
53.800       453
53.810       426
53.820       387
53.830       466
53.840       413
53.850       213
53.860       400
53.870       333
53.880       280
53.890       293
53.900       333
53.910       253
53.920       320
53.930       280
53.940       400
53.950       213
53.960       293
53.970       440
53.980       333
53.990       267
54.000       307
54.010       333
54.020       240
54.030       373
54.040       440
54.050       347
54.060       373
54.070       213
54.080       293
54.090       240
54.100       400
54.110       307
54.120       413
54.130       320
54.140       227
54.150       240
54.160       320
54.170       533
54.180       227
54.190       253
54.200       293
54.210       400
54.220       200
54.230       373
54.240       320
54.250       307
54.260       253
54.270       280
54.280       160
54.290       347
54.300       240
54.310       347
54.320       267
54.330       307
54.340       293
54.350       227
54.360       373
54.370       187
54.380       373
54.390       307
54.400       333
54.410       333
54.420       373
54.430       267
54.440       333
54.450       240
54.460       400
54.470       280
54.480       240
54.490       347
54.500       213
54.510       240
54.520       227
54.530       200
54.540       293
54.550       173
54.560       280
54.570       267
54.580       293
54.590       320
54.600       307
54.610       267
54.620       280
54.630       200
54.640       187
54.650       307
54.660       320
54.670       307
54.680       293
54.690       307
54.700       213
54.710       253
54.720       107
54.730       347
54.740       227
54.750       307
54.760       333
54.770       333
54.780       320
54.790       293
54.800       240
54.810       240
54.820       253
54.830       307
54.840       173
54.850       347
54.860       307
54.870       293
54.880       280
54.890       293
54.900       347
54.910       280
54.920       187
54.930       227
54.940       160
54.950       240
54.960       267
54.970       240
54.980       227
54.990       307
55.000       213
55.010       240
55.020       293
55.030       280
55.040       280
55.050       240
55.060       187
55.070       240
55.080       267
55.090       187
55.100       293
55.110       160
55.120       320
55.130       213
55.140       253
55.150       147
55.160       253
55.170       307
55.180       280
55.190       253
55.200       360
55.210       373
55.220       307
55.230       240
55.240       187
55.250       360
55.260       280
55.270       227
55.280       280
55.290       200
55.300       213
55.310       200
55.320       347
55.330       267
55.340       160
55.350       267
55.360       200
55.370        80
55.380       307
55.390       160
55.400       120
55.410       293
55.420       253
55.430       213
55.440       187
55.450       200
55.460       107
55.470       267
55.480       240
55.490       173
55.500       267
55.510       200
55.520       227
55.530       173
55.540       173
55.550       240
55.560       200
55.570       240
55.580       187
55.590       227
55.600       173
55.610       213
55.620       240
55.630       147
55.640       227
55.650       133
55.660       133
55.670       240
55.680       147
55.690       173
55.700       213
55.710       173
55.720       187
55.730       253
55.740       227
55.750       200
55.760       253
55.770       200
55.780        93
55.790       227
55.800       227
55.810       213
55.820       227
55.830       280
55.840       213
55.850       213
55.860       347
55.870       240
55.880       280
55.890       187
55.900       227
55.910       280
55.920       240
55.930       200
55.940       187
55.950       240
55.960       253
55.970       227
55.980       267
55.990       227
56.000       147
56.010       240
56.020       227
56.030       213
56.040       173
56.050       213
56.060       280
56.070       200
56.080       187
56.090       253
56.100       253
56.110       200
56.120       267
56.130       213
56.140       387
56.150       240
56.160       333
56.170       240
56.180       293
56.190       280
56.200       307
56.210       187
56.220       213
56.230       293
56.240       267
56.250       227
56.260       173
56.270       213
56.280       267
56.290       280
56.300       187
56.310       253
56.320       227
56.330       213
56.340       253
56.350       147
56.360       227
56.370       280
56.380       253
56.390       227
56.400       267
56.410       213
56.420       280
56.430       160
56.440       200
56.450       187
56.460       253
56.470       253
56.480       240
56.490       200
56.500       400
56.510       200
56.520       200
56.530       253
56.540       253
56.550       187
56.560       173
56.570       147
56.580       227
56.590       187
56.600       160
56.610       200
56.620       213
56.630       160
56.640       253
56.650       147
56.660       267
56.670       133
56.680       227
56.690       320
56.700       293
56.710       213
56.720       200
56.730       120
56.740       133
56.750       160
56.760       187
56.770       173
56.780       173
56.790       173
56.800       187
56.810       227
56.820       200
56.830       160
56.840       173
56.850       120
56.860       213
56.870       267
56.880       200
56.890       187
56.900       200
56.910       187
56.920       227
56.930       147
56.940       200
56.950       267
56.960       227
56.970       160
56.980       333
56.990       280
57.000       160
57.010       173
57.020        93
57.030       213
57.040       213
57.050       240
57.060       187
57.070       187
57.080       133
57.090       213
57.100       160
57.110       253
57.120        93
57.130       173
57.140       160
57.150       173
57.160       253
57.170       267
57.180       173
57.190       187
57.200       267
57.210       147
57.220       200
57.230       280
57.240       147
57.250       213
57.260       213
57.270       173
57.280       240
57.290       213
57.300       187
57.310       147
57.320       160
57.330       173
57.340       173
57.350       213
57.360       187
57.370       280
57.380       227
57.390       253
57.400       200
57.410       173
57.420       160
57.430       133
57.440       187
57.450       173
57.460       187
57.470       213
57.480       160
57.490       187
57.500       160
57.510       147
57.520       200
57.530       227
57.540       187
57.550       253
57.560       133
57.570       200
57.580       107
57.590       160
57.600       173
57.610       200
57.620       200
57.630       213
57.640       120
57.650       133
57.660       200
57.670       253
57.680       253
57.690       147
57.700       107
57.710       293
57.720       160
57.730       107
57.740       160
57.750       133
57.760       147
57.770       200
57.780       173
57.790       347
57.800       160
57.810       173
57.820       160
57.830       147
57.840       173
57.850       267
57.860       213
57.870       227
57.880       120
57.890       253
57.900       147
57.910        93
57.920       267
57.930       120
57.940       120
57.950       200
57.960       120
57.970       160
57.980       133
57.990       240
58.000       133
58.010       187
58.020        67
58.030       200
58.040       173
58.050       200
58.060       133
58.070       213
58.080       160
58.090       173
58.100       107
58.110       120
58.120       200
58.130       133
58.140        80
58.150       133
58.160       147
58.170       120
58.180       147
58.190       200
58.200        93
58.210       187
58.220       147
58.230       133
58.240       133
58.250       160
58.260       173
58.270       147
58.280       187
58.290       200
58.300       147
58.310       173
58.320       107
58.330       173
58.340       240
58.350       133
58.360        80
58.370       160
58.380       227
58.390       227
58.400       147
58.410       160
58.420       133
58.430       173
58.440       147
58.450       133
58.460       133
58.470       133
58.480       147
58.490       133
58.500       187
58.510        93
58.520       107
58.530       200
58.540        93
58.550       267
58.560       160
58.570       107
58.580       147
58.590       160
58.600       160
58.610        80
58.620       173
58.630       173
58.640       187
58.650       133
58.660       120
58.670       147
58.680       120
58.690       173
58.700        93
58.710        53
58.720       133
58.730       147
58.740       147
58.750       160
58.760       107
58.770       173
58.780       147
58.790       160
58.800       187
58.810        93
58.820       120
58.830       120
58.840       120
58.850       120
58.860       267
58.870       133
58.880       160
58.890       147
58.900        93
58.910        40
58.920       133
58.930       200
58.940        93
58.950       107
58.960       147
58.970        80
58.980       187
58.990        93
59.000       120
59.010        80
59.020       107
59.030        93
59.040       200
59.050        93
59.060        93
59.070       187
59.080       160
59.090       200
59.100        93
59.110       147
59.120       187
59.130       213
59.140       213
59.150       133
59.160       133
59.170       120
59.180       160
59.190       107
59.200       133
59.210       120
59.220       107
59.230       160
59.240       120
59.250       160
59.260       107
59.270       160
59.280       120
59.290        80
59.300       147
59.310       160
59.320       160
59.330       107
59.340        80
59.350       120
59.360        53
59.370        27
59.380       133
59.390        53
59.400        93
59.410       173
59.420       160
59.430       173
59.440       173
59.450       147
59.460       173
59.470        93
59.480       133
59.490       160
59.500       147
59.510       133
59.520        53
59.530       120
59.540        53
59.550       107
59.560       147
59.570       133
59.580        93
59.590       133
59.600       133
59.610       147
59.620       147
59.630       107
59.640       187
59.650       120
59.660       133
59.670       173
59.680       120
59.690       173
59.700       120
59.710       120
59.720       107
59.730        93
59.740       147
59.750       107
59.760        93
59.770       200
59.780       160
59.790        93
59.800       120
59.810        80
59.820       107
59.830        93
59.840       227
59.850       120
59.860       107
59.870        53
59.880       120
59.890       133
59.900       133
59.910       120
59.920        93
59.930        93
59.940       173
59.950       120
59.960       120
59.970        27
59.980       120
59.990        27
60.000        27
