20.000        27
20.010        27
20.020        27
20.030        53
20.040        53
20.050        27
20.060        67
20.070        13
20.080        67
20.090        27
20.100        40
20.110        67
20.120        27
20.130        53
20.140        80
20.150        27
20.160        53
20.170        93
20.180        13
20.190        40
20.200        27
20.210        27
20.220        13
20.230        80
20.240        80
20.250        27
20.260        40
20.270        80
20.280        27
20.290        40
20.300        40
20.310        53
20.320        40
20.330        40
20.340        40
20.350        27
20.360       133
20.370        40
20.380        67
20.390        27
20.400        80
20.410        27
20.420        67
20.430        27
20.440        27
20.450         0
20.460        27
20.470        53
20.480        40
20.490        40
20.500        13
20.510        27
20.520        80
20.530        53
20.540        40
20.550        27
20.560        53
20.570        67
20.580       107
20.590        40
20.600        27
20.610       107
20.620        27
20.630        27
20.640        40
20.650        27
20.660        40
20.670        67
20.680        27
20.690        13
20.700        67
20.710        67
20.720        27
20.730        40
20.740        27
20.750        40
20.760        27
20.770        27
20.780        53
20.790        13
20.800        13
20.810        13
20.820        27
20.830        53
20.840        40
20.850        67
20.860        27
20.870        13
20.880        53
20.890        53
20.900        13
20.910        53
20.920        27
20.930        67
20.940         0
20.950        67
20.960        80
20.970        40
20.980        53
20.990        13
21.000        27
21.010        67
21.020        67
21.030        67
21.040        40
21.050        40
21.060        27
21.070        93
21.080        67
21.090        40
21.100        53
21.110        27
21.120        27
21.130        27
21.140        40
21.150        40
21.160        67
21.170        53
21.180        40
21.190        80
21.200        67
21.210        53
21.220         0
21.230        40
21.240        27
21.250        53
21.260        13
21.270        40
21.280        27
21.290        53
21.300        67
21.310        27
21.320        53
21.330        67
21.340        80
21.350        27
21.360       120
21.370        67
21.380        13
21.390        27
21.400        67
21.410        27
21.420        27
21.430        40
21.440        40
21.450        40
21.460       107
21.470        27
21.480         0
21.490        27
21.500        53
21.510        27
21.520        53
21.530        80
21.540        27
21.550        27
21.560        53
21.570        53
21.580        40
21.590       107
21.600        80
21.610        27
21.620        53
21.630        27
21.640        53
21.650        40
21.660        27
21.670        27
21.680        80
21.690        67
21.700        27
21.710        40
21.720        67
21.730        67
21.740        13
21.750        40
21.760        27
21.770        27
21.780        40
21.790        40
21.800        80
21.810        80
21.820        13
21.830        67
21.840        40
21.850        53
21.860        13
21.870        53
21.880        93
21.890        40
21.900        80
21.910        53
21.920        67
21.930        53
21.940        53
21.950       107
21.960        53
21.970        40
21.980        40
21.990        40
22.000        53
22.010        13
22.020        67
22.030        27
22.040        27
22.050        27
22.060        53
22.070        53
22.080        67
22.090        67
22.100        93
22.110        53
22.120        27
22.130        67
22.140        67
22.150        67
22.160        13
22.170        93
22.180        80
22.190        27
22.200        93
22.210        93
22.220         0
22.230        53
22.240        93
22.250        40
22.260        80
22.270       120
22.280       187
22.290       120
22.300        93
22.310       133
22.320       147
22.330       147
22.340       133
22.350       240
22.360       213
22.370       200
22.380       213
22.390       307
22.400       320
22.410       293
22.420       387
22.430       347
22.440       426
22.450       413
22.460       466
22.470       626
22.480       613
22.490       720
22.500       733
22.510      1026
22.520      1040
22.530      1000
22.540      1186
22.550      1306
22.560      1439
22.570      1186
22.580      1240
22.590      1346
22.600      1106
22.610      1000
22.620      1040
22.630       786
22.640       920
22.650       813
22.660       640
22.670       493
22.680       586
22.690       387
22.700       480
22.710       267
22.720       387
22.730       320
22.740       267
22.750       240
22.760       187
22.770       173
22.780       160
22.790       253
22.800        80
22.810       147
22.820       267
22.830       267
22.840       147
22.850       187
22.860       120
22.870       120
22.880       240
22.890       120
22.900       187
22.910       107
22.920       160
22.930        80
22.940       173
22.950       107
22.960       120
22.970       147
22.980       120
22.990       133
23.000       120
23.010       107
23.020        93
23.030        80
23.040        80
23.050       160
23.060        53
23.070        80
23.080        80
23.090        93
23.100        27
23.110       160
23.120       133
23.130        53
23.140       120
23.150        67
23.160       107
23.170        93
23.180        53
23.190        53
23.200       107
23.210        27
23.220        27
23.230        27
23.240       107
23.250        67
23.260        13
23.270       133
23.280         0
23.290        27
23.300        80
23.310        67
23.320        80
23.330        40
23.340        13
23.350        67
23.360        80
23.370        67
23.380        67
23.390        13
23.400        53
23.410       107
23.420        93
23.430        67
23.440        67
23.450        53
23.460        53
23.470        67
23.480        80
23.490        80
23.500        27
23.510        67
23.520        53
23.530        53
23.540        67
23.550        27
23.560        13
23.570        27
23.580         0
23.590        53
23.600        67
23.610       107
23.620        67
23.630        53
23.640        53
23.650        27
23.660        53
23.670        13
23.680        40
23.690        67
23.700        40
23.710        67
23.720        53
23.730        53
23.740        27
23.750       107
23.760        80
23.770        40
23.780        80
23.790        40
23.800        53
23.810        53
23.820        67
23.830        27
23.840        40
23.850        27
23.860        53
23.870        80
23.880        80
23.890        67
23.900        80
23.910        53
23.920        80
23.930        67
23.940       107
23.950        40
23.960        27
23.970        80
23.980        27
23.990        40
24.000        53
24.010        67
24.020        53
24.030        13
24.040        27
24.050        40
24.060        40
24.070        27
24.080        13
24.090        53
24.100        40
24.110       133
24.120        53
24.130        40
24.140        27
24.150        80
24.160        67
24.170        40
24.180        40
24.190        53
24.200        13
24.210        67
24.220        40
24.230        40
24.240        53
24.250        53
24.260        27
24.270        27
24.280        53
24.290        80
24.300        53
24.310        13
24.320        27
24.330        40
24.340        27
24.350        27
24.360        40
24.370        53
24.380        40
24.390        27
24.400        13
24.410        13
24.420        40
24.430        53
24.440        13
24.450        53
24.460        27
24.470        40
24.480        53
24.490        53
24.500        80
24.510        27
24.520        13
24.530        40
24.540        53
24.550         0
24.560        27
24.570        67
24.580        40
24.590        40
24.600        13
24.610        67
24.620        67
24.630        13
24.640        27
24.650        27
24.660        80
24.670        27
24.680        53
24.690        40
24.700        27
24.710        40
24.720        40
24.730       107
24.740        53
24.750         0
24.760        53
24.770        80
24.780        40
24.790        53
24.800        67
24.810       107
24.820        40
24.830        53
24.840        67
24.850        40
24.860        27
24.870        27
24.880        27
24.890        13
24.900        27
24.910        40
24.920        27
24.930        40
24.940        13
24.950        80
24.960        67
24.970        40
24.980         0
24.990        40
25.000        27
25.010        27
25.020        40
25.030        40
25.040        93
25.050        67
25.060        53
25.070        53
25.080        67
25.090        13
25.100        40
25.110        40
25.120        67
25.130        13
25.140        13
25.150        67
25.160        40
25.170        27
25.180        27
25.190        67
25.200         0
25.210        93
25.220       160
25.230        53
25.240        93
25.250        40
25.260       120
25.270        53
25.280        53
25.290        27
25.300        27
25.310        27
25.320        67
25.330        27
25.340        67
25.350        40
25.360        27
25.370        40
25.380         0
25.390        67
25.400        13
25.410        40
25.420        27
25.430        13
25.440        27
25.450        53
25.460        27
25.470        53
25.480        40
25.490        13
25.500        13
25.510        40
25.520        40
25.530        67
25.540        27
25.550        93
25.560        80
25.570        53
25.580        27
25.590        93
25.600        67
25.610        53
25.620        80
25.630        67
25.640        40
25.650        80
25.660        80
25.670        53
25.680        40
25.690        27
25.700        93
25.710       160
25.720        67
25.730        67
25.740        40
25.750       107
25.760       120
25.770        93
25.780       133
25.790       147
25.800       107
25.810       160
25.820       160
25.830        93
25.840        80
25.850        93
25.860        67
25.870       147
25.880        80
25.890        53
25.900        80
25.910        67
25.920        67
25.930        53
25.940       147
25.950        80
25.960        80
25.970        53
25.980        27
25.990        53
26.000        53
26.010        40
26.020        53
26.030        27
26.040        40
26.050        27
26.060        40
26.070        40
26.080        53
26.090        67
26.100        53
26.110        53
26.120        40
26.130        27
26.140        40
26.150        40
26.160        13
26.170        40
26.180        40
26.190         0
26.200        67
26.210        40
26.220        13
26.230        13
26.240        40
26.250        27
26.260        53
26.270        53
26.280        13
26.290        27
26.300        27
26.310         0
26.320        53
26.330        53
26.340        53
26.350         0
26.360        93
26.370        40
26.380        27
26.390        27
26.400        53
26.410        13
26.420        40
26.430        53
26.440        53
26.450        27
26.460        27
26.470        27
26.480        53
26.490        27
26.500        53
26.510        40
26.520        53
26.530        67
26.540        53
26.550        27
26.560        40
26.570        27
26.580        13
26.590        27
26.600        27
26.610        80
26.620        40
26.630        53
26.640        53
26.650        67
26.660        80
26.670        27
26.680         0
26.690        40
26.700        13
26.710        67
26.720         0
26.730        13
26.740        67
26.750        40
26.760        53
26.770        27
26.780        40
26.790        13
26.800        40
26.810        27
26.820         0
26.830        40
26.840        27
26.850        67
26.860        27
26.870        53
26.880        53
26.890        40
26.900        13
26.910        27
26.920        27
26.930        27
26.940        27
26.950        13
26.960        27
26.970        40
26.980        13
26.990        67
27.000        13
27.010        27
27.020        27
27.030         0
27.040        27
27.050        40
27.060         0
27.070         0
27.080        27
27.090        53
27.100        13
27.110        13
27.120        40
27.130        40
27.140        40
27.150        40
27.160        53
27.170        13
27.180        27
27.190        27
27.200        40
27.210        80
27.220         0
27.230        40
27.240        27
27.250        13
27.260        53
27.270        40
27.280        53
27.290        67
27.300        53
27.310        27
27.320        27
27.330        13
27.340        13
27.350        40
27.360        13
27.370        40
27.380        40
27.390        53
27.400        40
27.410        53
27.420        53
27.430        13
27.440        40
27.450        53
27.460        80
27.470        53
27.480        27
27.490        13
27.500        27
27.510        40
27.520        13
27.530        27
27.540        27
27.550        40
27.560        40
27.570        27
27.580        53
27.590        27
27.600        40
27.610        67
27.620        13
27.630        53
27.640        67
27.650        67
27.660       147
27.670        53
27.680       107
27.690       107
27.700        53
27.710        80
27.720       120
27.730       107
27.740       147
27.750       147
27.760        80
27.770       120
27.780        93
27.790       107
27.800       107
27.810        93
27.820        67
27.830        53
27.840        53
27.850        53
27.860        80
27.870        80
27.880        13
27.890        53
27.900        27
27.910        27
27.920        13
27.930        80
27.940        53
27.950        40
27.960        80
27.970        27
27.980        53
27.990       120
28.000        53
28.010        13
28.020        40
28.030        40
28.040        53
28.050        67
28.060        13
28.070        93
28.080        67
28.090        40
28.100        53
28.110        67
28.120        67
28.130        80
28.140        53
28.150        40
28.160        40
28.170        53
28.180        40
28.190        80
28.200        40
28.210        27
28.220       107
28.230        53
28.240       107
28.250        67
28.260        40
28.270       107
28.280        40
28.290        53
28.300        80
28.310        27
28.320        27
28.330        80
28.340        53
28.350        80
28.360        13
28.370        67
28.380        40
28.390        40
28.400        67
28.410        53
28.420        67
28.430        40
28.440        67
28.450        40
28.460        67
28.470        80
28.480        40
28.490        53
28.500        67
28.510        53
28.520        27
28.530        27
28.540        40
28.550        80
28.560        27
28.570        40
28.580        27
28.590        67
28.600        27
28.610        13
28.620        80
28.630        27
28.640        80
28.650        13
28.660        80
28.670        27
28.680        67
28.690        40
28.700        53
28.710        53
28.720        53
28.730        53
28.740        27
28.750        40
28.760        53
28.770        13
28.780        53
28.790        67
28.800        40
28.810        53
28.820        13
28.830        40
28.840        67
28.850        27
28.860         0
28.870        27
28.880        27
28.890        40
28.900        53
28.910        40
28.920        27
28.930        40
28.940        53
28.950        67
28.960        27
28.970        80
28.980        53
28.990         0
29.000        67
29.010        27
29.020        13
29.030        53
29.040        27
29.050        40
29.060       107
29.070        40
29.080        53
29.090        40
29.100        27
29.110        40
29.120        40
29.130        40
29.140        40
29.150        67
29.160         0
29.170        27
29.180        13
29.190        40
29.200         0
29.210        40
29.220        67
29.230        27
29.240        40
29.250        53
29.260        27
29.270        40
29.280       107
29.290        40
29.300        67
29.310        53
29.320        40
29.330        27
29.340        40
29.350        53
29.360        53
29.370        53
29.380         0
29.390        67
29.400        53
29.410        27
29.420        27
29.430        67
29.440        53
29.450        40
29.460        67
29.470        40
29.480       133
29.490       107
29.500        80
29.510        93
29.520       147
29.530        80
29.540        80
29.550       200
29.560       107
29.570       133
29.580        53
29.590       213
29.600       147
29.610        93
29.620       200
29.630       107
29.640       120
29.650       107
29.660        67
29.670        93
29.680        93
29.690        93
29.700        40
29.710        27
29.720        67
29.730       107
29.740        53
29.750        13
29.760       133
29.770        27
29.780        53
29.790        67
29.800        67
29.810        53
29.820        27
29.830        40
29.840        53
29.850        67
29.860        53
29.870        67
29.880        13
29.890        13
29.900         0
29.910        27
29.920        13
29.930        40
29.940        80
29.950        27
29.960         0
29.970        40
29.980        40
29.990        13
30.000        27
30.010        13
30.020        27
30.030        13
30.040        40
30.050        13
30.060        13
30.070        13
30.080        27
30.090        53
30.100        13
30.110        13
30.120        53
30.130        53
30.140         0
30.150        53
30.160        40
30.170        27
30.180        80
30.190        13
30.200        13
30.210        13
30.220        27
30.230        27
30.240        27
30.250        40
30.260        93
30.270        27
30.280        53
30.290        13
30.300        80
30.310        67
30.320        40
30.330        53
30.340        67
30.350        67
30.360        53
30.370        27
30.380        80
30.390        93
30.400         0
30.410       107
30.420       147
30.430       120
30.440        93
30.450        93
30.460        53
30.470       173
30.480        67
30.490       133
30.500        67
30.510        67
30.520        53
30.530        80
30.540        53
30.550        53
30.560        67
30.570        40
30.580        40
30.590        53
30.600        27
30.610        80
30.620         0
30.630        40
30.640        53
30.650        53
30.660        40
30.670        27
30.680        27
30.690        27
30.700        27
30.710        27
30.720        13
30.730        40
30.740        40
30.750        27
30.760        13
30.770        40
30.780        13
30.790        27
30.800        27
30.810        27
30.820        40
30.830        67
30.840         0
30.850        80
30.860        27
30.870        67
30.880        40
30.890        27
30.900        53
30.910        27
30.920        13
30.930        40
30.940        27
30.950        27
30.960        13
30.970        27
30.980        40
30.990        53
31.000        40
31.010        13
31.020        27
31.030        40
31.040        13
31.050        13
31.060        40
31.070        13
31.080        27
31.090        40
31.100        13
31.110        27
31.120        53
31.130        13
31.140        27
31.150        27
31.160        27
31.170        53
31.180        40
31.190        40
31.200        13
31.210        13
31.220         0
31.230        13
31.240        13
31.250        67
31.260        93
31.270        53
31.280        13
31.290         0
31.300        13
31.310        53
31.320        27
31.330        27
31.340         0
31.350        27
31.360        53
31.370        13
31.380        13
31.390        67
31.400        13
31.410        53
31.420         0
31.430        13
31.440        13
31.450        67
31.460        13
31.470        53
31.480        13
31.490        27
31.500        67
31.510         0
31.520        13
31.530        40
31.540        53
31.550        13
31.560        40
31.570         0
31.580        13
31.590        13
31.600        13
31.610        27
31.620        27
31.630        27
31.640        53
31.650         0
31.660        13
31.670        13
31.680        13
31.690        40
31.700        27
31.710        13
31.720        53
31.730        27
31.740        53
31.750        13
31.760        53
31.770        13
31.780        27
31.790        53
31.800        80
31.810        13
31.820         0
31.830        40
31.840        27
31.850        53
31.860        53
31.870        53
31.880        27
31.890        27
31.900        27
31.910        40
31.920        53
31.930        27
31.940        53
31.950        40
31.960        13
31.970       107
31.980        53
31.990        67
32.000        40
32.010        80
32.020        53
32.030        80
32.040        80
32.050        53
32.060        53
32.070        53
32.080       147
32.090        80
32.100       160
32.110       107
32.120       133
32.130       160
32.140       107
32.150        67
32.160       120
32.170       173
32.180       213
32.190        93
32.200       133
32.210        93
32.220       107
32.230        40
32.240       173
32.250        27
32.260        93
32.270        13
32.280       147
32.290        53
32.300        80
32.310        40
32.320        53
32.330        13
32.340        53
32.350        13
32.360         0
32.370        40
32.380        40
32.390        27
32.400        27
32.410        40
32.420         0
32.430        27
32.440        13
32.450        40
32.460        27
32.470        13
32.480        27
32.490        53
32.500        13
32.510        13
32.520        13
32.530        40
32.540        53
32.550        80
32.560        53
32.570         0
32.580        27
32.590        13
32.600        53
32.610        13
32.620        27
32.630        40
32.640        13
32.650        53
32.660        27
32.670        27
32.680        13
32.690        27
32.700        27
32.710        40
32.720        27
32.730        13
32.740        13
32.750        53
32.760        13
32.770        40
32.780        40
32.790        27
32.800        40
32.810        40
32.820         0
32.830        27
32.840        13
32.850         0
32.860        53
32.870        40
32.880         0
32.890        27
32.900        27
32.910         0
32.920        67
32.930        53
32.940         0
32.950        27
32.960        13
32.970        40
32.980        27
32.990        53
33.000        27
33.010        40
33.020        53
33.030        13
33.040         0
33.050        40
33.060        53
33.070        27
33.080        27
33.090        13
33.100         0
33.110        27
33.120         0
33.130        27
33.140        27
33.150        67
33.160        27
33.170        40
33.180        40
33.190        27
33.200        13
33.210        13
33.220        27
33.230        13
33.240        40
33.250        53
33.260        40
33.270        13
33.280        53
33.290        53
33.300        40
33.310        40
33.320        13
33.330        53
33.340        67
33.350        13
33.360        13
33.370        40
33.380        27
33.390        13
33.400        40
33.410        40
33.420         0
33.430        13
33.440        27
33.450         0
33.460        40
33.470        27
33.480        40
33.490        40
33.500        40
33.510        40
33.520        13
33.530        27
33.540        27
33.550        13
33.560        27
33.570        40
33.580        53
33.590        27
33.600        53
33.610        40
33.620        27
33.630        40
33.640        13
33.650        40
33.660        53
33.670        13
33.680        40
33.690         0
33.700        27
33.710        40
33.720        27
33.730        13
33.740         0
33.750        13
33.760        27
33.770        27
33.780        40
33.790        13
33.800        40
33.810         0
33.820         0
33.830        13
33.840         0
33.850        27
33.860        40
33.870        13
33.880        27
33.890        40
33.900         0
33.910        40
33.920        27
33.930        13
33.940        13
33.950        40
33.960        13
33.970        27
33.980        13
33.990        53
34.000        13
34.010        13
34.020        80
34.030         0
34.040        40
34.050         0
34.060        13
34.070        27
34.080        27
34.090        13
34.100        27
34.110        13
34.120         0
34.130        53
34.140        13
34.150        13
34.160         0
34.170        27
34.180        27
34.190        40
34.200        40
34.210        27
34.220         0
34.230         0
34.240         0
34.250         0
34.260        27
34.270        27
34.280         0
34.290        27
34.300         0
34.310         0
34.320        13
34.330        53
34.340        67
34.350        27
34.360        27
34.370        27
34.380        53
34.390        40
34.400        53
34.410         0
34.420        13
34.430        67
34.440        53
34.450        80
34.460        13
34.470        13
34.480        53
34.490        13
34.500        67
34.510        13
34.520        40
34.530        80
34.540        13
34.550        67
34.560        13
34.570        13
34.580        27
34.590        27
34.600        27
34.610        40
34.620        40
34.630        13
34.640        53
34.650        40
34.660        67
34.670         0
34.680         0
34.690        13
34.700        40
34.710         0
34.720        40
34.730        27
34.740        40
34.750        27
34.760        13
34.770        13
34.780        40
34.790        13
34.800         0
34.810        27
34.820        40
34.830        27
34.840        40
34.850        40
34.860         0
34.870        13
34.880        27
34.890        27
34.900        27
34.910        27
34.920        13
34.930        40
34.940        13
34.950        13
34.960        27
34.970        53
34.980        40
34.990         0
35.000        53
35.010        13
35.020        53
35.030        40
35.040        27
35.050        27
35.060        27
35.070         0
35.080        27
35.090        27
35.100        13
35.110        13
35.120        40
35.130        40
35.140        27
35.150        67
35.160        53
35.170        67
35.180       120
35.190       147
35.200        53
35.210       147
35.220        93
35.230        67
35.240        27
35.250        27
35.260       147
35.270        80
35.280        27
35.290        40
35.300        67
35.310        27
35.320        93
35.330        27
35.340        40
35.350        13
35.360        27
35.370        13
35.380        53
35.390        27
35.400        13
35.410        27
35.420        13
35.430         0
35.440        27
35.450        13
35.460         0
35.470        27
35.480        53
35.490        13
35.500        27
35.510        40
35.520        53
35.530        13
35.540        13
35.550        27
35.560        13
35.570        27
35.580        13
35.590        80
35.600         0
35.610         0
35.620        40
35.630        27
35.640        13
35.650        13
35.660        13
35.670        13
35.680        13
35.690        27
35.700        40
35.710        40
35.720        13
35.730         0
35.740        40
35.750        27
35.760        27
35.770        13
35.780         0
35.790         0
35.800        13
35.810         0
35.820        13
35.830         0
35.840         0
35.850        13
35.860         0
35.870        27
35.880        40
35.890         0
35.900        40
35.910        13
35.920        27
35.930         0
35.940        27
35.950         0
35.960        27
35.970        40
35.980        27
35.990        13
36.000        53
36.010         0
36.020         0
36.030        13
36.040         0
36.050        27
36.060        53
36.070        13
36.080        67
36.090         0
36.100         0
36.110        27
36.120        40
36.130        13
36.140        53
36.150        40
36.160        27
36.170        27
36.180        27
36.190        80
36.200        53
36.210         0
36.220        27
36.230        27
36.240        80
36.250        27
36.260        27
36.270        13
36.280        27
36.290        13
36.300        67
36.310        27
36.320        40
36.330        40
36.340        27
36.350         0
36.360        13
36.370        13
36.380        27
36.390        27
36.400         0
36.410        53
36.420        53
36.430         0
36.440        13
36.450        13
36.460        13
36.470        27
36.480        27
36.490        27
36.500        53
36.510        53
36.520         0
36.530        40
36.540        13
36.550        27
36.560        53
36.570        27
36.580        40
36.590        53
36.600         0
36.610        13
36.620        40
36.630        13
36.640        27
36.650        27
36.660        40
36.670        40
36.680        13
36.690        13
36.700        13
36.710        27
36.720        27
36.730        13
36.740         0
36.750        13
36.760        13
36.770        27
36.780        27
36.790         0
36.800        27
36.810        53
36.820        27
36.830        40
36.840        40
36.850        40
36.860        27
36.870        40
36.880        27
36.890        40
36.900        27
36.910        27
36.920         0
36.930        13
36.940        13
36.950        27
36.960        27
36.970        67
36.980        40
36.990         0
37.000        13
37.010        40
37.020        40
37.030         0
37.040        67
37.050        40
37.060         0
37.070        13
37.080        53
37.090        13
37.100        13
37.110        53
37.120        40
37.130        40
37.140        13
37.150        13
37.160        13
37.170        40
37.180        13
37.190        80
37.200        13
37.210        27
37.220        13
37.230         0
37.240         0
37.250         0
37.260         0
37.270        27
37.280        53
37.290         0
37.300        27
37.310         0
37.320        67
37.330        13
37.340        13
37.350        40
37.360        27
37.370        13
37.380        13
37.390        27
37.400        27
37.410         0
37.420        13
37.430        13
37.440        40
37.450         0
37.460         0
37.470        27
37.480        27
37.490        13
37.500        27
37.510         0
37.520         0
37.530        13
37.540        13
37.550        53
37.560        40
37.570        13
37.580        13
37.590         0
37.600         0
37.610        27
37.620        27
37.630        40
37.640        40
37.650        13
37.660        13
37.670        53
37.680        13
37.690         0
37.700        27
37.710        67
37.720        53
37.730        67
37.740         0
37.750        53
37.760        13
37.770         0
37.780        27
37.790        13
37.800        13
37.810         0
37.820        13
37.830        27
37.840        40
37.850        53
37.860        53
37.870        13
37.880        13
37.890        13
37.900        27
37.910         0
37.920        27
37.930         0
37.940         0
37.950        40
37.960        27
37.970        27
37.980        13
37.990        27
38.000        53
38.010         0
38.020        13
38.030        40
38.040        53
38.050        27
38.060        40
38.070        40
38.080        27
38.090        27
38.100         0
38.110        13
38.120        53
38.130        27
38.140        13
38.150        27
38.160        40
38.170        40
38.180        53
38.190         0
38.200        13
38.210        27
38.220        13
38.230        40
38.240        27
38.250         0
38.260        27
38.270        27
38.280         0
38.290        40
38.300        27
38.310        40
38.320        13
38.330        27
38.340         0
38.350         0
38.360        13
38.370        27
38.380        13
38.390        13
38.400        13
38.410        53
38.420         0
38.430        13
38.440        40
38.450        13
38.460        40
38.470        27
38.480        27
38.490         0
38.500        53
38.510         0
38.520        13
38.530        40
38.540        40
38.550        40
38.560         0
38.570        27
38.580        40
38.590        67
38.600        13
38.610         0
38.620        13
38.630        40
38.640        13
38.650        27
38.660         0
38.670        67
38.680        40
38.690         0
38.700         0
38.710        13
38.720        27
38.730         0
38.740        27
38.750         0
38.760        40
38.770        27
38.780        27
38.790        27
38.800        53
38.810        40
38.820        13
38.830         0
38.840        13
38.850        27
38.860        40
38.870        27
38.880         0
38.890        40
38.900        27
38.910        67
38.920        13
38.930        53
38.940        13
38.950        13
38.960        27
38.970        13
38.980        13
38.990        40
39.000        13
39.010        40
39.020        53
39.030        40
39.040         0
39.050        40
39.060        27
39.070        53
39.080        40
39.090        53
39.100        27
39.110        27
39.120        27
39.130        13
39.140        53
39.150        27
39.160         0
39.170         0
39.180        40
39.190        13
39.200         0
39.210        27
39.220        27
39.230        67
39.240        40
39.250        27
39.260        13
39.270        13
39.280        40
39.290        27
39.300         0
39.310        40
39.320        27
39.330        80
39.340        27
39.350        40
39.360        27
39.370        40
39.380        53
39.390        27
39.400        53
39.410        40
39.420         0
39.430        27
39.440        13
39.450        40
39.460        13
39.470        13
39.480        27
39.490        13
39.500        27
39.510        27
39.520         0
39.530        27
39.540         0
39.550        27
39.560        27
39.570        40
39.580        40
39.590        13
39.600        13
39.610        53
39.620        13
39.630         0
39.640        27
39.650        13
39.660        13
39.670        40
39.680        40
39.690        40
39.700        27
39.710        40
39.720        27
39.730        13
39.740        13
39.750        13
39.760        40
39.770        27
39.780        27
39.790        13
39.800        40
39.810        13
39.820        80
39.830        40
39.840        13
39.850        27
39.860         0
39.870        27
39.880        13
39.890        27
39.900        13
39.910        13
39.920        27
39.930         0
39.940        40
39.950        40
39.960        13
39.970        13
39.980        27
39.990        13
40.000        40
40.010        13
40.020        27
40.030        13
40.040        27
40.050        13
40.060        13
40.070        40
40.080        27
40.090        13
40.100        53
40.110        40
40.120        27
40.130        53
40.140        27
40.150        40
40.160        13
40.170        27
40.180        27
40.190         0
40.200        13
40.210        27
40.220        13
40.230        40
40.240        40
40.250        67
40.260        13
40.270        67
40.280         0
40.290         0
40.300        13
40.310        53
40.320        13
40.330        27
40.340        13
40.350        13
40.360         0
40.370        27
40.380        13
40.390         0
40.400         0
40.410         0
40.420        53
40.430        27
40.440        27
40.450        27
40.460        13
40.470        13
40.480        40
40.490        13
40.500        53
40.510        67
40.520         0
40.530        13
40.540        13
40.550        53
40.560         0
40.570        40
40.580        40
40.590        13
40.600        27
40.610        13
40.620        13
40.630        40
40.640        13
40.650        13
40.660        13
40.670         0
40.680         0
40.690        27
40.700        27
40.710        27
40.720        27
40.730        67
40.740        40
40.750        13
40.760        53
40.770        67
40.780         0
40.790        27
40.800        53
40.810        53
40.820        27
40.830        13
40.840        27
40.850        27
40.860        13
40.870        40
40.880        27
40.890         0
40.900         0
40.910        40
40.920        13
40.930        27
40.940        27
40.950        13
40.960        40
40.970         0
40.980        80
40.990        53
41.000        13
41.010        40
41.020        53
41.030        13
41.040        27
41.050         0
41.060        13
41.070        67
41.080        53
41.090        27
41.100        27
41.110         0
41.120         0
41.130         0
41.140         0
41.150        13
41.160        27
41.170         0
41.180        13
41.190        13
41.200        40
41.210        27
41.220        13
41.230        13
41.240        67
41.250        27
41.260        80
41.270        27
41.280        27
41.290         0
41.300        27
41.310        13
41.320        13
41.330        13
41.340        27
41.350        53
41.360        80
41.370         0
41.380        27
41.390        40
41.400        13
41.410        40
41.420        27
41.430         0
41.440        13
41.450        40
41.460        13
41.470        13
41.480        40
41.490        13
41.500        40
41.510        40
41.520        13
41.530        13
41.540        27
41.550        53
41.560        27
41.570         0
41.580        67
41.590        80
41.600        53
41.610        13
41.620        13
41.630        53
41.640        27
41.650        53
41.660       107
41.670       120
41.680        53
41.690        67
41.700        80
41.710        93
41.720       147
41.730       133
41.740        93
41.750        93
41.760        53
41.770        53
41.780        93
41.790        53
41.800        53
41.810        80
41.820        67
41.830        80
41.840        67
41.850        93
41.860        40
41.870        53
41.880        40
41.890        53
41.900        13
41.910        27
41.920        13
41.930        13
41.940        27
41.950        27
41.960        40
41.970        53
41.980        40
41.990        67
42.000         0
42.010         0
42.020        27
42.030         0
42.040         0
42.050        27
42.060        40
42.070        27
42.080        53
42.090        13
42.100        13
42.110        67
42.120        13
42.130        40
42.140        27
42.150        27
42.160        40
42.170        67
42.180        40
42.190        13
42.200        53
42.210        53
42.220        40
42.230        13
42.240        53
42.250        40
42.260        27
42.270        40
42.280        27
42.290        93
42.300        13
42.310        27
42.320        27
42.330        67
42.340        80
42.350        80
42.360        27
42.370        53
42.380        40
42.390        53
42.400         0
42.410        27
42.420        13
42.430        27
42.440        53
42.450        40
42.460       107
42.470        67
42.480        67
42.490        27
42.500        67
42.510        27
42.520        27
42.530        13
42.540         0
42.550        80
42.560        27
42.570         0
42.580        40
42.590        40
42.600        13
42.610        27
42.620        27
42.630         0
42.640        53
42.650        27
42.660        13
42.670        13
42.680        27
42.690        53
42.700        40
42.710        40
42.720        13
42.730        13
42.740        13
42.750        27
42.760        13
42.770        40
42.780        53
42.790        13
42.800        40
42.810        27
42.820         0
42.830        40
42.840        40
42.850        27
42.860        13
42.870        40
42.880        40
42.890         0
42.900        27
42.910        27
42.920        13
42.930        27
42.940         0
42.950         0
42.960        27
42.970        13
42.980        53
42.990        27
43.000         0
43.010         0
43.020        40
43.030        13
43.040        40
43.050        27
43.060        27
43.070         0
43.080        27
43.090        13
43.100        27
43.110        13
43.120        13
43.130         0
43.140        40
43.150        13
43.160        27
43.170         0
43.180        27
43.190         0
43.200        27
43.210        13
43.220        13
43.230        40
43.240        27
43.250        13
43.260        13
43.270        40
43.280        80
43.290        53
43.300        13
43.310        67
43.320        40
43.330        40
43.340        40
43.350       120
43.360        93
43.370        80
43.380        53
43.390        53
43.400       107
43.410       120
43.420       173
43.430        93
43.440        40
43.450        67
43.460        13
43.470        53
43.480        40
43.490        80
43.500        67
43.510        67
43.520        40
43.530        80
43.540       147
43.550        67
43.560        67
43.570        93
43.580        53
43.590        67
43.600         0
43.610        27
43.620        13
43.630        27
43.640        27
43.650        27
43.660        13
43.670        27
43.680        13
43.690        13
43.700        27
43.710        53
43.720        27
43.730        27
43.740        40
43.750        27
43.760        53
43.770        53
43.780         0
43.790        13
43.800        40
43.810        40
43.820         0
43.830        27
43.840        40
43.850        27
43.860        27
43.870        27
43.880        27
43.890        27
43.900        13
43.910        40
43.920        27
43.930        27
43.940        53
43.950         0
43.960        13
43.970         0
43.980        53
43.990        40
44.000        13
44.010        13
44.020        40
44.030        27
44.040         0
44.050        27
44.060        40
44.070        27
44.080         0
44.090        13
44.100        27
44.110         0
44.120        13
44.130         0
44.140        13
44.150        13
44.160        40
44.170        13
44.180         0
44.190        53
44.200        27
44.210        27
44.220        13
44.230        27
44.240        53
44.250        40
44.260        13
44.270        40
44.280        13
44.290        13
44.300        27
44.310        27
44.320        13
44.330        40
44.340        40
44.350         0
44.360        40
44.370         0
44.380        40
44.390        93
44.400        27
44.410        13
44.420        27
44.430        27
44.440        53
44.450        13
44.460        53
44.470        67
44.480         0
44.490        40
44.500        13
44.510         0
44.520         0
44.530         0
44.540        27
44.550         0
44.560        13
44.570        27
44.580        13
44.590        67
44.600        13
44.610        13
44.620        80
44.630        27
44.640        40
44.650         0
44.660        13
44.670        40
44.680        13
44.690        40
44.700        27
44.710        40
44.720        40
44.730         0
44.740        27
44.750        27
44.760        27
44.770         0
44.780        40
44.790        13
44.800        53
44.810        13
44.820        27
44.830        53
44.840         0
44.850        27
44.860        53
44.870         0
44.880         0
44.890        40
44.900        13
44.910        67
44.920        27
44.930        53
44.940         0
44.950        53
44.960        40
44.970         0
44.980        93
44.990        40
45.000        27
45.010        67
45.020        13
45.030        40
45.040        13
45.050        13
45.060         0
45.070        27
45.080        13
45.090        13
45.100        27
45.110        13
45.120         0
45.130         0
45.140         0
45.150         0
45.160        67
45.170        53
45.180        80
45.190        27
45.200        53
45.210        53
45.220        40
45.230        40
45.240        40
45.250        53
45.260        13
45.270         0
45.280        13
45.290        53
45.300        53
45.310        53
45.320        53
45.330        67
45.340        40
45.350        27
45.360        40
45.370        13
45.380        27
45.390        13
45.400        27
45.410        67
45.420        53
45.430        27
45.440         0
45.450        40
45.460        40
45.470        27
45.480        13
45.490        40
45.500        40
45.510        40
45.520        13
45.530        27
45.540         0
45.550        53
45.560        67
45.570        53
45.580        40
45.590        67
45.600        13
45.610        13
45.620        13
45.630       120
45.640        27
45.650       107
45.660        13
45.670        53
45.680       133
45.690        80
45.700        13
45.710        53
45.720        53
45.730        53
45.740        80
45.750        27
45.760        53
45.770        40
45.780       120
45.790       107
45.800        67
45.810       133
45.820       147
45.830        93
45.840       160
45.850        67
45.860       120
45.870       187
45.880       187
45.890       200
45.900       227
45.910       267
45.920       347
45.930       280
45.940       400
45.950       480
45.960       546
45.970       440
45.980       440
45.990       626
46.000       626
46.010       853
46.020       680
46.030       773
46.040       613
46.050       693
46.060       560
46.070       626
46.080       760
46.090       653
46.100       560
46.110       573
46.120       653
46.130       560
46.140       493
46.150       480
46.160       573
46.170       333
46.180       320
46.190       413
46.200       400
46.210       373
46.220       333
46.230       307
46.240       307
46.250       240
46.260       213
46.270       320
46.280       187
46.290       253
46.300       160
46.310       147
46.320       107
46.330        93
46.340       133
46.350       147
46.360       187
46.370        53
46.380       133
46.390        13
46.400       133
46.410       133
46.420       107
46.430        67
46.440        67
46.450       160
46.460        80
46.470        53
46.480       160
46.490        93
46.500        40
46.510        80
46.520        93
46.530        93
46.540       120
46.550        80
46.560        93
46.570        67
46.580        53
46.590        80
46.600        40
46.610        67
46.620        93
46.630        80
46.640        53
46.650       173
46.660        93
46.670       107
46.680        93
46.690        27
46.700       160
46.710       107
46.720       107
46.730        40
46.740        53
46.750        80
46.760        67
46.770        67
46.780        67
46.790       120
46.800        67
46.810       107
46.820       147
46.830       147
46.840        93
46.850        67
46.860        93
46.870       120
46.880        93
46.890        93
46.900       120
46.910        40
46.920        67
46.930        40
46.940        53
46.950        53
46.960        93
46.970        53
46.980        40
46.990        67
47.000       120
47.010        80
47.020        80
47.030        80
47.040        67
47.050        80
47.060        27
47.070        53
47.080         0
47.090        40
47.100        27
47.110        27
47.120        13
47.130        67
47.140        93
47.150        40
47.160        27
47.170        40
47.180        80
47.190        53
47.200        40
47.210        53
47.220         0
47.230        13
47.240         0
47.250        53
47.260        40
47.270         0
47.280        13
47.290         0
47.300        53
47.310        53
47.320         0
47.330        67
47.340        53
47.350        67
47.360        27
47.370        40
47.380        27
47.390        27
47.400        53
47.410        13
47.420        53
47.430        40
47.440        13
47.450        53
47.460        27
47.470        40
47.480        67
47.490        27
47.500        27
47.510        27
47.520         0
47.530        27
47.540        40
47.550        13
47.560        53
47.570        40
47.580        27
47.590        27
47.600        27
47.610         0
47.620         0
47.630         0
47.640        40
47.650         0
47.660        27
47.670        13
47.680         0
47.690         0
47.700        27
47.710        13
47.720        40
47.730        53
47.740        53
47.750        13
47.760        53
47.770        13
47.780        27
47.790        27
47.800         0
47.810         0
47.820        13
47.830        13
47.840        67
47.850        27
47.860         0
47.870         0
47.880        13
47.890         0
47.900        27
47.910        27
47.920        13
47.930         0
47.940         0
47.950        27
47.960        27
47.970        13
47.980        67
47.990         0
48.000        27
48.010        67
48.020        53
48.030        27
48.040        13
48.050        13
48.060        40
48.070        27
48.080        13
48.090        13
48.100         0
48.110        27
48.120        53
48.130        27
48.140        13
48.150        13
48.160         0
48.170        13
48.180        40
48.190        27
48.200        13
48.210        40
48.220        27
48.230         0
48.240        13
48.250        13
48.260         0
48.270        40
48.280        40
48.290        27
48.300        27
48.310        40
48.320        40
48.330        13
48.340        13
48.350        53
48.360        13
48.370        67
48.380        13
48.390        27
48.400        40
48.410        13
48.420        13
48.430        27
48.440        13
48.450        27
48.460        27
48.470        27
48.480        27
48.490        13
48.500        13
48.510        67
48.520         0
48.530        27
48.540         0
48.550        27
48.560        93
48.570        40
48.580        13
48.590        13
48.600        40
48.610        80
48.620        13
48.630        13
48.640        40
48.650        27
48.660        40
48.670        40
48.680        27
48.690        13
48.700        53
48.710        27
48.720        53
48.730         0
48.740        13
48.750        13
48.760        40
48.770         0
48.780        13
48.790         0
48.800        27
48.810         0
48.820        27
48.830        27
48.840        13
48.850        40
48.860        27
48.870        53
48.880        53
48.890        13
48.900        27
48.910        13
48.920        53
48.930        53
48.940        67
48.950        53
48.960        67
48.970        53
48.980        67
48.990        53
49.000       107
49.010        13
49.020        40
49.030        40
49.040        27
49.050        27
49.060        13
49.070        67
49.080        53
49.090        93
49.100        27
49.110        80
49.120        80
49.130        40
49.140        67
49.150        27
49.160        40
49.170        27
49.180        40
49.190        13
49.200        53
49.210        13
49.220        40
49.230        53
49.240        40
49.250        80
49.260        27
49.270         0
49.280        53
49.290        27
49.300        27
49.310        27
49.320        27
49.330        13
49.340        40
49.350        40
49.360        27
49.370        13
49.380        27
49.390        27
49.400        40
49.410        27
49.420        27
49.430        13
49.440        40
49.450        27
49.460        53
49.470        53
49.480        27
49.490        13
49.500        40
49.510        80
49.520        13
49.530         0
49.540        13
49.550        13
49.560        40
49.570        27
49.580        13
49.590        27
49.600        27
49.610        53
49.620        27
49.630        40
49.640        13
49.650        53
49.660        40
49.670        13
49.680        13
49.690        27
49.700        40
49.710        40
49.720        27
49.730        27
49.740        13
49.750        27
49.760        67
49.770        40
49.780        80
49.790        13
49.800        13
49.810        53
49.820        13
49.830        27
49.840        93
49.850        27
49.860        27
49.870        67
49.880        13
49.890        53
49.900        40
49.910        53
49.920        40
49.930        67
49.940        53
49.950        53
49.960        13
49.970        13
49.980        13
49.990        67
50.000         0
50.010        67
50.020        13
50.030        53
50.040        13
50.050        13
50.060        40
50.070        13
50.080         0
50.090        13
50.100        27
50.110        53
50.120        27
50.130        40
50.140        27
50.150        40
50.160        13
50.170        13
50.180        27
50.190        27
50.200        27
50.210        40
50.220        40
50.230        53
50.240        40
50.250        40
50.260        40
50.270        27
50.280        40
50.290        93
50.300        13
50.310        13
50.320        13
50.330        27
50.340        53
50.350        27
50.360         0
50.370        67
50.380        27
50.390        53
50.400        13
50.410        40
50.420        27
50.430         0
50.440        27
50.450         0
50.460        40
50.470        13
50.480        40
50.490        13
50.500        40
50.510         0
50.520        13
50.530        13
50.540        13
50.550        27
50.560        27
50.570        40
50.580        27
50.590        13
50.600        40
50.610        40
50.620        27
50.630        40
50.640         0
50.650         0
50.660        27
50.670        27
50.680        40
50.690        40
50.700        13
50.710        40
50.720        40
50.730        27
50.740        40
50.750        13
50.760        40
50.770         0
50.780        13
50.790        27
50.800        27
50.810        13
50.820        13
50.830        13
50.840        27
50.850        53
50.860         0
50.870        27
50.880         0
50.890         0
50.900        40
50.910        27
50.920        27
50.930        13
50.940        53
50.950        40
50.960        40
50.970        27
50.980        27
50.990        13
51.000        27
51.010         0
51.020         0
51.030        13
51.040         0
51.050        67
51.060        27
51.070        40
51.080        40
51.090        27
51.100        27
51.110        40
51.120        40
51.130        13
51.140         0
51.150        13
51.160        27
51.170        27
51.180        27
51.190        13
51.200         0
51.210        13
51.220        40
51.230        13
51.240        27
51.250        80
51.260        27
51.270        13
51.280         0
51.290        13
51.300        13
51.310        53
51.320        40
51.330        13
51.340         0
51.350        13
51.360        13
51.370         0
51.380         0
51.390        40
51.400        40
51.410        27
51.420        27
51.430        13
51.440        13
51.450        27
51.460        27
51.470        13
51.480        27
51.490         0
51.500        67
51.510        27
51.520        27
51.530        13
51.540        53
51.550        13
51.560        53
51.570         0
51.580         0
51.590        13
51.600        40
51.610        13
51.620        27
51.630        40
51.640         0
51.650        27
51.660        40
51.670         0
51.680        27
51.690        27
51.700         0
51.710        40
51.720        40
51.730        67
51.740        40
51.750        67
51.760        67
51.770        53
51.780        53
51.790        40
51.800        13
51.810        27
51.820        13
51.830        93
51.840        80
51.850        93
51.860        93
51.870        67
51.880        53
51.890        80
51.900       133
51.910        93
51.920        67
51.930        27
51.940        13
51.950        53
51.960       107
51.970        27
51.980        67
51.990        27
52.000        93
52.010        53
52.020        80
52.030        67
52.040         0
52.050        67
52.060        53
52.070        27
52.080        40
52.090        40
52.100        27
52.110        27
52.120        13
52.130        53
52.140        53
52.150        27
52.160        53
52.170        67
52.180        27
52.190        40
52.200        40
52.210        40
52.220        53
52.230        40
52.240        40
52.250        27
52.260        67
52.270         0
52.280         0
52.290         0
52.300        27
52.310        53
52.320        27
52.330        13
52.340        13
52.350         0
52.360        40
52.370        67
52.380        27
52.390        13
52.400        13
52.410        27
52.420        40
52.430        27
52.440        27
52.450         0
52.460        27
52.470        27
52.480        53
52.490        13
52.500        53
52.510        27
52.520        40
52.530        40
52.540        93
52.550        93
52.560       120
52.570       147
52.580       200
52.590        53
52.600       200
52.610        80
52.620        93
52.630       133
52.640        80
52.650        67
52.660        27
52.670        53
52.680        93
52.690        27
52.700        67
52.710        67
52.720       107
52.730       120
52.740        93
52.750        53
52.760        93
52.770        13
52.780        40
52.790        67
52.800        27
52.810        27
52.820         0
52.830        27
52.840        53
52.850        13
52.860        27
52.870         0
52.880        40
52.890        67
52.900        13
52.910        40
52.920        27
52.930        27
52.940         0
52.950        13
52.960         0
52.970        13
52.980        13
52.990        13
53.000        13
53.010        27
53.020        27
53.030        27
53.040        27
53.050        13
53.060        40
53.070         0
53.080        13
53.090        13
53.100         0
53.110        27
53.120         0
53.130        13
53.140         0
53.150         0
53.160        13
53.170        13
53.180        53
53.190        27
53.200        13
53.210        13
53.220        53
53.230        27
53.240        40
53.250        13
53.260        13
53.270        93
53.280        13
53.290        13
53.300        53
53.310        13
53.320        27
53.330        67
53.340        27
53.350        27
53.360        40
53.370        40
53.380        27
53.390         0
53.400        53
53.410        13
53.420        80
53.430         0
53.440        40
53.450        80
53.460        13
53.470        13
53.480        40
53.490        67
53.500        27
53.510        27
53.520        53
53.530        27
53.540        40
53.550        53
53.560         0
53.570        53
53.580        27
53.590        67
53.600        13
53.610        13
53.620        27
53.630        40
53.640        40
53.650        27
53.660        80
53.670        27
53.680        27
53.690        13
53.700        27
53.710        67
53.720         0
53.730        27
53.740         0
53.750        13
53.760        53
53.770        53
53.780        27
53.790        40
53.800        40
53.810        13
53.820        27
53.830        67
53.840        27
53.850        40
53.860        13
53.870        40
53.880        40
53.890        27
53.900         0
53.910         0
53.920        40
53.930        53
53.940        40
53.950        13
53.960         0
53.970        27
53.980        13
53.990        13
54.000        27
54.010         0
54.020        40
54.030        27
54.040        27
54.050         0
54.060        13
54.070        40
54.080        40
54.090        27
54.100        27
54.110        13
54.120         0
54.130        27
54.140        27
54.150         0
54.160         0
54.170         0
54.180        53
54.190        67
54.200         0
54.210        13
54.220        27
54.230        27
54.240        40
54.250        27
54.260        13
54.270        40
54.280        27
54.290        27
54.300         0
54.310         0
54.320        13
54.330         0
54.340        27
54.350        40
54.360        53
54.370        27
54.380        40
54.390        13
54.400         0
54.410        40
54.420        27
54.430         0
54.440        13
54.450        27
54.460        13
54.470        13
54.480         0
54.490        53
54.500         0
54.510         0
54.520        27
54.530        27
54.540        13
54.550         0
54.560        40
54.570        53
54.580        27
54.590        27
54.600        27
54.610        27
54.620        13
54.630        27
54.640        13
54.650        27
54.660        13
54.670        40
54.680         0
54.690        53
54.700        27
54.710        53
54.720        27
54.730        40
54.740        13
54.750        27
54.760        53
54.770         0
54.780        13
54.790        27
54.800        13
54.810        13
54.820        27
54.830         0
54.840         0
54.850        40
54.860         0
54.870        40
54.880        13
54.890         0
54.900        40
54.910        27
54.920        40
54.930        67
54.940         0
54.950        13
54.960        13
54.970         0
54.980        27
54.990         0
55.000        27
55.010        27
55.020        13
55.030        13
55.040        27
55.050         0
55.060        93
55.070         0
55.080        13
55.090        27
55.100        53
55.110        27
55.120        13
55.130        27
55.140        13
55.150        27
55.160         0
55.170        13
55.180        13
55.190        27
55.200        27
55.210        53
55.220        27
55.230         0
55.240        13
55.250         0
55.260        13
55.270        13
55.280         0
55.290        13
55.300        40
55.310         0
55.320         0
55.330         0
55.340        13
55.350        27
55.360        27
55.370        67
55.380        40
55.390        13
55.400        27
55.410        40
55.420        27
55.430        80
55.440        27
55.450        67
55.460        40
55.470        53
55.480        40
55.490        40
55.500        13
55.510        27
55.520         0
55.530        53
55.540        27
55.550        27
55.560        53
55.570        27
55.580         0
55.590        40
55.600        13
55.610        53
55.620        13
55.630        27
55.640        27
55.650        27
55.660        13
55.670        40
55.680        13
55.690        27
55.700        53
55.710        40
55.720        67
55.730        53
55.740        80
55.750        53
55.760        27
55.770        67
55.780        53
55.790        80
55.800        53
55.810        13
55.820        40
55.830        67
55.840        67
55.850         0
55.860        27
55.870        67
55.880        27
55.890        40
55.900        27
55.910        27
55.920        53
55.930        27
55.940        40
55.950        13
55.960         0
55.970        27
55.980        53
55.990        13
56.000        53
56.010         0
56.020        13
56.030        27
56.040        27
56.050        27
56.060        13
56.070        40
56.080        13
56.090        53
56.100        13
56.110        27
56.120        40
56.130        13
56.140         0
56.150        27
56.160        40
56.170        13
56.180        13
56.190        53
56.200        40
56.210        67
56.220        27
56.230        13
56.240        27
56.250        27
56.260        93
56.270        40
56.280         0
56.290        27
56.300        40
56.310        27
56.320        40
56.330        27
56.340        13
56.350        67
56.360        27
56.370        27
56.380        27
56.390        13
56.400        13
56.410        13
56.420        27
56.430        67
56.440        40
56.450        13
56.460        53
56.470        40
56.480        13
56.490        13
56.500        53
56.510        40
56.520        27
56.530        13
56.540        13
56.550        13
56.560        13
56.570        40
56.580        13
56.590        13
56.600        27
56.610        13
56.620        13
56.630        40
56.640        27
56.650        53
56.660        40
56.670         0
56.680        13
56.690        13
56.700        13
56.710        13
56.720        40
56.730        27
56.740        40
56.750        27
56.760        27
56.770         0
56.780         0
56.790         0
56.800        13
56.810        13
56.820        27
56.830        13
56.840         0
56.850        13
56.860        13
56.870        27
56.880        40
56.890        13
56.900        40
56.910        27
56.920        13
56.930        40
56.940        40
56.950        53
56.960         0
56.970        13
56.980        13
56.990        40
57.000        13
57.010        27
57.020        27
57.030        13
57.040        13
57.050        27
57.060        27
57.070        13
57.080        27
57.090        13
57.100        27
57.110        40
57.120        27
57.130        13
57.140        13
57.150         0
57.160         0
57.170        27
57.180        67
57.190        40
57.200        53
57.210        80
57.220        27
57.230        27
57.240        13
57.250        93
57.260         0
57.270        53
57.280        53
57.290        13
57.300         0
57.310        13
57.320        53
57.330        67
57.340        27
57.350         0
57.360        53
57.370        40
57.380        67
57.390        53
57.400        27
57.410        13
57.420        27
57.430        13
57.440        13
57.450        40
57.460        67
57.470        27
57.480        13
57.490        53
57.500        53
57.510       133
57.520       120
57.530        80
57.540        80
57.550        67
57.560       160
57.570        53
57.580        80
57.590        93
57.600        27
57.610        67
57.620        53
57.630         0
57.640        27
57.650        40
57.660        53
57.670        67
57.680        40
57.690        93
57.700        93
57.710        80
57.720        40
57.730        13
57.740         0
57.750        27
57.760        27
57.770        40
57.780        27
57.790         0
57.800        27
57.810        40
57.820        13
57.830        27
57.840         0
57.850         0
57.860        27
57.870        53
57.880         0
57.890        13
57.900        13
57.910        40
57.920         0
57.930         0
57.940        27
57.950        27
57.960        13
57.970        13
57.980        13
57.990        53
58.000        27
58.010        13
58.020        40
58.030        27
58.040        40
58.050        67
58.060        27
58.070        67
58.080        40
58.090        13
58.100        27
58.110        13
58.120        27
58.130         0
58.140        13
58.150        13
58.160        13
58.170        13
58.180        40
58.190        13
58.200        13
58.210         0
58.220         0
58.230         0
58.240        40
58.250        27
58.260        13
58.270        13
58.280        40
58.290        80
58.300        13
58.310         0
58.320        13
58.330        13
58.340         0
58.350        40
58.360        13
58.370        27
58.380        13
58.390        27
58.400         0
58.410        40
58.420        53
58.430        27
58.440        13
58.450        40
58.460        13
58.470        40
58.480         0
58.490        27
58.500        13
58.510         0
58.520        27
58.530        13
58.540        27
58.550        13
58.560        27
58.570        27
58.580        27
58.590        40
58.600        13
58.610         0
58.620        27
58.630         0
58.640         0
58.650        53
58.660         0
58.670        13
58.680         0
58.690        27
58.700        27
58.710         0
58.720        40
58.730         0
58.740        40
58.750         0
58.760        13
58.770        53
58.780        13
58.790        27
58.800        40
58.810        13
58.820         0
58.830         0
58.840        13
58.850        40
58.860        40
58.870        13
58.880         0
58.890        13
58.900        13
58.910        40
58.920        40
58.930        13
58.940         0
58.950         0
58.960         0
58.970         0
58.980        13
58.990         0
59.000         0
59.010        27
59.020        27
59.030        13
59.040        40
59.050        40
59.060        40
59.070        67
59.080         0
59.090        13
59.100         0
59.110        40
59.120        13
59.130         0
59.140        27
59.150         0
59.160        40
59.170        27
59.180        27
59.190        13
59.200         0
59.210        27
59.220        53
59.230        27
59.240        40
59.250        13
59.260        27
59.270        13
59.280        13
59.290         0
59.300        40
59.310         0
59.320        13
59.330         0
59.340         0
59.350        13
59.360        13
59.370        40
59.380        27
59.390         0
59.400        27
59.410        40
59.420         0
59.430        13
59.440         0
59.450        13
59.460        27
59.470        40
59.480        13
59.490         0
59.500        40
59.510        13
59.520        13
59.530        40
59.540        27
59.550         0
59.560        13
59.570        40
59.580        27
59.590        13
59.600        27
59.610        53
59.620        13
59.630         0
59.640         0
59.650        13
59.660        40
59.670         0
59.680        27
59.690        53
59.700        40
59.710        40
59.720        40
59.730        13
59.740        13
59.750        13
59.760        27
59.770        13
59.780        40
59.790        13
59.800        40
59.810        13
59.820        27
59.830        27
59.840        67
59.850         0
59.860        40
59.870        53
59.880        27
59.890        13
59.900        13
59.910        40
59.920         0
59.930        27
59.940        13
59.950         0
59.960        27
59.970        53
59.980        13
59.990        13
60.000        27
