20.000        47
20.010        47
20.020        53
20.030        33
20.040        47
20.050        40
20.060        73
20.070        47
20.080        53
20.090        53
20.100        47
20.110        40
20.120        60
20.130        53
20.140        53
20.150        33
20.160        60
20.170        67
20.180        13
20.190        33
20.200        53
20.210        40
20.220        53
20.230        47
20.240        40
20.250        40
20.260        47
20.270        73
20.280        27
20.290        60
20.300        93
20.310        67
20.320        27
20.330        27
20.340        80
20.350        60
20.360        47
20.370        27
20.380        73
20.390        33
20.400        93
20.410        47
20.420       107
20.430        53
20.440        87
20.450        80
20.460        87
20.470        40
20.480        67
20.490        40
20.500        33
20.510        47
20.520        60
20.530        47
20.540        53
20.550        73
20.560        53
20.570        53
20.580        40
20.590        33
20.600        60
20.610        53
20.620        33
20.630        80
20.640        40
20.650        80
20.660        33
20.670        80
20.680        73
20.690        67
20.700        67
20.710        27
20.720        53
20.730        60
20.740        47
20.750        47
20.760        80
20.770        40
20.780        33
20.790        13
20.800        40
20.810        67
20.820        20
20.830        33
20.840        53
20.850        33
20.860        73
20.870        87
20.880        53
20.890        33
20.900       100
20.910        73
20.920        47
20.930        20
20.940        60
20.950        47
20.960        60
20.970        93
20.980        47
20.990        53
21.000        40
21.010        73
21.020        40
21.030        33
21.040        27
21.050        47
21.060        40
21.070        80
21.080        47
21.090        27
21.100        47
21.110        60
21.120        27
21.130        53
21.140        40
21.150        80
21.160        87
21.170        60
21.180        53
21.190        60
21.200        33
21.210        53
21.220        60
21.230        67
21.240        33
21.250        33
21.260        47
21.270        67
21.280        27
21.290        33
21.300        47
21.310        40
21.320        40
21.330        53
21.340        40
21.350        73
21.360        60
21.370        40
21.380        53
21.390        53
21.400        33
21.410        33
21.420        53
21.430        60
21.440        60
21.450        60
21.460        47
21.470        67
21.480        60
21.490        40
21.500        60
21.510        33
21.520        33
21.530        40
21.540        40
21.550        40
21.560        27
21.570        87
21.580        60
21.590        53
21.600        33
21.610        53
21.620        53
21.630        33
21.640        40
21.650        27
21.660        60
21.670        60
21.680        13
21.690        60
21.700        67
21.710        47
21.720        53
21.730        47
21.740        40
21.750        47
21.760        33
21.770        53
21.780        47
21.790        67
21.800        60
21.810        27
21.820        40
21.830        33
21.840        33
21.850        60
21.860        47
21.870        60
21.880        73
21.890        53
21.900        60
21.910        53
21.920        60
21.930        13
21.940        33
21.950        60
21.960        80
21.970        60
21.980        87
21.990        53
22.000        27
22.010        80
22.020        73
22.030        33
22.040        60
22.050        47
22.060        27
22.070        20
22.080        87
22.090        60
22.100        47
22.110        67
22.120        53
22.130        40
22.140        60
22.150        67
22.160       107
22.170        73
22.180        60
22.190        87
22.200        60
22.210        47
22.220        67
22.230       107
22.240        80
22.250        93
22.260       100
22.270        93
22.280        53
22.290        87
22.300        93
22.310        93
22.320        87
22.330       100
22.340        80
22.350       107
22.360       140
22.370       113
22.380       120
22.390       193
22.400       147
22.410       200
22.420       167
22.430       167
22.440       173
22.450       260
22.460       193
22.470       240
22.480       267
22.490       280
22.500       200
22.510       247
22.520       287
22.530       280
22.540       340
22.550       320
22.560       373
22.570       367
22.580       420
22.590       420
22.600       526
22.610       520
22.620       493
22.630       546
22.640       480
22.650       560
22.660       466
22.670       546
22.680       480
22.690       506
22.700       493
22.710       520
22.720       453
22.730       500
22.740       520
22.750       393
22.760       440
22.770       380
22.780       407
22.790       413
22.800       387
22.810       253
22.820       353
22.830       267
22.840       227
22.850       227
22.860       260
22.870       300
22.880       193
22.890       180
22.900       167
22.910       200
22.920       213
22.930       180
22.940       240
22.950       173
22.960       153
22.970       167
22.980        80
22.990       100
23.000        87
23.010       160
23.020       120
23.030       107
23.040        87
23.050       153
23.060       100
23.070       100
23.080       113
23.090       100
23.100        60
23.110       187
23.120       107
23.130        73
23.140       113
23.150       100
23.160        67
23.170        47
23.180        80
23.190       107
23.200       107
23.210        87
23.220        87
23.230        67
23.240        60
23.250       100
23.260        73
23.270        93
23.280        80
23.290        87
23.300        53
23.310        60
23.320        60
23.330        60
23.340        67
23.350        73
23.360        93
23.370        87
23.380        80
23.390        33
23.400        53
23.410        67
23.420        47
23.430        53
23.440       100
23.450        93
23.460        60
23.470        53
23.480        60
23.490        73
23.500        60
23.510        40
23.520        33
23.530        73
23.540        53
23.550        33
23.560        53
23.570        53
23.580        47
23.590        53
23.600       100
23.610        40
23.620        73
23.630        67
23.640        27
23.650        67
23.660        53
23.670        40
23.680        80
23.690        73
23.700        40
23.710        67
23.720        67
23.730        53
23.740        93
23.750        33
23.760        33
23.770        47
23.780        40
23.790        67
23.800        93
23.810        47
23.820        67
23.830        47
23.840        47
23.850        40
23.860        67
23.870        33
23.880        60
23.890        47
23.900        53
23.910        53
23.920        60
23.930        47
23.940        33
23.950        67
23.960        80
23.970        80
23.980        80
23.990        47
24.000        67
24.010        40
24.020        40
24.030        47
24.040        60
24.050        47
24.060        53
24.070        60
24.080        47
24.090        40
24.100        27
24.110        53
24.120        27
24.130        93
24.140        40
24.150        33
24.160        80
24.170        33
24.180        27
24.190        60
24.200        67
24.210        67
24.220        67
24.230        53
24.240        40
24.250        33
24.260        60
24.270        53
24.280        60
24.290        33
24.300        60
24.310        73
24.320        73
24.330        13
24.340        87
24.350        47
24.360        60
24.370        67
24.380        47
24.390        60
24.400        47
24.410        40
24.420        73
24.430        60
24.440        33
24.450        73
24.460        73
24.470        80
24.480        53
24.490        53
24.500        53
24.510        33
24.520        87
24.530        80
24.540        13
24.550        53
24.560        53
24.570        40
24.580        53
24.590        40
24.600        87
24.610        33
24.620        60
24.630        53
24.640        20
24.650        33
24.660        53
24.670        40
24.680        47
24.690        47
24.700        20
24.710        60
24.720        60
24.730        53
24.740        60
24.750        73
24.760        60
24.770        93
24.780        60
24.790        40
24.800        60
24.810        40
24.820        47
24.830        67
24.840        47
24.850        40
24.860        40
24.870        53
24.880        73
24.890        67
24.900        13
24.910        40
24.920        40
24.930       107
24.940        33
24.950        33
24.960        40
24.970        47
24.980        27
24.990        67
25.000        33
25.010        33
25.020        40
25.030        33
25.040        60
25.050        60
25.060        40
25.070        73
25.080        60
25.090        33
25.100        53
25.110        93
25.120        53
25.130        47
25.140        47
25.150        47
25.160        33
25.170        47
25.180        47
25.190        67
25.200        53
25.210        67
25.220        33
25.230        53
25.240        67
25.250        47
25.260        33
25.270        20
25.280        67
25.290        40
25.300        47
25.310        27
25.320        93
25.330        93
25.340        27
25.350        47
25.360       100
25.370        73
25.380        67
25.390        53
25.400       120
25.410       140
25.420       113
25.430        73
25.440       100
25.450       113
25.460       100
25.470        87
25.480        80
25.490       167
25.500        87
25.510       167
25.520       147
25.530       100
25.540       107
25.550        93
25.560       160
25.570       200
25.580       260
25.590       213
25.600       273
25.610       167
25.620       253
25.630       253
25.640       160
25.650       167
25.660       180
25.670       140
25.680       127
25.690        73
25.700        87
25.710       100
25.720        80
25.730        73
25.740        60
25.750        67
25.760        20
25.770        80
25.780        53
25.790        53
25.800        73
25.810        47
25.820        47
25.830        47
25.840        47
25.850        27
25.860        27
25.870        73
25.880        40
25.890        60
25.900        47
25.910        40
25.920        40
25.930         7
25.940        60
25.950        60
25.960        47
25.970        33
25.980        47
25.990        73
26.000        60
26.010        27
26.020        33
26.030        53
26.040        27
26.050        33
26.060        53
26.070        33
26.080        33
26.090        27
26.100        60
26.110        33
26.120        53
26.130        67
26.140        33
26.150        40
26.160        33
26.170        33
26.180        60
26.190        67
26.200        53
26.210        20
26.220        60
26.230        60
26.240        47
26.250        73
26.260        40
26.270        67
26.280        40
26.290        20
26.300        47
26.310        80
26.320        53
26.330        20
26.340        60
26.350        27
26.360        40
26.370        40
26.380        33
26.390        33
26.400        47
26.410        80
26.420        80
26.430        40
26.440        53
26.450        60
26.460        53
26.470        73
26.480        40
26.490        53
26.500        53
26.510        67
26.520        33
26.530        20
26.540        20
26.550        13
26.560        40
26.570        53
26.580        53
26.590        33
26.600        47
26.610        47
26.620        20
26.630        60
26.640        40
26.650        67
26.660        27
26.670        60
26.680        33
26.690        53
26.700        47
26.710        67
26.720        40
26.730        13
26.740        20
26.750        27
26.760        40
26.770        60
26.780        60
26.790        47
26.800        47
26.810        40
26.820        33
26.830        60
26.840        47
26.850        73
26.860        33
26.870        20
26.880        13
26.890        33
26.900        67
26.910        40
26.920        27
26.930        67
26.940        40
26.950        67
26.960        87
26.970        47
26.980        27
26.990        60
27.000        20
27.010        73
27.020        40
27.030        60
27.040        80
27.050         7
27.060        40
27.070        40
27.080        33
27.090        60
27.100        60
27.110        47
27.120        33
27.130        67
27.140        47
27.150        73
27.160        13
27.170        40
27.180        27
27.190        87
27.200        33
27.210        60
27.220        53
27.230        67
27.240        53
27.250        47
27.260        80
27.270        47
27.280        60
27.290        67
27.300        40
27.310        47
27.320        47
27.330        33
27.340        53
27.350        33
27.360        13
27.370        20
27.380        67
27.390        33
27.400        67
27.410        67
27.420        67
27.430        27
27.440        27
27.450        33
27.460        47
27.470        53
27.480        27
27.490        47
27.500        60
27.510        40
27.520        27
27.530        53
27.540        47
27.550        60
27.560        33
27.570        27
27.580        47
27.590        53
27.600        40
27.610        47
27.620        40
27.630        33
27.640        60
27.650        33
27.660        33
27.670        13
27.680        47
27.690        47
27.700        27
27.710        47
27.720        33
27.730        60
27.740        47
27.750        33
27.760        40
27.770        47
27.780        40
27.790        67
27.800        60
27.810        67
27.820        27
27.830        60
27.840        33
27.850        33
27.860        53
27.870        40
27.880        27
27.890        47
27.900        47
27.910        73
27.920        33
27.930        47
27.940        27
27.950        27
27.960        47
27.970        27
27.980        20
27.990        33
28.000        40
28.010        33
28.020        53
28.030        47
28.040        27
28.050        27
28.060        60
28.070        33
28.080        53
28.090        20
28.100        33
28.110        33
28.120        40
28.130        60
28.140        20
28.150        27
28.160        53
28.170        53
28.180        33
28.190        33
28.200        40
28.210        27
28.220        73
28.230        40
28.240        33
28.250        40
28.260        33
28.270        33
28.280        47
28.290        20
28.300        33
28.310        33
28.320        33
28.330        40
28.340        47
28.350        13
28.360        27
28.370        53
28.380        40
28.390        47
28.400        13
28.410        20
28.420        20
28.430        53
28.440        20
28.450        33
28.460         7
28.470        53
28.480        47
28.490        53
28.500        67
28.510        20
28.520        40
28.530        13
28.540        47
28.550        47
28.560        40
28.570        20
28.580        33
28.590        20
28.600        33
28.610        60
28.620        67
28.630        47
28.640        67
28.650        33
28.660        33
28.670        27
28.680        53
28.690        40
28.700        40
28.710        60
28.720        47
28.730        47
28.740        47
28.750        40
28.760        87
28.770        33
28.780        33
28.790        40
28.800        33
28.810        40
28.820        60
28.830        53
28.840        27
28.850        60
28.860        20
28.870        27
28.880        67
28.890        67
28.900        27
28.910        40
28.920        67
28.930        53
28.940        40
28.950        47
28.960        13
28.970        53
28.980        33
28.990        53
29.000        40
29.010        53
29.020        33
29.030        60
29.040        40
29.050        40
29.060        47
29.070        47
29.080        40
29.090        20
29.100        53
29.110        27
29.120        27
29.130        27
29.140        27
29.150        60
29.160         7
29.170        20
29.180        53
29.190        47
29.200        67
29.210        47
29.220        33
29.230        33
29.240        80
29.250        53
29.260        40
29.270        40
29.280        33
29.290        13
29.300        47
29.310        60
29.320        60
29.330        40
29.340        33
29.350        47
29.360        20
29.370        20
29.380        27
29.390        33
29.400        20
29.410        47
29.420        27
29.430        33
29.440        47
29.450        40
29.460        27
29.470        27
29.480        20
29.490        67
29.500        33
29.510        33
29.520        27
29.530        53
29.540        20
29.550        33
29.560        13
29.570        53
29.580        27
29.590        53
29.600        53
29.610        33
29.620        80
29.630        20
29.640        33
29.650        53
29.660        47
29.670        60
29.680        27
29.690        27
29.700        47
29.710        60
29.720        53
29.730        27
29.740        33
29.750        47
29.760        13
29.770        13
29.780        27
29.790        33
29.800        47
29.810        53
29.820        33
29.830        47
29.840        40
29.850        27
29.860        20
29.870        13
29.880        60
29.890        20
29.900        33
29.910        20
29.920        33
29.930        47
29.940        53
29.950        13
29.960        40
29.970        40
29.980        27
29.990        60
30.000        33
30.010        40
30.020        20
30.030        40
30.040        40
30.050        80
30.060        40
30.070        67
30.080        47
30.090        47
30.100        47
30.110        40
30.120        60
30.130        40
30.140        33
30.150        27
30.160        33
30.170        53
30.180        33
30.190        33
30.200        13
30.210        33
30.220        33
30.230        20
30.240        33
30.250        40
30.260        40
30.270        33
30.280        27
30.290        53
30.300        33
30.310        47
30.320        27
30.330        27
30.340        47
30.350        20
30.360        87
30.370        47
30.380        13
30.390        60
30.400        33
30.410        40
30.420        27
30.430        27
30.440        47
30.450        47
30.460        40
30.470        20
30.480        40
30.490        27
30.500        40
30.510        47
30.520        33
30.530        27
30.540        13
30.550        53
30.560        27
30.570        27
30.580        40
30.590        27
30.600        27
30.610        20
30.620        53
30.630        20
30.640        40
30.650        40
30.660        33
30.670        20
30.680        60
30.690        47
30.700        27
30.710        33
30.720        13
30.730        20
30.740        33
30.750        47
30.760        33
30.770        20
30.780        33
30.790        13
30.800        20
30.810         7
30.820        33
30.830        13
30.840        60
30.850        40
30.860         7
30.870        47
30.880        27
30.890        33
30.900        60
30.910        40
30.920        47
30.930        27
30.940        27
30.950         0
30.960        13
30.970        60
30.980         7
30.990        40
31.000        33
31.010        20
31.020        20
31.030        40
31.040        60
31.050        33
31.060        33
31.070        27
31.080        33
31.090        27
31.100        13
31.110        27
31.120        87
31.130        47
31.140        33
31.150        33
31.160        20
31.170        60
31.180        40
31.190        40
31.200        40
31.210        27
31.220        53
31.230        33
31.240        27
31.250        27
31.260        40
31.270        27
31.280        27
31.290        33
31.300        33
31.310        60
31.320        47
31.330        80
31.340        47
31.350        33
31.360        20
31.370        60
31.380        13
31.390        40
31.400        27
31.410        20
31.420        33
31.430        47
31.440        33
31.450        53
31.460        33
31.470        40
31.480        93
31.490        40
31.500        47
31.510        27
31.520        27
31.530        33
31.540        40
31.550        53
31.560        33
31.570        53
31.580        40
31.590        67
31.600        40
31.610        27
31.620        20
31.630        47
31.640        33
31.650        27
31.660        47
31.670        33
31.680        33
31.690        33
31.700        33
31.710        27
31.720        40
31.730        27
31.740        27
31.750        33
31.760        13
31.770        20
31.780        27
31.790        53
31.800        27
31.810        60
31.820        13
31.830        33
31.840        40
31.850        33
31.860        47
31.870        47
31.880        60
31.890        40
31.900        40
31.910        47
31.920        33
31.930        20
31.940        33
31.950        87
31.960        67
31.970        27
31.980        27
31.990        33
32.000        33
32.010        67
32.020        40
32.030        60
32.040        67
32.050        67
32.060        60
32.070       113
32.080        80
32.090        47
32.100        67
32.110        47
32.120       120
32.130        67
32.140        93
32.150        53
32.160        33
32.170        67
32.180        93
32.190        93
32.200       167
32.210       147
32.220       107
32.230        93
32.240       120
32.250       127
32.260        87
32.270       153
32.280       140
32.290       167
32.300       140
32.310       160
32.320       153
32.330       200
32.340       247
32.350       233
32.360       220
32.370       240
32.380       180
32.390       193
32.400       173
32.410       233
32.420       300
32.430       240
32.440       187
32.450       240
32.460       280
32.470       193
32.480       173
32.490       187
32.500       173
32.510       120
32.520       173
32.530       153
32.540       107
32.550       120
32.560       140
32.570       173
32.580       107
32.590       120
32.600        40
32.610        93
32.620       100
32.630        87
32.640        73
32.650        67
32.660       100
32.670        47
32.680        33
32.690        60
32.700        73
32.710        87
32.720        60
32.730        47
32.740        60
32.750        60
32.760        80
32.770        40
32.780        27
32.790        40
32.800        53
32.810        93
32.820        33
32.830        53
32.840        33
32.850        60
32.860        47
32.870        20
32.880        13
32.890        13
32.900        73
32.910        20
32.920        33
32.930        53
32.940        40
32.950        53
32.960        33
32.970        13
32.980        27
32.990        20
33.000        33
33.010        40
33.020        40
33.030        60
33.040        60
33.050        40
33.060        27
33.070        33
33.080        33
33.090        53
33.100        60
33.110        13
33.120        27
33.130        33
33.140         7
33.150        40
33.160        20
33.170        27
33.180        40
33.190        20
33.200        33
33.210         7
33.220        13
33.230        13
33.240        33
33.250        47
33.260        27
33.270        20
33.280        20
33.290        20
33.300        27
33.310        53
33.320        60
33.330        27
33.340        40
33.350        47
33.360        27
33.370        20
33.380        20
33.390        20
33.400        60
33.410        33
33.420        20
33.430        33
33.440        20
33.450        27
33.460        27
33.470        27
33.480        33
33.490        47
33.500        27
33.510        13
33.520        33
33.530        67
33.540        27
33.550        20
33.560        33
33.570        33
33.580        33
33.590        27
33.600        20
33.610        40
33.620        20
33.630        27
33.640        13
33.650        27
33.660        13
33.670        33
33.680        40
33.690        27
33.700        40
33.710        13
33.720        27
33.730        27
33.740        13
33.750        47
33.760        33
33.770        27
33.780        47
33.790        13
33.800        27
33.810        67
33.820        20
33.830        60
33.840        40
33.850        20
33.860        27
33.870        20
33.880        67
33.890         7
33.900        20
33.910        27
33.920        27
33.930        13
33.940        33
33.950        20
33.960         0
33.970        13
33.980        27
33.990        20
34.000        13
34.010        27
34.020        13
34.030        20
34.040        20
34.050        33
34.060        20
34.070        27
34.080        20
34.090         7
34.100        27
34.110        40
34.120        40
34.130        27
34.140        40
34.150        33
34.160        20
34.170        20
34.180        27
34.190        33
34.200        40
34.210        13
34.220        33
34.230        53
34.240         7
34.250        20
34.260        13
34.270        67
34.280        40
34.290        67
34.300        20
34.310        53
34.320        60
34.330        27
34.340        53
34.350        40
34.360        27
34.370        53
34.380        60
34.390        20
34.400        33
34.410        20
34.420        13
34.430        40
34.440        40
34.450        20
34.460        33
34.470        53
34.480        13
34.490        20
34.500        27
34.510        40
34.520        27
34.530        20
34.540        13
34.550        13
34.560        27
34.570        27
34.580        20
34.590        13
34.600        27
34.610        33
34.620        33
34.630        27
34.640        40
34.650        33
34.660        40
34.670        27
34.680        33
34.690        13
34.700        47
34.710        20
34.720        20
34.730        13
34.740        40
34.750        27
34.760        13
34.770        33
34.780        33
34.790        33
34.800        20
34.810        53
34.820        40
34.830        73
34.840        53
34.850        47
34.860        27
34.870        40
34.880        67
34.890        20
34.900        33
34.910        67
34.920        40
34.930        33
34.940        53
34.950        40
34.960        87
34.970        80
34.980        73
34.990        87
35.000        87
35.010        80
35.020        87
35.030        60
35.040        40
35.050       107
35.060       127
35.070       147
35.080       147
35.090       140
35.100       240
35.110       260
35.120       260
35.130       327
35.140       300
35.150       433
35.160       473
35.170       706
35.180       726
35.190       673
35.200       606
35.210       540
35.220       513
35.230       413
35.240       353
35.250       287
35.260       340
35.270       307
35.280       307
35.290       340
35.300       300
35.310       240
35.320       120
35.330       120
35.340        40
35.350        80
35.360        67
35.370        60
35.380        47
35.390        40
35.400        47
35.410        20
35.420        53
35.430        20
35.440        33
35.450        27
35.460        33
35.470        40
35.480        27
35.490        27
35.500        27
35.510        47
35.520        13
35.530        47
35.540         7
35.550        20
35.560        20
35.570        20
35.580        53
35.590        40
35.600        13
35.610        40
35.620        27
35.630        53
35.640        73
35.650        33
35.660        27
35.670        47
35.680        47
35.690         7
35.700        20
35.710        20
35.720        20
35.730         7
35.740        20
35.750        20
35.760        20
35.770        33
35.780        13
35.790        27
35.800         7
35.810        33
35.820        20
35.830        13
35.840        13
35.850         7
35.860        27
35.870        13
35.880        40
35.890        13
35.900        27
35.910        47
35.920        20
35.930        27
35.940        47
35.950        33
35.960         0
35.970        20
35.980        27
35.990        27
36.000        27
36.010        27
36.020        27
36.030        53
36.040        40
36.050        33
36.060        53
36.070        40
36.080        33
36.090        20
36.100        20
36.110        20
36.120        47
36.130         7
36.140        27
36.150        47
36.160        20
36.170        33
36.180        40
36.190        27
36.200        27
36.210        20
36.220        20
36.230        27
36.240        20
36.250        27
36.260         7
36.270        13
36.280        13
36.290        27
36.300         7
36.310        33
36.320        13
36.330        27
36.340        13
36.350        27
36.360        60
36.370        33
36.380        40
36.390        13
36.400        40
36.410        40
36.420        40
36.430        53
36.440        13
36.450        20
36.460        27
36.470        33
36.480        13
36.490        27
36.500        13
36.510        33
36.520         7
36.530         7
36.540        27
36.550        47
36.560        27
36.570        47
36.580        40
36.590        13
36.600        20
36.610         7
36.620         0
36.630        27
36.640        27
36.650        20
36.660         7
36.670        47
36.680        13
36.690        33
36.700        27
36.710        27
36.720        27
36.730        27
36.740        20
36.750        13
36.760        13
36.770        33
36.780        27
36.790        40
36.800        40
36.810        13
36.820        33
36.830        27
36.840        20
36.850        53
36.860        20
36.870        33
36.880        40
36.890        13
36.900        27
36.910         7
36.920        20
36.930         7
36.940        20
36.950        53
36.960        13
36.970        27
36.980        27
36.990        53
37.000        53
37.010        47
37.020        20
37.030        40
37.040        20
37.050        13
37.060        13
37.070        47
37.080        40
37.090        27
37.100        27
37.110        20
37.120        27
37.130        20
37.140        20
37.150        27
37.160        13
37.170        27
37.180        13
37.190        53
37.200        20
37.210        27
37.220        20
37.230        33
37.240        33
37.250        13
37.260        33
37.270        33
37.280        33
37.290        53
37.300        13
37.310        20
37.320        33
37.330        20
37.340        27
37.350        27
37.360        40
37.370        33
37.380        13
37.390        27
37.400        20
37.410        47
37.420        47
37.430        27
37.440        13
37.450        27
37.460        40
37.470        13
37.480         7
37.490        40
37.500        47
37.510        20
37.520        13
37.530        53
37.540        20
37.550        47
37.560        27
37.570        40
37.580        27
37.590        13
37.600        40
37.610        40
37.620        20
37.630        20
37.640        40
37.650        40
37.660        33
37.670        33
37.680        47
37.690        40
37.700        40
37.710        33
37.720        80
37.730        67
37.740        80
37.750        93
37.760        87
37.770        80
37.780       147
37.790       113
37.800       160
37.810       100
37.820       113
37.830       107
37.840       100
37.850        80
37.860        53
37.870        73
37.880        60
37.890        40
37.900        93
37.910        53
37.920        60
37.930        53
37.940        87
37.950        80
37.960         0
37.970        40
37.980        33
37.990        20
38.000        13
38.010         7
38.020        33
38.030        47
38.040         7
38.050        27
38.060        33
38.070        20
38.080        13
38.090        33
38.100        33
38.110        27
38.120        20
38.130        27
38.140        40
38.150        33
38.160        20
38.170        13
38.180        13
38.190        33
38.200        33
38.210        20
38.220        20
38.230        27
38.240        27
38.250        20
38.260        47
38.270        27
38.280        40
38.290        40
38.300        13
38.310        13
38.320        40
38.330         7
38.340        27
38.350        33
38.360         7
38.370        27
38.380        20
38.390        20
38.400        13
38.410        60
38.420        27
38.430        27
38.440        13
38.450        27
38.460        20
38.470        33
38.480        13
38.490        27
38.500        53
38.510        47
38.520        20
38.530        27
38.540        20
38.550        27
38.560        40
38.570        13
38.580        27
38.590        13
38.600        20
38.610         7
38.620        13
38.630        27
38.640        40
38.650        20
38.660        47
38.670         7
38.680        40
38.690        27
38.700        27
38.710        53
38.720        27
38.730        40
38.740        47
38.750        13
38.760        20
38.770        47
38.780        40
38.790        27
38.800         7
38.810        13
38.820        27
38.830        20
38.840        13
38.850        33
38.860        20
38.870        13
38.880        33
38.890        13
38.900        40
38.910        33
38.920        47
38.930         7
38.940        40
38.950        27
38.960        13
38.970        33
38.980        40
38.990        33
39.000         7
39.010        27
39.020        53
39.030         7
39.040        27
39.050        27
39.060        20
39.070        20
39.080        27
39.090        33
39.100        20
39.110        27
39.120        13
39.130        27
39.140        20
39.150        13
39.160        47
39.170        13
39.180        13
39.190        27
39.200        27
39.210        40
39.220        20
39.230        27
39.240        20
39.250        20
39.260         7
39.270        40
39.280        27
39.290        33
39.300        27
39.310        40
39.320        20
39.330        40
39.340        33
39.350        40
39.360        33
39.370        13
39.380        20
39.390        33
39.400        27
39.410        27
39.420        40
39.430        40
39.440        40
39.450        13
39.460        40
39.470        27
39.480        33
39.490        33
39.500        20
39.510        40
39.520        13
39.530        20
39.540        27
39.550        40
39.560        27
39.570        33
39.580        47
39.590        20
39.600        33
39.610        33
39.620        60
39.630        27
39.640        60
39.650        47
39.660         7
39.670        60
39.680        47
39.690        53
39.700        27
39.710        27
39.720        27
39.730        33
39.740        60
39.750        40
39.760        27
39.770        53
39.780        20
39.790        40
39.800        60
39.810        67
39.820        73
39.830        80
39.840        80
39.850       107
39.860        87
39.870        93
39.880        67
39.890        87
39.900        80
39.910        67
39.920        73
39.930       120
39.940       167
39.950       173
39.960       133
39.970       100
39.980       127
39.990       160
40.000       147
40.010       180
40.020       167
40.030       160
40.040       113
40.050       127
40.060        87
40.070       113
40.080       147
40.090       127
40.100        87
40.110       153
40.120        87
40.130        93
40.140       113
40.150        93
40.160       140
40.170       107
40.180       113
40.190        80
40.200       140
40.210        87
40.220        73
40.230        53
40.240        33
40.250        53
40.260        93
40.270        53
40.280        47
40.290        13
40.300        40
40.310        20
40.320        40
40.330        40
40.340        27
40.350        33
40.360        60
40.370        47
40.380        27
40.390        20
40.400        27
40.410        13
40.420        27
40.430        33
40.440        27
40.450        20
40.460        20
40.470        20
40.480        53
40.490        53
40.500        27
40.510        33
40.520         0
40.530        40
40.540        33
40.550         7
40.560        20
40.570        33
40.580        20
40.590        27
40.600        33
40.610        47
40.620        20
40.630        20
40.640        20
40.650        20
40.660        53
40.670        27
40.680        27
40.690        33
40.700        47
40.710        33
40.720        13
40.730        13
40.740        20
40.750        33
40.760        40
40.770        13
40.780        40
40.790        33
40.800        27
40.810         7
40.820        40
40.830        13
40.840        27
40.850        40
40.860        60
40.870        33
40.880        20
40.890        87
40.900        27
40.910        20
40.920        27
40.930        13
40.940        20
40.950        27
40.960        33
40.970         0
40.980        13
40.990         0
41.000        20
41.010        47
41.020        20
41.030        33
41.040        13
41.050        40
41.060        20
41.070        20
41.080        27
41.090        27
41.100        33
41.110        20
41.120        27
41.130        20
41.140         7
41.150        47
41.160        27
41.170        20
41.180        53
41.190         7
41.200        27
41.210        20
41.220        13
41.230        60
41.240        47
41.250        40
41.260        27
41.270         7
41.280        27
41.290        47
41.300        20
41.310        27
41.320        40
41.330        60
41.340        53
41.350        67
41.360        40
41.370        33
41.380        60
41.390        40
41.400        40
41.410        40
41.420        27
41.430        33
41.440        20
41.450        40
41.460        53
41.470        40
41.480        47
41.490        53
41.500        40
41.510        27
41.520        53
41.530        40
41.540        67
41.550        60
41.560        33
41.570        67
41.580       100
41.590        73
41.600        47
41.610        67
41.620        73
41.630        93
41.640       187
41.650       147
41.660       153
41.670       213
41.680       187
41.690       160
41.700       200
41.710       153
41.720       160
41.730       127
41.740       140
41.750       133
41.760       167
41.770       107
41.780       153
41.790       173
41.800       100
41.810       133
41.820        93
41.830        87
41.840        73
41.850        67
41.860        93
41.870        53
41.880        40
41.890        47
41.900        33
41.910        33
41.920        40
41.930        40
41.940        47
41.950        67
41.960        73
41.970         7
41.980        33
41.990        60
42.000        73
42.010        33
42.020        33
42.030        20
42.040        20
42.050        33
42.060        27
42.070        27
42.080        40
42.090         7
42.100        33
42.110        27
42.120        20
42.130        53
42.140        53
42.150        13
42.160        20
42.170        27
42.180        33
42.190        33
42.200        27
42.210         7
42.220        20
42.230        20
42.240        27
42.250         7
42.260         7
42.270        73
42.280        20
42.290        33
42.300        27
42.310        47
42.320        27
42.330        33
42.340        13
42.350        27
42.360        27
42.370        13
42.380        20
42.390        20
42.400        40
42.410        13
42.420        13
42.430        47
42.440        13
42.450        13
42.460        13
42.470        27
42.480        13
42.490        33
42.500        13
42.510        20
42.520        27
42.530         7
42.540        33
42.550        33
42.560        27
42.570        27
42.580         0
42.590         7
42.600        20
42.610         7
42.620         7
42.630        13
42.640        27
42.650        47
42.660        40
42.670        20
42.680        40
42.690        20
42.700        13
42.710        33
42.720        60
42.730        20
42.740        40
42.750        20
42.760        33
42.770        27
42.780        20
42.790        33
42.800        27
42.810        40
42.820        33
42.830        13
42.840        40
42.850        33
42.860        20
42.870        33
42.880        33
42.890        13
42.900        33
42.910        33
42.920        13
42.930        47
42.940        20
42.950        20
42.960         0
42.970        33
42.980        67
42.990        67
43.000        20
43.010        27
43.020        27
43.030        13
43.040        33
43.050        13
43.060        27
43.070        40
43.080        33
43.090        20
43.100        20
43.110        33
43.120        20
43.130        40
43.140        20
43.150        20
43.160        20
43.170        27
43.180        33
43.190        33
43.200        33
43.210        60
43.220        40
43.230        47
43.240        47
43.250        73
43.260        80
43.270        47
43.280        87
43.290        47
43.300        67
43.310       100
43.320        87
43.330       173
43.340       160
43.350       240
43.360       247
43.370       253
43.380       220
43.390       320
43.400       167
43.410       213
43.420       193
43.430       127
43.440       227
43.450       113
43.460       173
43.470       147
43.480       167
43.490       167
43.500       120
43.510       140
43.520       120
43.530       107
43.540        80
43.550        67
43.560        40
43.570        20
43.580        40
43.590        27
43.600        60
43.610        27
43.620        20
43.630        33
43.640        33
43.650        33
43.660        13
43.670        27
43.680        27
43.690        20
43.700        33
43.710        40
43.720         7
43.730        47
43.740        13
43.750         7
43.760        33
43.770        27
43.780        47
43.790        67
43.800        40
43.810        20
43.820        60
43.830        27
43.840        20
43.850        27
43.860        20
43.870        20
43.880        20
43.890        20
43.900        27
43.910        33
43.920        20
43.930        13
43.940        13
43.950        40
43.960        20
43.970        47
43.980        40
43.990        13
44.000        40
44.010        40
44.020        33
44.030         7
44.040        33
44.050        33
44.060        40
44.070         7
44.080        33
44.090        40
44.100        13
44.110        40
44.120        27
44.130         7
44.140        33
44.150        20
44.160        33
44.170        20
44.180        20
44.190        33
44.200        27
44.210        20
44.220        27
44.230        33
44.240        33
44.250        40
44.260        40
44.270        27
44.280        53
44.290        13
44.300        27
44.310        13
44.320        40
44.330        47
44.340        47
44.350        40
44.360        27
44.370        53
44.380        67
44.390        20
44.400        40
44.410        73
44.420        40
44.430        27
44.440        67
44.450        47
44.460        27
44.470        20
44.480        47
44.490        33
44.500        60
44.510        67
44.520        60
44.530        60
44.540        60
44.550        67
44.560        33
44.570        67
44.580        27
44.590        47
44.600        13
44.610        40
44.620        33
44.630        33
44.640        40
44.650        40
44.660        80
44.670        80
44.680        67
44.690        60
44.700        47
44.710        73
44.720        67
44.730        73
44.740        60
44.750        33
44.760        47
44.770        93
44.780        33
44.790        60
44.800        60
44.810        53
44.820        27
44.830        33
44.840        60
44.850        60
44.860        93
44.870        53
44.880        33
44.890        93
44.900        53
44.910        87
44.920        40
44.930        87
44.940        60
44.950        60
44.960        93
44.970        60
44.980        67
44.990       100
45.000        73
45.010        73
45.020        53
45.030       133
45.040        93
45.050       100
45.060        53
45.070        93
45.080        73
45.090       100
45.100        67
45.110       100
45.120        87
45.130       107
45.140        40
45.150       127
45.160        60
45.170       100
45.180        93
45.190        93
45.200        93
45.210       113
45.220        87
45.230        87
45.240        80
45.250       107
45.260        87
45.270       100
45.280       113
45.290       100
45.300        73
45.310       133
45.320        93
45.330       120
45.340       140
45.350       127
45.360       140
45.370       133
45.380        87
45.390       140
45.400        87
45.410       113
45.420       133
45.430       187
45.440       133
45.450       160
45.460       140
45.470       107
45.480       160
45.490       160
45.500       140
45.510       207
45.520       160
45.530       140
45.540       227
45.550       180
45.560       213
45.570       267
45.580       160
45.590       293
45.600       220
45.610       220
45.620       280
45.630       333
45.640       380
45.650       280
45.660       340
45.670       273
45.680       307
45.690       360
45.700       347
45.710       360
45.720       440
45.730       400
45.740       413
45.750       387
45.760       460
45.770       573
45.780       493
45.790       453
45.800       633
45.810       473
45.820       500
45.830       533
45.840       520
45.850       673
45.860       746
45.870       666
45.880       726
45.890       846
45.900       913
45.910       866
45.920       800
45.930       880
45.940       986
45.950       866
45.960      1140
45.970      1140
45.980      1206
45.990      1153
46.000      1186
46.010      1306
46.020      1299
46.030      1486
46.040      1519
46.050      1339
46.060      1413
46.070      1479
46.080      1613
46.090      1479
46.100      1366
46.110      1759
46.120      2079
46.130      1813
46.140      1833
46.150      1946
46.160      1946
46.170      2172
46.180      2339
46.190      2332
46.200      2266
46.210      2426
46.220      2412
46.230      2359
46.240      2359
46.250      2832
46.260      2332
46.270      2546
46.280      2639
46.290      2612
46.300      2559
46.310      2666
46.320      2772
46.330      2959
46.340      2606
46.350      2466
46.360      2679
46.370      2686
46.380      2619
46.390      2772
46.400      2559
46.410      2452
46.420      2392
46.430      2586
46.440      2339
46.450      2126
46.460      2392
46.470      2039
46.480      2266
46.490      2319
46.500      2272
46.510      1999
46.520      1846
46.530      1893
46.540      1846
46.550      1866
46.560      1919
46.570      1719
46.580      1619
46.590      1746
46.600      1666
46.610      1346
46.620      1526
46.630      1233
46.640      1566
46.650      1266
46.660      1386
46.670      1379
46.680      1006
46.690      1100
46.700       993
46.710      1073
46.720       853
46.730       953
46.740       893
46.750       846
46.760       786
46.770       786
46.780       766
46.790       733
46.800       640
46.810       646
46.820       673
46.830       626
46.840       540
46.850       540
46.860       520
46.870       500
46.880       506
46.890       533
46.900       387
46.910       486
46.920       347
46.930       393
46.940       446
46.950       307
46.960       367
46.970       313
46.980       367
46.990       253
47.000       300
47.010       280
47.020       353
47.030       313
47.040       180
47.050       307
47.060       293
47.070       247
47.080       267
47.090       207
47.100       253
47.110       187
47.120       247
47.130       200
47.140       207
47.150       180
47.160       140
47.170       187
47.180       167
47.190       187
47.200       140
47.210       160
47.220       187
47.230       227
47.240       167
47.250       180
47.260       120
47.270       127
47.280       140
47.290        93
47.300       120
47.310       140
47.320       180
47.330        87
47.340       147
47.350        87
47.360       120
47.370       127
47.380       113
47.390       120
47.400       120
47.410        93
47.420       113
47.430        73
47.440        67
47.450       100
47.460        93
47.470        47
47.480       127
47.490       140
47.500        93
47.510       120
47.520        73
47.530       133
47.540        80
47.550        60
47.560        93
47.570       100
47.580        47
47.590        53
47.600        80
47.610        73
47.620        80
47.630       107
47.640        67
47.650        67
47.660        80
47.670        87
47.680       100
47.690        60
47.700        60
47.710        73
47.720       100
47.730        67
47.740        53
47.750        40
47.760        93
47.770       100
47.780        60
47.790        60
47.800        67
47.810        73
47.820        47
47.830        80
47.840        60
47.850        53
47.860        87
47.870        27
47.880        67
47.890        47
47.900        53
47.910        53
47.920        53
47.930        33
47.940        73
47.950        40
47.960        33
47.970        53
47.980        60
47.990        40
48.000        47
48.010        33
48.020       100
48.030        40
48.040        80
48.050        60
48.060        47
48.070        67
48.080        40
48.090        73
48.100        53
48.110        67
48.120        67
48.130        40
48.140        47
48.150        20
48.160        60
48.170        33
48.180        47
48.190        33
48.200        47
48.210        73
48.220        47
48.230        73
48.240         7
48.250        33
48.260        13
48.270        53
48.280        33
48.290        73
48.300        47
48.310        40
48.320        60
48.330        53
48.340        27
48.350        67
48.360        67
48.370        27
48.380        33
48.390        53
48.400        80
48.410        33
48.420        33
48.430        27
48.440        20
48.450        53
48.460        33
48.470        27
48.480        33
48.490        67
48.500        73
48.510        47
48.520        60
48.530        47
48.540        40
48.550        27
48.560        27
48.570        47
48.580        40
48.590        13
48.600        47
48.610        40
48.620        47
48.630        33
48.640        20
48.650        20
48.660         0
48.670         7
48.680        33
48.690        47
48.700        33
48.710        27
48.720        47
48.730        27
48.740        27
48.750        13
48.760        47
48.770        60
48.780        33
48.790        47
48.800        80
48.810        53
48.820        13
48.830        53
48.840        13
48.850        47
48.860        40
48.870        47
48.880        53
48.890        47
48.900        40
48.910        47
48.920        20
48.930        27
48.940        53
48.950        60
48.960        27
48.970        33
48.980        47
48.990        27
49.000        47
49.010        40
49.020        40
49.030        67
49.040        53
49.050        27
49.060        47
49.070        33
49.080        33
49.090        47
49.100        20
49.110        33
49.120        40
49.130        60
49.140        33
49.150        33
49.160        33
49.170        60
49.180        40
49.190        27
49.200        33
49.210        33
49.220        47
49.230        27
49.240        40
49.250        27
49.260        20
49.270        13
49.280        27
49.290        53
49.300        33
49.310        13
49.320        40
49.330        53
49.340        13
49.350        67
49.360         7
49.370        33
49.380        80
49.390        47
49.400        27
49.410        40
49.420        53
49.430        53
49.440        27
49.450        33
49.460        40
49.470        13
49.480        40
49.490        20
49.500        53
49.510        13
49.520        40
49.530        13
49.540        53
49.550        47
49.560        27
49.570        20
49.580        13
49.590        27
49.600         7
49.610        53
49.620        33
49.630        20
49.640        53
49.650        20
49.660        40
49.670        47
49.680        33
49.690        20
49.700        47
49.710        13
49.720        27
49.730        20
49.740        47
49.750        33
49.760        40
49.770        27
49.780        47
49.790        33
49.800        27
49.810        40
49.820        13
49.830        27
49.840        13
49.850        53
49.860        27
49.870        40
49.880        27
49.890        27
49.900        27
49.910        20
49.920         7
49.930        27
49.940         7
49.950        27
49.960        20
49.970        27
49.980        60
49.990        33
50.000        20
50.010        47
50.020        20
50.030        53
50.040        27
50.050         7
50.060        13
50.070        33
50.080        27
50.090        40
50.100        27
50.110        47
50.120        27
50.130        33
50.140        13
50.150        20
50.160        27
50.170        47
50.180        40
50.190        27
50.200        20
50.210        27
50.220        33
50.230        40
50.240        20
50.250        20
50.260        27
50.270         7
50.280        20
50.290        60
50.300        33
50.310        27
50.320        27
50.330        20
50.340        20
50.350        40
50.360        13
50.370         7
50.380        13
50.390         7
50.400        20
50.410        27
50.420        33
50.430        20
50.440        40
50.450        13
50.460        53
50.470        33
50.480        47
50.490        40
50.500        20
50.510        40
50.520        20
50.530        27
50.540        20
50.550        53
50.560        60
50.570        33
50.580        27
50.590        20
50.600        27
50.610        33
50.620        33
50.630        27
50.640        13
50.650        47
50.660        33
50.670        33
50.680        13
50.690        27
50.700         0
50.710        47
50.720        27
50.730        13
50.740        27
50.750        33
50.760        13
50.770        33
50.780        20
50.790        27
50.800        33
50.810        20
50.820        40
50.830        33
50.840        47
50.850        33
50.860        13
50.870        33
50.880        20
50.890        47
50.900         0
50.910        27
50.920        27
50.930        33
50.940        33
50.950        27
50.960        20
50.970        60
50.980        40
50.990         7
51.000        40
51.010        13
51.020        40
51.030        20
51.040        33
51.050        20
51.060        20
51.070        20
51.080        13
51.090        20
51.100        13
51.110        27
51.120        27
51.130        20
51.140        33
51.150        20
51.160         7
51.170        20
51.180        13
51.190        20
51.200        33
51.210        20
51.220        60
51.230        27
51.240        47
51.250        33
51.260        27
51.270        27
51.280        27
51.290        20
51.300        20
51.310        27
51.320        27
51.330        20
51.340        33
51.350        33
51.360        40
51.370        53
51.380        20
51.390        60
51.400        33
51.410        20
51.420        27
51.430        27
51.440        20
51.450        27
51.460         7
51.470         7
51.480        33
51.490         7
51.500        27
51.510        60
51.520        13
51.530        27
51.540        33
51.550        47
51.560        27
51.570        53
51.580        33
51.590        47
51.600        47
51.610        20
51.620        27
51.630        13
51.640        40
51.650        33
51.660        13
51.670        67
51.680        40
51.690        13
51.700         7
51.710        40
51.720        40
51.730        33
51.740         0
51.750        20
51.760        20
51.770        13
51.780        20
51.790        47
51.800        40
51.810        27
51.820        20
51.830        20
51.840         0
51.850        27
51.860        13
51.870        33
51.880        27
51.890        27
51.900        33
51.910        20
51.920        47
51.930         7
51.940        13
51.950        33
51.960        20
51.970        13
51.980        13
51.990        33
52.000        27
52.010        40
52.020        13
52.030        13
52.040        20
52.050        27
52.060        13
52.070        40
52.080        47
52.090        13
52.100        20
52.110        27
52.120        27
52.130        13
52.140        40
52.150        27
52.160        53
52.170        20
52.180        27
52.190        20
52.200        20
52.210        40
52.220        67
52.230        33
52.240        27
52.250        53
52.260        47
52.270        33
52.280        13
52.290        27
52.300        20
52.310        47
52.320        40
52.330        33
52.340        27
52.350         0
52.360        40
52.370        20
52.380        40
52.390        47
52.400        40
52.410        20
52.420        53
52.430        40
52.440        40
52.450        40
52.460        40
52.470        40
52.480        60
52.490        87
52.500        67
52.510       113
52.520       160
52.530       247
52.540       333
52.550       307
52.560       407
52.570       327
52.580       400
52.590       260
52.600       300
52.610       273
52.620       193
52.630       227
52.640       140
52.650       113
52.660       180
52.670       113
52.680       180
52.690       180
52.700       133
52.710       253
52.720       173
52.730       160
52.740       140
52.750        87
52.760       107
52.770        73
52.780       100
52.790        73
52.800        67
52.810         7
52.820        20
52.830        53
52.840        27
52.850        53
52.860        40
52.870        20
52.880        20
52.890        53
52.900        20
52.910        13
52.920        20
52.930        27
52.940         7
52.950        40
52.960        40
52.970        13
52.980        33
52.990        20
53.000        27
53.010        27
53.020        47
53.030        33
53.040        20
53.050        27
53.060        13
53.070        13
53.080         7
53.090        40
53.100        20
53.110         0
53.120        20
53.130        20
53.140         7
53.150        33
53.160        13
53.170        13
53.180         7
53.190        20
53.200        27
53.210        20
53.220        20
53.230        20
53.240        33
53.250         7
53.260         7
53.270        40
53.280        13
53.290        47
53.300        27
53.310        27
53.320        20
53.330        27
53.340        20
53.350        13
53.360        33
53.370        27
53.380        33
53.390        20
53.400         0
53.410         7
53.420        33
53.430        47
53.440        27
53.450         7
53.460         7
53.470        33
53.480        27
53.490        27
53.500        27
53.510        13
53.520        20
53.530        27
53.540        27
53.550        33
53.560        33
53.570         7
53.580        20
53.590        20
53.600        20
53.610        20
53.620         7
53.630        27
53.640        27
53.650        20
53.660        20
53.670        13
53.680        20
53.690        33
53.700        13
53.710        13
53.720        20
53.730        53
53.740        20
53.750         7
53.760        13
53.770         7
53.780        27
53.790        13
53.800        13
53.810        13
53.820        20
53.830        20
53.840        27
53.850         0
53.860        27
53.870        40
53.880        20
53.890        27
53.900        13
53.910        13
53.920        27
53.930        13
53.940        53
53.950        20
53.960        40
53.970        13
53.980        40
53.990        13
54.000         0
54.010        20
54.020        73
54.030        53
54.040        27
54.050        20
54.060        33
54.070         7
54.080        27
54.090        40
54.100        27
54.110        20
54.120        27
54.130         7
54.140         0
54.150         7
54.160        13
54.170        13
54.180        20
54.190        20
54.200        13
54.210        47
54.220         0
54.230        20
54.240        40
54.250         7
54.260        13
54.270        27
54.280        20
54.290         7
54.300        27
54.310         7
54.320         7
54.330        20
54.340        33
54.350        27
54.360         0
54.370        13
54.380        13
54.390        20
54.400        13
54.410        13
54.420        27
54.430        13
54.440        13
54.450        13
54.460        20
54.470        20
54.480        20
54.490        20
54.500        13
54.510        27
54.520        40
54.530        33
54.540        33
54.550        27
54.560        13
54.570         7
54.580        27
54.590         7
54.600        20
54.610        13
54.620        27
54.630        20
54.640        33
54.650        40
54.660        33
54.670        27
54.680        13
54.690        20
54.700        20
54.710        13
54.720        20
54.730        27
54.740        27
54.750        20
54.760        27
54.770        33
54.780        20
54.790        13
54.800        33
54.810        20
54.820        13
54.830        60
54.840         0
54.850         7
54.860        13
54.870        20
54.880        13
54.890        27
54.900        13
54.910        27
54.920        20
54.930        13
54.940        20
54.950        47
54.960        20
54.970        47
54.980        20
54.990        47
55.000        47
55.010         7
55.020        40
55.030        27
55.040        27
55.050        33
55.060         7
55.070        40
55.080        20
55.090        20
55.100        27
55.110        27
55.120        27
55.130        53
55.140        27
55.150         7
55.160        20
55.170         7
55.180        27
55.190        40
55.200        13
55.210        33
55.220        27
55.230        33
55.240        27
55.250        13
55.260        40
55.270        40
55.280        33
55.290         0
55.300        40
55.310        20
55.320        20
55.330        13
55.340         7
55.350        27
55.360         7
55.370        13
55.380        13
55.390        20
55.400        27
55.410        13
55.420        27
55.430        13
55.440        33
55.450        33
55.460        47
55.470        27
55.480        27
55.490        40
55.500        27
55.510        27
55.520        13
55.530         7
55.540        13
55.550        27
55.560        13
55.570        20
55.580        53
55.590        27
55.600        20
55.610        47
55.620        20
55.630         0
55.640        27
55.650        20
55.660         7
55.670        47
55.680        20
55.690        13
55.700         7
55.710        33
55.720        33
55.730        47
55.740        33
55.750         7
55.760        13
55.770        20
55.780        20
55.790        13
55.800         7
55.810        27
55.820        27
55.830        13
55.840        27
55.850        13
55.860        33
55.870        20
55.880         7
55.890        40
55.900        13
55.910        47
55.920        33
55.930        20
55.940         7
55.950        33
55.960        13
55.970        13
55.980        20
55.990         0
56.000        13
56.010         7
56.020        13
56.030        13
56.040        47
56.050        20
56.060        20
56.070        33
56.080        20
56.090        13
56.100        20
56.110        13
56.120        27
56.130        33
56.140        20
56.150         7
56.160         0
56.170        20
56.180        13
56.190        13
56.200        33
56.210        20
56.220         7
56.230        33
56.240        40
56.250        20
56.260        20
56.270        40
56.280        13
56.290        13
56.300        20
56.310        13
56.320        20
56.330         7
56.340        40
56.350        20
56.360        13
56.370         7
56.380        27
56.390        13
56.400        20
56.410        40
56.420        13
56.430        13
56.440        20
56.450        13
56.460        13
56.470        13
56.480        20
56.490        27
56.500         7
56.510        20
56.520        20
56.530        20
56.540        33
56.550        13
56.560        13
56.570        27
56.580        13
56.590        13
56.600        13
56.610         7
56.620         0
56.630        33
56.640        13
56.650        27
56.660        20
56.670         7
56.680        40
56.690        13
56.700        40
56.710        20
56.720        13
56.730        47
56.740        20
56.750        40
56.760        20
56.770         0
56.780        27
56.790        27
56.800        20
56.810        13
56.820        13
56.830        27
56.840        13
56.850        27
56.860        33
56.870         7
56.880         0
56.890         7
56.900        13
56.910         7
56.920         7
56.930        33
56.940        47
56.950        13
56.960        27
56.970        20
56.980        20
56.990        13
57.000        13
57.010        40
57.020        40
57.030        13
57.040        13
57.050         7
57.060         7
57.070        33
57.080        40
57.090        20
57.100         7
57.110        20
57.120         7
57.130        13
57.140        13
57.150        20
57.160        27
57.170         7
57.180        27
57.190        40
57.200        47
57.210        20
57.220        13
57.230        27
57.240        40
57.250        20
57.260        20
57.270        40
57.280        33
57.290        20
57.300        27
57.310        33
57.320        20
57.330        27
57.340        47
57.350        53
57.360        20
57.370        27
57.380        33
57.390        33
57.400        67
57.410        93
57.420        60
57.430        73
57.440        93
57.450       107
57.460       213
57.470       213
57.480       253
57.490       273
57.500       320
57.510       287
57.520       393
57.530       347
57.540       233
57.550       240
57.560       200
57.570       153
57.580       113
57.590       113
57.600       107
57.610        87
57.620        60
57.630       107
57.640       153
57.650       193
57.660       180
57.670       180
57.680       153
57.690       180
57.700       133
57.710       140
57.720        93
57.730        53
57.740        80
57.750        73
57.760        73
57.770        40
57.780        53
57.790        27
57.800        53
57.810        60
57.820        40
57.830        27
57.840        53
57.850        27
57.860        40
57.870        67
57.880        20
57.890        53
57.900        73
57.910        60
57.920        53
57.930        33
57.940        27
57.950        60
57.960         7
57.970        60
57.980         7
57.990        33
58.000        33
58.010        33
58.020         7
58.030        27
58.040        33
58.050         7
58.060        20
58.070        13
58.080        13
58.090        47
58.100        13
58.110        13
58.120        33
58.130        33
58.140        13
58.150        20
58.160        13
58.170        13
58.180        27
58.190        20
58.200        20
58.210        40
58.220        33
58.230        20
58.240        33
58.250        27
58.260        20
58.270        40
58.280        33
58.290        27
58.300        27
58.310        33
58.320        27
58.330        33
58.340        33
58.350        27
58.360         7
58.370         0
58.380        13
58.390         7
58.400        13
58.410        13
58.420         0
58.430         0
58.440        27
58.450        27
58.460        13
58.470        13
58.480        13
58.490        20
58.500        27
58.510        13
58.520        27
58.530         0
58.540        33
58.550        20
58.560        47
58.570        20
58.580        20
58.590        33
58.600        27
58.610         0
58.620        33
58.630        40
58.640        40
58.650        40
58.660         7
58.670        40
58.680        13
58.690        13
58.700        33
58.710        20
58.720        27
58.730         0
58.740        13
58.750         7
58.760        20
58.770         7
58.780        27
58.790        13
58.800        13
58.810         7
58.820         7
58.830        13
58.840         7
58.850        27
58.860         0
58.870        13
58.880        27
58.890        13
58.900        13
58.910         7
58.920        27
58.930        20
58.940        13
58.950        27
58.960        13
58.970        27
58.980        27
58.990        13
59.000        33
59.010         7
59.020        13
59.030        20
59.040        13
59.050        20
59.060        40
59.070        27
59.080        33
59.090         0
59.100        20
59.110         0
59.120         7
59.130        33
59.140         7
59.150        27
59.160        20
59.170        13
59.180        13
59.190        13
59.200        27
59.210         7
59.220        20
59.230         7
59.240        13
59.250        33
59.260        47
59.270        27
59.280        13
59.290        13
59.300        27
59.310        40
59.320        13
59.330         7
59.340        20
59.350        27
59.360        20
59.370        20
59.380         7
59.390        40
59.400        13
59.410        13
59.420         7
59.430        27
59.440        27
59.450        13
59.460        13
59.470        20
59.480        33
59.490        13
59.500        13
59.510        27
59.520        13
59.530        47
59.540        13
59.550        13
59.560         0
59.570         7
59.580        27
59.590         7
59.600        13
59.610         7
59.620         7
59.630        20
59.640        40
59.650        20
59.660        13
59.670        13
59.680        13
59.690         0
59.700        13
59.710        13
59.720         7
59.730        13
59.740        13
59.750         7
59.760         0
59.770        47
59.780        20
59.790        13
59.800        40
59.810        27
59.820        40
59.830        27
59.840        20
59.850        20
59.860         7
59.870         7
59.880        20
59.890        13
59.900        20
59.910         0
59.920         7
59.930        40
59.940        13
59.950         7
59.960        20
59.970        60
59.980        20
59.990        27
60.000        33
