20.000        13
20.010        13
20.020        13
20.030        40
20.040        27
20.050        40
20.060        27
20.070        53
20.080        53
20.090        13
20.100        67
20.110        53
20.120        40
20.130        27
20.140        40
20.150        67
20.160        40
20.170        27
20.180        13
20.190        53
20.200        53
20.210        27
20.220        27
20.230        53
20.240        67
20.250        80
20.260        53
20.270        53
20.280        13
20.290        40
20.300        53
20.310       133
20.320        40
20.330        53
20.340        67
20.350        40
20.360         0
20.370        27
20.380       120
20.390        67
20.400        40
20.410        53
20.420        53
20.430        40
20.440        27
20.450        40
20.460        13
20.470        53
20.480        13
20.490        80
20.500        27
20.510        53
20.520        53
20.530        27
20.540         0
20.550        27
20.560        53
20.570        53
20.580        27
20.590        40
20.600        27
20.610        53
20.620        13
20.630        80
20.640        40
20.650        40
20.660        27
20.670        27
20.680         0
20.690        53
20.700        27
20.710         0
20.720        80
20.730        53
20.740        80
20.750        13
20.760        53
20.770        40
20.780        80
20.790         0
20.800       107
20.810        53
20.820        27
20.830        93
20.840         0
20.850        53
20.860        40
20.870         0
20.880        93
20.890        27
20.900        13
20.910        53
20.920        67
20.930        13
20.940        40
20.950        40
20.960        40
20.970        53
20.980        13
20.990        67
21.000        53
21.010        27
21.020        40
21.030        67
21.040        13
21.050        13
21.060        40
21.070        27
21.080        27
21.090        13
21.100        27
21.110        13
21.120        53
21.130        13
21.140         0
21.150        40
21.160        53
21.170        67
21.180         0
21.190         0
21.200        27
21.210        53
21.220        67
21.230        40
21.240        40
21.250        13
21.260        67
21.270        67
21.280        40
21.290        27
21.300        53
21.310        93
21.320        40
21.330        27
21.340        67
21.350        27
21.360        53
21.370        80
21.380        13
21.390        27
21.400        53
21.410        13
21.420        53
21.430        53
21.440        53
21.450        53
21.460        27
21.470        40
21.480         0
21.490        13
21.500        40
21.510        53
21.520        27
21.530        67
21.540        40
21.550        27
21.560        53
21.570        40
21.580        67
21.590        40
21.600        27
21.610        40
21.620        53
21.630        93
21.640        13
21.650        27
21.660        40
21.670        40
21.680        40
21.690        40
21.700        27
21.710        53
21.720        13
21.730        40
21.740         0
21.750        53
21.760        80
21.770        13
21.780        27
21.790        67
21.800        27
21.810        53
21.820        40
21.830        40
21.840        27
21.850        67
21.860        40
21.870        67
21.880        80
21.890        13
21.900        27
21.910        40
21.920        27
21.930        40
21.940        53
21.950        67
21.960        67
21.970        53
21.980        27
21.990       107
22.000        40
22.010        53
22.020        53
22.030       107
22.040        40
22.050        53
22.060         0
22.070        80
22.080        40
22.090        40
22.100        67
22.110        27
22.120        80
22.130        67
22.140        67
22.150        67
22.160        40
22.170        40
22.180        40
22.190        13
22.200        53
22.210        27
22.220        53
22.230        67
22.240         0
22.250        80
22.260       120
22.270       107
22.280        53
22.290       120
22.300       147
22.310       120
22.320        40
22.330       133
22.340       107
22.350        93
22.360        67
22.370        80
22.380        53
22.390        80
22.400       213
22.410       187
22.420       280
22.430       240
22.440       333
22.450       200
22.460       187
22.470       426
22.480       413
22.490       453
22.500       440
22.510       533
22.520       480
22.530       640
22.540       880
22.550       920
22.560       946
22.570       666
22.580       866
22.590       840
22.600       893
22.610       893
22.620       786
22.630       906
22.640       533
22.650       600
22.660       466
22.670       453
22.680       400
22.690       307
22.700       147
22.710       293
22.720       200
22.730       147
22.740       120
22.750       120
22.760       107
22.770        80
22.780        53
22.790       107
22.800        27
22.810        93
22.820        67
22.830        67
22.840        67
22.850        53
22.860        67
22.870        67
22.880        27
22.890        93
22.900        27
22.910        53
22.920        67
22.930        53
22.940        13
22.950       120
22.960        13
22.970        53
22.980       107
22.990       107
23.000        93
23.010        53
23.020        40
23.030        53
23.040        40
23.050        67
23.060        80
23.070        80
23.080        53
23.090         0
23.100        13
23.110        40
23.120        93
23.130        67
23.140        53
23.150        40
23.160        67
23.170        13
23.180        40
23.190        27
23.200        80
23.210        53
23.220        13
23.230        13
23.240        40
23.250        40
23.260        40
23.270        13
23.280        53
23.290        13
23.300        27
23.310        27
23.320        13
23.330       107
23.340        53
23.350        53
23.360        93
23.370        53
23.380        40
23.390        27
23.400        40
23.410        40
23.420        53
23.430        40
23.440        13
23.450        53
23.460        27
23.470        27
23.480        40
23.490        27
23.500        93
23.510        13
23.520       133
23.530        40
23.540        27
23.550        53
23.560        53
23.570        93
23.580        40
23.590        27
23.600        27
23.610        27
23.620        80
23.630        40
23.640        40
23.650        13
23.660        53
23.670        53
23.680        40
23.690        80
23.700        40
23.710        53
23.720        40
23.730        67
23.740        27
23.750        27
23.760        40
23.770        40
23.780        13
23.790         0
23.800         0
23.810        13
23.820        27
23.830        40
23.840        53
23.850        67
23.860        53
23.870        40
23.880        53
23.890        53
23.900       120
23.910        53
23.920        53
23.930         0
23.940        40
23.950        13
23.960        80
23.970        27
23.980        53
23.990        67
24.000        27
24.010        67
24.020        13
24.030        93
24.040        93
24.050        40
24.060        40
24.070        13
24.080        67
24.090        27
24.100        40
24.110        40
24.120        40
24.130        40
24.140        40
24.150        53
24.160        27
24.170        40
24.180        53
24.190        27
24.200        53
24.210        13
24.220        53
24.230        67
24.240        53
24.250        53
24.260        27
24.270        40
24.280        13
24.290        53
24.300        27
24.310       107
24.320        27
24.330        40
24.340        27
24.350        40
24.360        53
24.370        13
24.380        67
24.390        13
24.400        40
24.410        67
24.420        67
24.430        80
24.440        27
24.450        27
24.460        13
24.470        40
24.480        27
24.490        40
24.500        40
24.510        53
24.520        80
24.530        40
24.540        67
24.550        53
24.560        67
24.570        27
24.580        27
24.590        13
24.600        53
24.610        13
24.620        80
24.630        53
24.640        40
24.650        27
24.660        27
24.670        27
24.680        67
24.690        40
24.700        40
24.710        27
24.720        40
24.730        40
24.740       133
24.750        40
24.760        53
24.770        40
24.780        40
24.790        67
24.800        13
24.810        27
24.820        27
24.830        53
24.840        40
24.850        40
24.860        53
24.870        40
24.880         0
24.890        40
24.900        27
24.910        27
24.920        27
24.930        40
24.940        13
24.950        40
24.960        53
24.970        40
24.980        27
24.990        40
25.000        40
25.010        27
25.020        53
25.030        53
25.040        27
25.050        13
25.060        53
25.070        53
25.080        40
25.090        53
25.100        13
25.110        40
25.120        40
25.130        40
25.140        40
25.150        67
25.160        27
25.170        13
25.180        53
25.190        40
25.200        40
25.210         0
25.220        13
25.230        53
25.240        13
25.250        40
25.260        27
25.270        27
25.280        13
25.290        40
25.300        53
25.310        53
25.320        53
25.330        27
25.340        93
25.350        53
25.360        13
25.370        27
25.380        80
25.390        40
25.400        67
25.410        67
25.420        40
25.430        13
25.440        40
25.450        53
25.460        40
25.470        67
25.480        80
25.490        27
25.500        40
25.510        13
25.520        80
25.530        80
25.540        80
25.550        80
25.560        93
25.570        93
25.580        67
25.590        93
25.600       120
25.610       160
25.620       107
25.630       187
25.640       133
25.650        80
25.660       120
25.670       147
25.680       133
25.690       187
25.700       187
25.710       133
25.720       200
25.730       373
25.740       320
25.750       293
25.760       387
25.770       466
25.780       520
25.790       387
25.800       466
25.810       480
25.820       613
25.830       413
25.840       426
25.850       333
25.860       360
25.870       466
25.880       320
25.890       280
25.900       293
25.910       173
25.920       160
25.930       133
25.940       160
25.950       120
25.960        93
25.970        67
25.980        27
25.990        80
26.000        53
26.010        40
26.020        80
26.030        80
26.040        53
26.050        53
26.060        93
26.070        80
26.080        80
26.090        40
26.100        53
26.110        27
26.120        27
26.130        67
26.140        67
26.150        27
26.160         0
26.170        53
26.180        40
26.190        80
26.200        27
26.210        27
26.220        13
26.230        40
26.240        40
26.250        13
26.260        40
26.270        80
26.280        27
26.290        67
26.300       133
26.310        53
26.320        13
26.330        80
26.340        40
26.350        40
26.360        53
26.370        40
26.380        53
26.390        27
26.400        13
26.410        40
26.420        27
26.430        53
26.440         0
26.450        67
26.460        27
26.470        40
26.480        93
26.490        40
26.500        40
26.510        27
26.520        67
26.530        13
26.540        27
26.550        13
26.560        40
26.570        93
26.580        27
26.590        27
26.600        40
26.610        40
26.620        53
26.630        40
26.640        40
26.650        27
26.660         0
26.670        53
26.680        40
26.690        67
26.700        27
26.710        80
26.720        80
26.730       107
26.740        13
26.750        40
26.760        53
26.770        67
26.780        80
26.790        80
26.800         0
26.810        13
26.820        80
26.830        40
26.840        40
26.850        80
26.860        53
26.870        13
26.880        40
26.890        80
26.900        27
26.910        67
26.920        13
26.930        80
26.940        27
26.950        53
26.960        40
26.970        40
26.980        13
26.990        67
27.000        27
27.010        67
27.020        27
27.030        67
27.040        53
27.050        27
27.060        27
27.070        40
27.080        40
27.090        53
27.100        53
27.110         0
27.120        53
27.130        40
27.140        27
27.150        27
27.160        27
27.170        40
27.180        27
27.190        27
27.200        53
27.210         0
27.220       107
27.230        27
27.240        13
27.250        13
27.260        40
27.270        40
27.280        13
27.290        67
27.300        67
27.310        13
27.320        53
27.330        40
27.340        40
27.350         0
27.360        53
27.370        27
27.380        80
27.390        40
27.400        13
27.410        40
27.420        13
27.430        53
27.440        27
27.450        27
27.460         0
27.470        80
27.480        53
27.490        27
27.500        13
27.510        27
27.520        13
27.530        13
27.540        40
27.550        13
27.560        67
27.570        27
27.580        13
27.590        53
27.600         0
27.610        67
27.620        13
27.630        13
27.640        67
27.650        80
27.660        27
27.670        53
27.680       133
27.690        67
27.700        80
27.710        93
27.720        40
27.730        53
27.740        93
27.750       107
27.760        27
27.770        40
27.780        80
27.790        40
27.800         0
27.810        40
27.820        40
27.830        67
27.840        40
27.850        80
27.860        53
27.870        27
27.880        67
27.890        67
27.900        27
27.910        27
27.920        53
27.930        27
27.940       120
27.950        27
27.960        53
27.970        53
27.980        80
27.990        53
28.000        40
28.010        27
28.020        67
28.030        40
28.040        13
28.050         0
28.060        13
28.070        53
28.080        27
28.090        40
28.100        13
28.110        27
28.120        13
28.130        53
28.140        13
28.150       107
28.160        13
28.170        40
28.180         0
28.190        27
28.200        67
28.210        27
28.220        53
28.230        13
28.240        27
28.250        27
28.260        40
28.270        53
28.280        27
28.290        13
28.300        67
28.310        53
28.320        40
28.330        93
28.340        27
28.350        13
28.360        67
28.370        27
28.380        27
28.390        40
28.400        80
28.410        40
28.420        13
28.430        40
28.440        67
28.450        40
28.460        40
28.470        53
28.480        40
28.490        53
28.500        27
28.510        67
28.520        53
28.530        27
28.540        53
28.550        80
28.560        13
28.570        80
28.580        53
28.590        53
28.600       133
28.610       160
28.620        67
28.630       187
28.640       120
28.650       133
28.660       173
28.670       240
28.680       133
28.690       147
28.700        67
28.710       107
28.720       120
28.730       147
28.740        80
28.750       200
28.760       147
28.770        80
28.780       133
28.790        67
28.800        80
28.810       107
28.820        80
28.830        40
28.840        53
28.850         0
28.860        53
28.870        67
28.880        67
28.890        40
28.900        27
28.910        80
28.920        27
28.930        40
28.940        27
28.950        53
28.960        67
28.970        67
28.980        53
28.990        40
29.000        40
29.010        53
29.020        80
29.030        80
29.040        53
29.050        27
29.060        53
29.070        80
29.080        13
29.090        27
29.100        40
29.110        40
29.120        27
29.130        27
29.140        27
29.150        27
29.160        67
29.170        40
29.180        67
29.190        80
29.200        93
29.210        40
29.220        40
29.230        80
29.240        13
29.250        67
29.260        53
29.270       107
29.280       107
29.290        67
29.300        80
29.310        80
29.320       173
29.330        53
29.340       133
29.350        80
29.360       133
29.370       160
29.380       240
29.390       120
29.400       120
29.410       187
29.420       280
29.430       267
29.440       267
29.450       400
29.460       413
29.470       640
29.480       533
29.490       506
29.500       493
29.510       626
29.520       733
29.530      1040
29.540       906
29.550       973
29.560      1173
29.570      1279
29.580      1133
29.590      1173
29.600      1319
29.610      1146
29.620       933
29.630      1253
29.640      1013
29.650      1026
29.660       773
29.670       720
29.680       733
29.690       480
29.700       560
29.710       426
29.720       480
29.730       253
29.740       280
29.750       240
29.760       200
29.770       173
29.780       147
29.790       160
29.800       173
29.810       107
29.820       120
29.830       147
29.840       107
29.850        40
29.860       133
29.870        80
29.880        67
29.890       107
29.900        80
29.910        53
29.920        67
29.930        13
29.940        53
29.950        67
29.960        27
29.970        13
29.980        40
29.990        53
30.000        13
30.010        40
30.020        40
30.030        13
30.040        53
30.050        67
30.060        40
30.070         0
30.080        53
30.090        40
30.100        13
30.110         0
30.120        40
30.130        53
30.140        27
30.150        27
30.160        40
30.170        67
30.180        53
30.190        13
30.200        27
30.210        13
30.220        40
30.230         0
30.240        40
30.250        27
30.260        67
30.270         0
30.280        67
30.290        53
30.300        53
30.310        80
30.320        93
30.330       147
30.340        40
30.350       147
30.360        93
30.370       147
30.380       160
30.390       173
30.400       187
30.410       120
30.420       227
30.430       293
30.440       227
30.450       267
30.460       373
30.470       360
30.480       200
30.490       213
30.500       213
30.510       267
30.520       280
30.530       307
30.540       240
30.550       200
30.560       187
30.570       187
30.580       200
30.590       133
30.600       173
30.610       133
30.620       107
30.630        27
30.640        53
30.650        53
30.660        40
30.670        67
30.680       120
30.690        27
30.700        53
30.710        53
30.720        53
30.730        53
30.740        53
30.750        40
30.760        27
30.770        40
30.780        13
30.790        53
30.800        40
30.810        13
30.820        40
30.830        27
30.840        27
30.850        40
30.860        53
30.870        40
30.880       107
30.890        27
30.900        13
30.910        40
30.920        27
30.930        13
30.940        40
30.950        13
30.960        27
30.970        13
30.980        53
30.990        13
31.000        13
31.010         0
31.020        27
31.030        40
31.040        40
31.050        40
31.060        67
31.070        53
31.080         0
31.090        27
31.100        40
31.110        13
31.120        53
31.130        80
31.140        80
31.150        13
31.160        40
31.170        53
31.180        67
31.190         0
31.200        27
31.210        27
31.220        27
31.230        40
31.240        27
31.250        13
31.260        27
31.270        13
31.280        13
31.290        40
31.300        93
31.310        13
31.320        13
31.330        40
31.340        27
31.350        67
31.360        40
31.370        67
31.380        40
31.390        67
31.400        13
31.410        40
31.420        27
31.430        67
31.440         0
31.450        13
31.460        27
31.470        27
31.480        40
31.490        27
31.500        40
31.510        40
31.520        67
31.530        53
31.540        27
31.550        13
31.560        13
31.570        27
31.580         0
31.590        40
31.600        53
31.610        27
31.620         0
31.630         0
31.640        27
31.650         0
31.660        27
31.670        53
31.680        40
31.690        40
31.700        40
31.710        40
31.720        27
31.730        67
31.740         0
31.750        27
31.760        13
31.770        67
31.780         0
31.790        53
31.800        13
31.810        27
31.820        53
31.830        53
31.840        27
31.850        67
31.860         0
31.870         0
31.880        53
31.890        67
31.900        67
31.910        53
31.920        13
31.930        80
31.940        67
31.950        40
31.960        27
31.970       120
31.980        67
31.990       120
32.000        53
32.010       147
32.020       120
32.030       227
32.040       133
32.050       240
32.060       307
32.070       240
32.080       293
32.090       227
32.100       240
32.110       333
32.120       307
32.130       240
32.140       333
32.150       373
32.160       453
32.170       400
32.180       253
32.190       440
32.200       387
32.210       506
32.220       387
32.230       373
32.240       280
32.250       147
32.260       227
32.270       107
32.280       200
32.290       160
32.300       107
32.310       253
32.320       173
32.330       120
32.340        93
32.350        93
32.360        80
32.370        53
32.380        27
32.390        27
32.400        13
32.410        53
32.420        27
32.430        53
32.440        40
32.450        53
32.460        40
32.470        67
32.480        53
32.490        13
32.500        53
32.510        13
32.520         0
32.530        27
32.540        27
32.550         0
32.560        13
32.570        27
32.580        40
32.590        27
32.600        53
32.610        27
32.620        40
32.630        53
32.640        53
32.650        40
32.660        80
32.670        27
32.680         0
32.690        13
32.700        13
32.710        67
32.720        13
32.730        40
32.740        13
32.750        53
32.760        40
32.770        53
32.780        40
32.790        67
32.800        53
32.810        27
32.820        40
32.830        67
32.840        27
32.850        40
32.860        67
32.870        13
32.880        27
32.890        27
32.900        13
32.910        13
32.920        13
32.930        13
32.940        27
32.950        67
32.960        40
32.970        27
32.980        53
32.990        27
33.000        53
33.010        13
33.020        27
33.030        40
33.040        27
33.050        27
33.060        27
33.070        27
33.080         0
33.090        27
33.100        13
33.110        27
33.120        27
33.130        27
33.140        40
33.150        40
33.160         0
33.170        40
33.180        53
33.190         0
33.200        27
33.210        27
33.220        53
33.230        40
33.240        13
33.250        27
33.260        27
33.270        53
33.280        27
33.290        27
33.300        40
33.310        40
33.320        53
33.330        53
33.340        13
33.350        53
33.360        27
33.370        40
33.380        40
33.390         0
33.400         0
33.410        13
33.420        40
33.430        13
33.440        27
33.450        67
33.460        53
33.470        40
33.480        53
33.490        53
33.500         0
33.510        67
33.520         0
33.530        27
33.540        40
33.550         0
33.560        53
33.570        13
33.580         0
33.590        27
33.600        40
33.610        13
33.620        27
33.630        40
33.640        13
33.650        27
33.660         0
33.670        13
33.680        40
33.690        27
33.700        13
33.710        27
33.720        13
33.730        13
33.740        27
33.750        27
33.760        13
33.770        27
33.780        40
33.790        13
33.800        13
33.810         0
33.820        27
33.830        40
33.840        53
33.850        27
33.860        40
33.870        40
33.880        13
33.890        27
33.900        53
33.910        27
33.920        13
33.930        13
33.940        27
33.950        53
33.960        27
33.970        40
33.980         0
33.990        13
34.000        40
34.010        40
34.020        40
34.030        13
34.040         0
34.050         0
34.060        13
34.070        40
34.080         0
34.090        13
34.100        27
34.110        53
34.120         0
34.130        13
34.140        27
34.150        13
34.160        40
34.170        53
34.180        27
34.190        80
34.200        27
34.210        53
34.220        13
34.230         0
34.240        40
34.250        40
34.260        40
34.270        27
34.280        40
34.290        27
34.300        13
34.310        13
34.320        27
34.330        27
34.340        40
34.350        13
34.360        53
34.370        27
34.380         0
34.390        80
34.400         0
34.410        13
34.420        40
34.430        40
34.440        40
34.450        40
34.460        13
34.470         0
34.480        27
34.490        53
34.500        53
34.510        27
34.520        53
34.530        53
34.540        27
34.550        13
34.560         0
34.570        13
34.580        40
34.590        40
34.600        40
34.610        27
34.620        40
34.630        40
34.640        27
34.650        53
34.660        13
34.670        40
34.680        13
34.690        40
34.700        40
34.710        40
34.720        13
34.730         0
34.740        40
34.750         0
34.760        13
34.770        13
34.780        13
34.790        27
34.800        27
34.810        13
34.820        13
34.830        40
34.840        67
34.850        27
34.860         0
34.870        27
34.880        27
34.890        53
34.900        13
34.910        13
34.920        13
34.930        27
34.940        27
34.950        27
34.960        27
34.970        13
34.980        13
34.990        13
35.000         0
35.010         0
35.020        27
35.030        13
35.040        80
35.050        40
35.060        27
35.070        27
35.080        13
35.090        27
35.100        13
35.110        13
35.120        27
35.130         0
35.140        13
35.150         0
35.160        40
35.170        27
35.180        53
35.190        13
35.200        27
35.210        13
35.220        13
35.230        13
35.240        13
35.250        67
35.260        13
35.270        40
35.280        27
35.290         0
35.300        40
35.310        40
35.320        27
35.330         0
35.340         0
35.350        13
35.360        40
35.370        13
35.380        27
35.390        13
35.400        27
35.410        13
35.420        13
35.430        13
35.440        13
35.450        13
35.460        27
35.470         0
35.480         0
35.490        40
35.500        67
35.510        13
35.520        40
35.530        53
35.540        27
35.550        13
35.560        27
35.570        27
35.580         0
35.590        40
35.600        13
35.610        27
35.620        40
35.630        53
35.640        13
35.650        40
35.660         0
35.670        40
35.680        80
35.690        13
35.700        13
35.710        13
35.720        53
35.730        40
35.740        40
35.750        27
35.760        27
35.770        13
35.780         0
35.790        40
35.800        27
35.810        40
35.820        53
35.830        27
35.840        13
35.850        53
35.860        13
35.870        40
35.880        13
35.890        27
35.900        27
35.910        53
35.920        40
35.930        13
35.940         0
35.950        13
35.960        27
35.970         0
35.980        53
35.990        13
36.000        27
36.010        40
36.020        40
36.030        13
36.040        13
36.050        27
36.060         0
36.070        13
36.080        40
36.090         0
36.100        40
36.110        40
36.120        27
36.130        27
36.140        27
36.150         0
36.160        67
36.170        53
36.180        27
36.190         0
36.200         0
36.210        13
36.220        13
36.230        53
36.240        13
36.250        13
36.260        27
36.270        27
36.280        27
36.290         0
36.300        67
36.310        40
36.320        13
36.330        40
36.340        27
36.350        13
36.360        13
36.370        40
36.380        27
36.390        40
36.400        13
36.410        53
36.420        13
36.430        53
36.440        13
36.450        13
36.460        67
36.470        13
36.480        40
36.490         0
36.500         0
36.510        40
36.520        40
36.530         0
36.540        13
36.550        27
36.560        40
36.570        40
36.580        13
36.590        53
36.600        27
36.610        13
36.620         0
36.630        27
36.640        13
36.650        13
36.660        40
36.670        27
36.680        27
36.690         0
36.700         0
36.710         0
36.720         0
36.730        67
36.740         0
36.750        27
36.760        53
36.770        13
36.780         0
36.790        27
36.800        13
36.810        13
36.820        40
36.830        13
36.840        13
36.850        13
36.860         0
36.870        40
36.880        40
36.890         0
36.900        13
36.910        13
36.920         0
36.930        53
36.940        27
36.950        40
36.960         0
36.970         0
36.980         0
36.990        13
37.000        40
37.010        13
37.020         0
37.030        67
37.040        27
37.050        13
37.060        13
37.070        27
37.080        13
37.090        13
37.100        27
37.110        27
37.120        27
37.130        13
37.140        40
37.150        13
37.160        13
37.170        13
37.180         0
37.190        40
37.200        13
37.210         0
37.220        27
37.230        13
37.240        13
37.250        13
37.260        40
37.270        53
37.280        13
37.290        27
37.300        27
37.310        13
37.320        13
37.330        13
37.340        53
37.350        13
37.360        40
37.370         0
37.380        13
37.390        13
37.400        13
37.410        13
37.420        80
37.430        27
37.440         0
37.450        53
37.460        27
37.470        13
37.480        13
37.490        13
37.500        13
37.510        40
37.520        80
37.530        13
37.540         0
37.550        53
37.560        53
37.570         0
37.580        13
37.590        13
37.600        27
37.610        27
37.620        40
37.630        13
37.640        13
37.650         0
37.660        40
37.670        13
37.680        13
37.690        27
37.700        27
37.710        27
37.720         0
37.730         0
37.740        13
37.750         0
37.760        13
37.770        53
37.780        27
37.790        13
37.800         0
37.810        13
37.820         0
37.830         0
37.840         0
37.850        53
37.860        13
37.870        40
37.880        27
37.890        67
37.900        13
37.910         0
37.920        27
37.930        27
37.940        53
37.950        40
37.960        13
37.970        13
37.980        27
37.990        27
38.000        13
38.010        27
38.020        27
38.030        27
38.040        40
38.050        27
38.060        27
38.070        13
38.080        53
38.090        27
38.100        13
38.110        40
38.120        13
38.130         0
38.140        13
38.150         0
38.160         0
38.170        40
38.180        13
38.190        67
38.200         0
38.210        13
38.220        53
38.230        40
38.240        13
38.250        27
38.260        67
38.270        27
38.280         0
38.290        40
38.300        13
38.310        27
38.320        67
38.330        13
38.340        13
38.350        80
38.360         0
38.370        13
38.380        13
38.390        27
38.400        27
38.410        40
38.420         0
38.430        40
38.440         0
38.450        27
38.460        53
38.470        13
38.480        53
38.490        27
38.500        13
38.510         0
38.520        67
38.530        53
38.540        40
38.550        27
38.560        40
38.570        40
38.580         0
38.590        13
38.600        53
38.610        13
38.620        53
38.630        40
38.640        40
38.650        13
38.660         0
38.670        13
38.680         0
38.690        13
38.700        27
38.710        27
38.720        27
38.730        53
38.740        80
38.750        80
38.760        53
38.770        13
38.780         0
38.790        40
38.800        53
38.810        13
38.820        40
38.830        53
38.840        67
38.850        40
38.860        13
38.870        53
38.880        53
38.890        67
38.900        67
38.910       120
38.920        80
38.930        40
38.940        53
38.950        40
38.960        93
38.970        80
38.980        93
38.990        27
39.000        93
39.010        67
39.020        27
39.030        53
39.040        40
39.050        53
39.060       107
39.070       107
39.080        67
39.090        27
39.100       107
39.110        53
39.120        27
39.130        13
39.140        27
39.150        67
39.160        80
39.170        27
39.180        80
39.190        40
39.200         0
39.210        27
39.220         0
39.230        13
39.240        13
39.250        40
39.260        53
39.270        27
39.280        27
39.290        13
39.300        27
39.310        27
39.320        13
39.330        53
39.340        40
39.350        27
39.360        40
39.370        13
39.380        40
39.390        13
39.400        53
39.410         0
39.420        27
39.430        40
39.440        67
39.450         0
39.460        13
39.470        40
39.480        53
39.490        27
39.500         0
39.510        27
39.520        53
39.530        13
39.540        13
39.550         0
39.560        27
39.570        40
39.580        27
39.590         0
39.600        13
39.610         0
39.620        27
39.630        13
39.640         0
39.650        13
39.660         0
39.670        13
39.680         0
39.690        27
39.700         0
39.710        53
39.720        53
39.730        27
39.740        27
39.750        27
39.760         0
39.770        27
39.780        13
39.790         0
39.800         0
39.810        13
39.820        40
39.830         0
39.840        27
39.850        13
39.860        13
39.870        40
39.880        13
39.890        13
39.900        27
39.910        27
39.920        13
39.930         0
39.940         0
39.950        13
39.960        40
39.970        13
39.980        27
39.990        13
40.000         0
40.010        27
40.020        53
40.030        13
40.040         0
40.050        27
40.060        27
40.070         0
40.080        27
40.090        27
40.100        27
40.110         0
40.120        13
40.130        13
40.140        13
40.150        40
40.160        27
40.170        13
40.180        13
40.190        27
40.200        40
40.210        13
40.220         0
40.230        27
40.240        27
40.250        27
40.260        40
40.270        13
40.280        27
40.290        53
40.300        27
40.310        27
40.320         0
40.330        27
40.340         0
40.350        53
40.360        40
40.370        40
40.380        13
40.390        53
40.400        13
40.410         0
40.420        27
40.430        13
40.440        13
40.450        53
40.460        27
40.470        13
40.480        13
40.490        13
40.500        13
40.510         0
40.520        27
40.530        13
40.540        27
40.550        40
40.560        53
40.570        13
40.580        27
40.590        27
40.600         0
40.610        27
40.620        13
40.630        27
40.640         0
40.650        27
40.660        13
40.670        27
40.680         0
40.690        27
40.700        40
40.710        13
40.720        13
40.730         0
40.740        40
40.750        13
40.760         0
40.770        27
40.780        27
40.790         0
40.800        13
40.810        13
40.820        27
40.830        40
40.840        13
40.850        53
40.860        13
40.870        27
40.880        53
40.890        40
40.900        27
40.910        27
40.920        27
40.930        27
40.940        27
40.950        27
40.960         0
40.970        13
40.980        67
40.990        27
41.000        27
41.010        67
41.020        13
41.030        40
41.040        53
41.050        27
41.060        27
41.070        13
41.080        53
41.090        40
41.100        40
41.110        27
41.120        40
41.130        40
41.140        27
41.150        40
41.160        40
41.170        27
41.180        40
41.190        40
41.200        13
41.210        13
41.220        13
41.230        27
41.240         0
41.250        67
41.260         0
41.270        67
41.280        13
41.290        13
41.300        53
41.310        13
41.320        13
41.330        27
41.340        27
41.350        27
41.360        40
41.370        13
41.380        13
41.390         0
41.400        13
41.410        27
41.420        40
41.430        27
41.440        13
41.450        27
41.460        67
41.470        13
41.480        53
41.490        53
41.500         0
41.510        13
41.520        13
41.530        13
41.540        27
41.550       120
41.560        27
41.570        40
41.580        53
41.590        53
41.600         0
41.610         0
41.620        27
41.630         0
41.640        13
41.650        40
41.660        13
41.670        13
41.680        13
41.690        13
41.700         0
41.710        27
41.720        13
41.730        13
41.740        27
41.750         0
41.760         0
41.770        13
41.780        67
41.790        13
41.800        27
41.810        13
41.820         0
41.830        27
41.840        13
41.850         0
41.860        27
41.870        13
41.880        13
41.890        53
41.900        13
41.910        13
41.920        27
41.930        13
41.940         0
41.950        40
41.960        13
41.970        27
41.980        13
41.990        13
42.000        13
42.010         0
42.020        13
42.030        40
42.040        80
42.050        40
42.060        13
42.070        80
42.080        80
42.090        80
42.100        27
42.110        53
42.120        53
42.130        67
42.140        67
42.150        80
42.160        93
42.170        80
42.180        93
42.190        93
42.200        67
42.210        67
42.220        93
42.230       147
42.240       133
42.250        53
42.260       173
42.270        80
42.280       160
42.290        93
42.300       107
42.310       173
42.320       240
42.330       160
42.340       200
42.350       227
42.360        80
42.370       160
42.380       133
42.390        67
42.400       213
42.410        53
42.420       120
42.430        93
42.440       147
42.450        80
42.460        80
42.470       147
42.480        93
42.490        53
42.500        93
42.510        27
42.520       120
42.530        27
42.540        93
42.550        80
42.560        13
42.570        27
42.580        40
42.590        53
42.600         0
42.610        27
42.620         0
42.630        27
42.640         0
42.650        53
42.660        13
42.670        67
42.680        13
42.690        40
42.700        27
42.710        13
42.720        13
42.730        80
42.740        27
42.750        13
42.760        27
42.770        53
42.780        40
42.790        27
42.800         0
42.810        40
42.820        13
42.830        27
42.840         0
42.850        13
42.860        27
42.870         0
42.880        27
42.890        27
42.900        67
42.910        27
42.920        13
42.930        27
42.940        27
42.950        40
42.960        13
42.970        27
42.980         0
42.990        27
43.000        40
43.010        13
43.020        13
43.030        40
43.040        13
43.050         0
43.060        40
43.070        40
43.080         0
43.090        13
43.100        40
43.110        13
43.120        40
43.130        40
43.140        40
43.150        27
43.160        40
43.170        27
43.180        13
43.190        40
43.200        67
43.210        13
43.220        27
43.230        40
43.240         0
43.250         0
43.260        13
43.270         0
43.280        13
43.290        27
43.300        13
43.310         0
43.320        27
43.330        13
43.340        13
43.350        13
43.360        13
43.370         0
43.380         0
43.390        40
43.400        13
43.410        27
43.420        27
43.430        13
43.440        27
43.450        13
43.460        13
43.470        13
43.480        40
43.490        40
43.500        27
43.510        13
43.520        67
43.530        40
43.540        53
43.550        53
43.560        13
43.570        80
43.580        27
43.590        27
43.600        80
43.610        40
43.620        93
43.630        40
43.640        67
43.650        53
43.660        67
43.670        80
43.680        80
43.690        53
43.700         0
43.710        27
43.720        27
43.730        93
43.740        13
43.750        27
43.760        40
43.770        27
43.780        27
43.790        13
43.800        53
43.810        40
43.820        13
43.830        13
43.840        40
43.850         0
43.860        40
43.870        13
43.880        27
43.890         0
43.900        40
43.910        13
43.920        27
43.930        27
43.940        13
43.950        13
43.960        40
43.970        27
43.980        13
43.990        40
44.000        27
44.010        13
44.020        27
44.030        27
44.040        40
44.050         0
44.060        67
44.070        40
44.080        53
44.090        13
44.100        13
44.110        13
44.120         0
44.130        13
44.140        53
44.150        27
44.160        13
44.170         0
44.180        27
44.190        40
44.200        27
44.210        27
44.220        40
44.230        27
44.240        53
44.250        93
44.260        27
44.270        27
44.280        27
44.290        27
44.300        40
44.310        13
44.320         0
44.330        67
44.340        93
44.350        13
44.360        27
44.370         0
44.380        53
44.390        13
44.400        40
44.410        40
44.420         0
44.430        53
44.440        40
44.450        27
44.460        13
44.470        27
44.480        13
44.490        27
44.500        27
44.510        40
44.520         0
44.530        13
44.540         0
44.550        27
44.560        40
44.570        13
44.580        13
44.590         0
44.600         0
44.610        13
44.620        13
44.630        40
44.640         0
44.650        13
44.660         0
44.670        27
44.680        40
44.690        27
44.700         0
44.710        40
44.720        27
44.730        27
44.740        67
44.750        13
44.760        67
44.770        40
44.780         0
44.790        13
44.800        27
44.810        40
44.820        13
44.830        13
44.840        13
44.850        13
44.860        27
44.870         0
44.880        53
44.890        27
44.900        27
44.910        27
44.920         0
44.930        53
44.940        13
44.950        27
44.960        53
44.970        27
44.980        27
44.990        27
45.000        67
45.010        13
45.020         0
45.030        40
45.040         0
45.050        13
45.060        40
45.070        27
45.080        13
45.090        27
45.100        27
45.110         0
45.120         0
45.130         0
45.140        27
45.150        53
45.160        13
45.170        13
45.180        13
45.190        13
45.200        13
45.210        40
45.220        13
45.230        40
45.240        27
45.250         0
45.260        53
45.270        13
45.280        40
45.290        27
45.300         0
45.310        27
45.320        27
45.330         0
45.340        27
45.350        27
45.360        13
45.370        27
45.380        27
45.390        13
45.400         0
45.410        13
45.420        13
45.430        40
45.440        40
45.450        53
45.460        27
45.470        40
45.480        53
45.490        53
45.500        13
45.510        27
45.520        13
45.530        40
45.540        13
45.550        27
45.560        53
45.570        27
45.580        27
45.590        27
45.600        27
45.610        27
45.620        27
45.630        27
45.640        53
45.650        40
45.660        27
45.670         0
45.680        13
45.690        13
45.700        40
45.710        13
45.720        13
45.730        53
45.740        53
45.750        27
45.760        67
45.770        13
45.780        27
45.790        80
45.800        80
45.810        40
45.820        27
45.830        80
45.840        40
45.850       107
45.860        93
45.870       107
45.880       147
45.890       147
45.900       160
45.910       133
45.920       160
45.930        93
45.940       267
45.950       253
45.960       293
45.970       293
45.980       347
45.990       253
46.000       347
46.010       520
46.020       387
46.030       520
46.040       493
46.050       573
46.060       493
46.070       600
46.080       466
46.090       466
46.100       466
46.110       573
46.120       520
46.130       533
46.140       600
46.150       347
46.160       573
46.170       546
46.180       387
46.190       200
46.200       293
46.210       227
46.220       360
46.230       387
46.240       320
46.250       253
46.260       227
46.270       213
46.280       227
46.290       107
46.300       160
46.310       147
46.320       120
46.330       147
46.340        67
46.350       107
46.360       147
46.370       107
46.380        80
46.390        53
46.400        40
46.410        80
46.420        40
46.430        40
46.440        53
46.450        27
46.460        53
46.470        53
46.480        40
46.490        40
46.500        40
46.510        67
46.520        40
46.530         0
46.540        13
46.550        40
46.560         0
46.570         0
46.580        80
46.590       133
46.600        27
46.610        40
46.620        67
46.630        67
46.640        40
46.650        40
46.660        80
46.670        40
46.680        53
46.690        53
46.700        67
46.710        40
46.720        27
46.730        67
46.740        53
46.750        27
46.760        13
46.770        27
46.780        13
46.790        27
46.800        27
46.810        27
46.820        13
46.830        53
46.840        27
46.850        67
46.860        27
46.870        53
46.880        13
46.890        27
46.900        40
46.910        40
46.920        13
46.930        27
46.940        40
46.950        53
46.960        67
46.970        27
46.980        53
46.990        67
47.000        13
47.010        80
47.020        27
47.030        53
47.040        40
47.050        53
47.060        40
47.070        67
47.080         0
47.090        27
47.100        13
47.110        27
47.120        40
47.130        27
47.140        13
47.150        13
47.160         0
47.170        27
47.180        67
47.190        27
47.200         0
47.210        13
47.220        27
47.230        27
47.240        40
47.250        53
47.260        27
47.270        40
47.280        53
47.290        40
47.300        13
47.310        27
47.320        13
47.330        13
47.340         0
47.350         0
47.360        13
47.370        27
47.380        13
47.390        67
47.400        13
47.410        67
47.420        40
47.430        67
47.440        80
47.450        93
47.460        40
47.470        40
47.480        53
47.490        40
47.500        27
47.510        13
47.520        40
47.530        27
47.540        40
47.550        13
47.560         0
47.570        13
47.580         0
47.590         0
47.600        40
47.610        27
47.620       107
47.630        27
47.640        40
47.650        13
47.660       107
47.670        53
47.680        40
47.690        40
47.700        27
47.710        67
47.720        40
47.730        13
47.740        27
47.750         0
47.760        40
47.770        27
47.780        67
47.790        40
47.800        53
47.810        13
47.820        13
47.830         0
47.840        67
47.850        40
47.860        40
47.870        40
47.880        13
47.890        40
47.900         0
47.910        27
47.920        40
47.930        13
47.940        13
47.950         0
47.960         0
47.970        40
47.980        27
47.990        40
48.000        40
48.010        27
48.020        27
48.030         0
48.040        27
48.050        27
48.060        53
48.070        40
48.080        27
48.090        13
48.100        13
48.110        53
48.120        40
48.130        13
48.140        13
48.150         0
48.160        27
48.170        27
48.180        53
48.190        40
48.200         0
48.210        67
48.220         0
48.230        13
48.240        80
48.250        53
48.260         0
48.270        40
48.280        40
48.290        13
48.300        40
48.310        40
48.320        67
48.330        40
48.340        13
48.350        53
48.360        40
48.370        27
48.380        27
48.390        40
48.400        13
48.410        80
48.420        13
48.430        67
48.440        13
48.450        67
48.460         0
48.470        27
48.480         0
48.490        67
48.500        27
48.510        27
48.520        27
48.530        53
48.540        27
48.550        13
48.560        40
48.570        13
48.580        27
48.590        27
48.600        53
48.610        53
48.620        27
48.630         0
48.640        27
48.650        27
48.660        27
48.670        27
48.680         0
48.690        27
48.700        27
48.710        40
48.720        40
48.730        27
48.740        67
48.750        27
48.760        27
48.770        27
48.780        27
48.790        40
48.800        27
48.810        13
48.820        40
48.830        80
48.840        27
48.850        80
48.860        80
48.870        27
48.880        67
48.890        53
48.900        67
48.910        27
48.920        53
48.930        40
48.940        80
48.950        53
48.960       133
48.970       107
48.980       173
48.990       147
49.000       107
49.010       133
49.020       253
49.030       107
49.040       147
49.050       133
49.060       227
49.070       293
49.080       240
49.090       147
49.100       187
49.110       213
49.120       187
49.130       240
49.140       173
49.150       227
49.160       227
49.170       187
49.180        93
49.190       133
49.200        93
49.210       133
49.220       120
49.230       120
49.240       147
49.250       187
49.260        93
49.270       120
49.280        67
49.290       107
49.300       160
49.310        53
49.320        67
49.330        53
49.340        80
49.350        67
49.360        27
49.370        67
49.380        40
49.390        67
49.400        27
49.410        67
49.420        40
49.430        67
49.440        27
49.450        13
49.460        13
49.470         0
49.480        27
49.490        27
49.500        27
49.510        67
49.520        27
49.530        40
49.540        40
49.550        27
49.560        40
49.570         0
49.580        13
49.590        67
49.600        67
49.610         0
49.620        27
49.630         0
49.640        13
49.650        40
49.660        53
49.670        13
49.680        53
49.690        27
49.700        67
49.710        40
49.720        53
49.730        67
49.740         0
49.750        13
49.760        13
49.770        53
49.780        53
49.790        27
49.800        27
49.810         0
49.820        27
49.830        27
49.840         0
49.850        40
49.860        13
49.870        13
49.880        40
49.890         0
49.900        53
49.910        13
49.920        40
49.930        40
49.940        13
49.950        27
49.960        27
49.970        40
49.980        27
49.990        27
50.000        27
50.010        13
50.020        13
50.030        53
50.040        27
50.050        27
50.060        40
50.070        27
50.080        27
50.090        13
50.100        13
50.110        53
50.120        27
50.130        13
50.140        27
50.150        27
50.160        13
50.170        40
50.180        40
50.190        27
50.200         0
50.210        53
50.220        27
50.230         0
50.240        67
50.250        53
50.260         0
50.270        40
50.280        53
50.290        27
50.300        40
50.310        27
50.320        27
50.330        67
50.340         0
50.350        13
50.360        53
50.370        27
50.380        27
50.390         0
50.400        40
50.410         0
50.420        40
50.430         0
50.440        40
50.450        53
50.460        13
50.470        53
50.480        13
50.490        27
50.500        13
50.510        40
50.520        13
50.530        40
50.540        27
50.550        27
50.560        27
50.570        40
50.580        53
50.590        27
50.600        67
50.610        40
50.620        40
50.630        27
50.640        40
50.650        13
50.660        27
50.670        13
50.680        53
50.690        27
50.700        40
50.710        27
50.720        27
50.730        80
50.740        27
50.750        13
50.760        53
50.770        40
50.780        13
50.790        67
50.800        53
50.810        13
50.820        27
50.830         0
50.840        40
50.850        53
50.860        40
50.870        27
50.880        40
50.890        27
50.900        13
50.910        40
50.920        53
50.930        80
50.940        53
50.950         0
50.960        53
50.970        67
50.980        40
50.990        13
51.000        27
51.010        40
51.020        27
51.030        53
51.040        13
51.050        13
51.060        40
51.070        27
51.080        80
51.090        13
51.100        13
51.110        53
51.120        13
51.130        53
51.140        53
51.150        27
51.160        27
51.170        40
51.180        53
51.190        40
51.200        40
51.210        27
51.220        67
51.230        40
51.240        53
51.250        40
51.260        27
51.270        13
51.280        13
51.290         0
51.300        40
51.310        13
51.320        13
51.330        13
51.340        80
51.350        53
51.360        13
51.370        27
51.380        53
51.390        40
51.400        27
51.410        80
51.420        27
51.430        27
51.440       107
51.450        13
51.460        80
51.470        53
51.480        27
51.490        53
51.500        80
51.510        13
51.520        13
51.530        80
51.540        53
51.550        13
51.560        80
51.570        27
51.580        53
51.590        40
51.600        53
51.610        27
51.620       120
51.630        27
51.640        67
51.650       107
51.660        40
51.670        53
51.680        67
51.690        53
51.700        53
51.710        40
51.720        40
51.730        27
51.740       120
51.750       120
51.760       133
51.770       133
51.780       147
51.790        67
51.800       227
51.810       213
51.820       133
51.830       253
51.840       187
51.850       280
51.860       307
51.870       253
51.880       320
51.890       320
51.900       347
51.910       320
51.920       360
51.930       373
51.940       426
51.950       347
51.960       320
51.970       293
51.980       293
51.990       333
52.000       253
52.010       440
52.020       280
52.030       187
52.040       227
52.050       267
52.060       187
52.070       213
52.080       160
52.090       213
52.100       147
52.110       200
52.120       173
52.130       173
52.140       240
52.150       147
52.160       173
52.170       107
52.180       227
52.190       120
52.200       133
52.210       160
52.220       147
52.230       120
52.240       133
52.250        67
52.260       173
52.270       173
52.280       227
52.290       347
52.300       347
52.310       506
52.320       866
52.330       640
52.340       586
52.350       960
52.360       986
52.370      1093
52.380      1279
52.390       920
52.400       786
52.410      1200
52.420      1200
52.430       920
52.440      1106
52.450      1133
52.460      1200
52.470      1146
52.480       986
52.490      1013
52.500       960
52.510      1146
52.520      1106
52.530       973
52.540       893
52.550       880
52.560      1026
52.570       786
52.580       733
52.590       693
52.600       666
52.610       506
52.620       480
52.630       546
52.640       466
52.650       493
52.660       387
52.670       307
52.680       280
52.690       240
52.700       227
52.710       173
52.720       107
52.730       133
52.740       107
52.750        80
52.760       107
52.770        80
52.780        27
52.790       147
52.800        80
52.810        53
52.820        67
52.830        40
52.840        80
52.850        27
52.860        80
52.870        67
52.880        80
52.890       147
52.900        53
52.910        93
52.920       107
52.930        40
52.940        67
52.950        53
52.960        67
52.970        53
52.980        13
52.990        93
53.000        67
53.010        53
53.020        80
53.030        40
53.040        27
53.050        13
53.060        53
53.070        13
53.080        80
53.090        27
53.100        27
53.110        67
53.120        67
53.130        13
53.140        67
53.150       133
53.160        80
53.170       120
53.180        67
53.190        13
53.200        53
53.210        13
53.220        40
53.230        13
53.240        13
53.250        13
53.260        27
53.270        53
53.280        80
53.290        27
53.300        27
53.310        13
53.320        67
53.330        27
53.340        27
53.350        27
53.360        40
53.370        40
53.380        27
53.390        40
53.400         0
53.410        53
53.420        40
53.430        40
53.440        40
53.450        93
53.460        67
53.470        13
53.480        53
53.490        40
53.500        27
53.510        13
53.520        53
53.530        40
53.540        53
53.550        80
53.560        53
53.570        40
53.580        67
53.590        67
53.600        40
53.610        80
53.620       107
53.630        40
53.640        27
53.650        67
53.660        67
53.670        53
53.680        53
53.690        40
53.700        53
53.710        40
53.720        40
53.730        13
53.740        40
53.750        67
53.760        27
53.770        67
53.780         0
53.790         0
53.800        53
53.810        80
53.820        53
53.830        27
53.840        40
53.850        67
53.860        53
53.870        53
53.880        40
53.890        40
53.900        40
53.910        13
53.920         0
53.930        27
53.940        27
53.950        80
53.960        53
53.970        40
53.980        80
53.990        53
54.000        40
54.010        40
54.020         0
54.030        40
54.040        27
54.050        27
54.060         0
54.070        13
54.080        40
54.090        40
54.100        13
54.110        27
54.120        13
54.130        53
54.140        27
54.150        40
54.160        27
54.170        13
54.180        27
54.190        53
54.200        13
54.210        67
54.220        40
54.230        13
54.240         0
54.250         0
54.260        40
54.270        40
54.280        13
54.290        67
54.300        13
54.310        13
54.320        27
54.330        53
54.340        67
54.350        27
54.360        40
54.370        13
54.380        40
54.390         0
54.400        40
54.410        67
54.420        40
54.430        13
54.440         0
54.450        27
54.460        27
54.470        13
54.480        13
54.490        40
54.500         0
54.510        80
54.520        27
54.530        13
54.540        27
54.550        27
54.560         0
54.570        53
54.580        40
54.590        13
54.600        27
54.610        40
54.620        40
54.630        13
54.640        53
54.650        13
54.660         0
54.670        40
54.680        13
54.690        40
54.700        80
54.710        13
54.720        27
54.730        40
54.740        13
54.750        27
54.760        40
54.770         0
54.780        40
54.790        53
54.800        13
54.810         0
54.820        13
54.830        40
54.840        40
54.850         0
54.860        13
54.870        13
54.880        27
54.890        40
54.900        53
54.910        27
54.920        53
54.930        13
54.940        40
54.950        13
54.960        27
54.970        40
54.980        13
54.990        13
55.000         0
55.010        27
55.020        13
55.030        13
55.040        40
55.050         0
55.060         0
55.070        27
55.080        40
55.090        13
55.100        53
55.110        40
55.120        13
55.130        27
55.140        13
55.150        53
55.160         0
55.170        27
55.180        27
55.190        13
55.200        13
55.210        53
55.220        40
55.230        27
55.240        40
55.250        27
55.260         0
55.270        40
55.280        67
55.290         0
55.300        13
55.310        53
55.320        40
55.330        27
55.340         0
55.350         0
55.360        53
55.370         0
55.380        27
55.390        40
55.400        53
55.410         0
55.420        13
55.430        27
55.440        13
55.450        27
55.460        13
55.470         0
55.480        27
55.490        40
55.500        13
55.510        53
55.520        27
55.530        67
55.540        27
55.550        53
55.560        27
55.570        27
55.580        13
55.590        27
55.600        67
55.610        27
55.620        27
55.630        40
55.640        53
55.650        40
55.660        40
55.670        40
55.680        13
55.690        53
55.700        13
55.710        27
55.720        13
55.730        53
55.740        40
55.750        27
55.760        40
55.770        13
55.780        67
55.790        53
55.800        27
55.810        40
55.820        53
55.830        80
55.840        40
55.850        13
55.860        27
55.870        27
55.880        40
55.890        13
55.900        40
55.910        27
55.920       107
55.930        40
55.940        13
55.950        80
55.960        27
55.970        27
55.980        27
55.990       107
56.000        53
56.010        27
56.020        53
56.030        53
56.040        53
56.050        80
56.060        40
56.070         0
56.080        40
56.090        40
56.100        13
56.110        53
56.120        67
56.130        40
56.140         0
56.150        27
56.160        27
56.170        40
56.180        13
56.190        53
56.200        53
56.210        13
56.220        27
56.230        53
56.240        27
56.250        40
56.260        67
56.270        27
56.280        53
56.290         0
56.300       107
56.310        53
56.320         0
56.330        40
56.340        13
56.350        67
56.360        67
56.370        53
56.380        40
56.390        40
56.400        67
56.410        27
56.420        13
56.430         0
56.440        13
56.450        13
56.460        13
56.470        80
56.480        13
56.490        13
56.500        13
56.510        80
56.520        27
56.530        40
56.540        13
56.550        13
56.560        67
56.570         0
56.580        27
56.590        13
56.600        40
56.610        27
56.620        53
56.630        27
56.640        53
56.650        27
56.660        27
56.670        27
56.680        53
56.690        80
56.700        13
56.710        13
56.720         0
56.730        13
56.740         0
56.750        40
56.760        13
56.770        27
56.780        13
56.790        13
56.800         0
56.810        13
56.820        13
56.830        13
56.840        40
56.850        13
56.860        27
56.870        40
56.880        13
56.890         0
56.900        27
56.910        80
56.920        27
56.930        13
56.940        13
56.950         0
56.960        40
56.970        40
56.980         0
56.990        27
57.000        67
57.010        13
57.020        40
57.030        53
57.040        40
57.050        13
57.060        40
57.070        13
57.080        13
57.090        27
57.100        27
57.110        13
57.120        13
57.130        53
57.140        13
57.150        67
57.160        13
57.170        27
57.180        27
57.190        27
57.200        40
57.210        40
57.220        27
57.230        27
57.240        53
57.250        27
57.260        13
57.270        80
57.280        40
57.290        53
57.300        27
57.310        27
57.320        13
57.330        53
57.340        27
57.350        13
57.360        13
57.370        40
57.380        27
57.390        53
57.400        27
57.410         0
57.420         0
57.430        67
57.440        53
57.450        13
57.460        53
57.470        13
57.480        53
57.490        40
57.500        13
57.510        27
57.520        67
57.530        13
57.540        53
57.550        27
57.560        13
57.570        53
57.580        27
57.590         0
57.600        27
57.610        13
57.620         0
57.630         0
57.640        27
57.650        13
57.660        40
57.670        40
57.680        27
57.690        27
57.700        40
57.710        40
57.720        27
57.730        13
57.740        53
57.750        93
57.760        53
57.770        40
57.780         0
57.790        27
57.800        80
57.810        40
57.820        13
57.830         0
57.840        13
57.850        53
57.860        13
57.870        13
57.880        13
57.890        27
57.900        40
57.910        93
57.920        40
57.930        53
57.940        27
57.950        13
57.960        40
57.970        27
57.980        13
57.990        13
58.000         0
58.010        40
58.020        13
58.030        27
58.040        27
58.050        13
58.060        27
58.070        53
58.080         0
58.090        27
58.100        13
58.110        13
58.120        13
58.130        67
58.140        67
58.150        13
58.160         0
58.170        13
58.180         0
58.190         0
58.200        40
58.210        40
58.220         0
58.230         0
58.240        13
58.250        13
58.260        27
58.270        27
58.280        13
58.290        13
58.300         0
58.310        13
58.320        80
58.330        13
58.340        27
58.350        13
58.360        53
58.370         0
58.380        40
58.390        13
58.400         0
58.410        40
58.420        27
58.430        13
58.440        27
58.450         0
58.460        40
58.470        13
58.480        13
58.490        27
58.500        27
58.510        13
58.520         0
58.530        13
58.540        67
58.550         0
58.560        53
58.570        27
58.580        27
58.590         0
58.600        13
58.610         0
58.620        40
58.630        40
58.640        13
58.650         0
58.660        40
58.670         0
58.680        13
58.690        13
58.700        13
58.710        40
58.720        40
58.730        27
58.740         0
58.750        13
58.760        27
58.770        13
58.780        40
58.790        27
58.800        27
58.810        27
58.820        13
58.830        27
58.840        27
58.850        27
58.860        27
58.870        27
58.880        27
58.890        40
58.900        13
58.910        40
58.920        13
58.930        40
58.940         0
58.950        27
58.960        13
58.970        13
58.980        13
58.990        27
59.000        27
59.010        27
59.020        27
59.030        40
59.040         0
59.050        13
59.060        27
59.070        53
59.080        80
59.090        13
59.100        13
59.110        53
59.120        40
59.130        40
59.140        13
59.150        40
59.160         0
59.170        27
59.180        13
59.190        40
59.200        27
59.210        53
59.220        40
59.230        40
59.240        67
59.250        13
59.260        13
59.270        40
59.280        13
59.290        53
59.300        67
59.310        93
59.320        13
59.330        53
59.340        40
59.350        27
59.360        40
59.370        40
59.380        53
59.390        40
59.400        53
59.410        27
59.420        80
59.430        13
59.440        27
59.450        27
59.460         0
59.470        93
59.480        53
59.490        40
59.500        53
59.510        13
59.520        40
59.530        27
59.540        27
59.550        40
59.560        13
59.570        27
59.580        13
59.590        53
59.600       107
59.610        67
59.620        13
59.630        53
59.640        13
59.650        53
59.660        13
59.670        27
59.680        27
59.690        40
59.700        13
59.710        40
59.720        93
59.730        40
59.740        53
59.750        40
59.760        27
59.770        53
59.780        53
59.790        13
59.800        67
59.810        53
59.820        53
59.830        53
59.840        80
59.850        40
59.860        53
59.870        67
59.880        27
59.890        53
59.900        27
59.910       107
59.920        40
59.930        67
59.940        93
59.950        27
59.960        53
59.970        27
59.980        27
59.990        53
60.000        53
