20.000        27
20.010        80
20.020        40
20.030        13
20.040        53
20.050        27
20.060        27
20.070        13
20.080        40
20.090        27
20.100        67
20.110        80
20.120        53
20.130        13
20.140         0
20.150       120
20.160        27
20.170        93
20.180        40
20.190        27
20.200        53
20.210        93
20.220        40
20.230        27
20.240        80
20.250        40
20.260        80
20.270        53
20.280        80
20.290        67
20.300        13
20.310        13
20.320        27
20.330        53
20.340        80
20.350        93
20.360        53
20.370        27
20.380        53
20.390        67
20.400        53
20.410        13
20.420        80
20.430        27
20.440        27
20.450        13
20.460         0
20.470        13
20.480        40
20.490        27
20.500        13
20.510        67
20.520        27
20.530        40
20.540        53
20.550        67
20.560        13
20.570        40
20.580        40
20.590        13
20.600        80
20.610        40
20.620        53
20.630        27
20.640        40
20.650        27
20.660        40
20.670        40
20.680         0
20.690        53
20.700        27
20.710        40
20.720        13
20.730        27
20.740        53
20.750        13
20.760        53
20.770        27
20.780        53
20.790        80
20.800        53
20.810        80
20.820        13
20.830        27
20.840        40
20.850        27
20.860        40
20.870        27
20.880        13
20.890        13
20.900        67
20.910        27
20.920        40
20.930        13
20.940        67
20.950        53
20.960        67
20.970        27
20.980        27
20.990        80
21.000        40
21.010        40
21.020        27
21.030        67
21.040        40
21.050        27
21.060        67
21.070        27
21.080        27
21.090        53
21.100        53
21.110        27
21.120        40
21.130        67
21.140        13
21.150        80
21.160        27
21.170        53
21.180        67
21.190        53
21.200        93
21.210        40
21.220        40
21.230        93
21.240        53
21.250        27
21.260        40
21.270        40
21.280        40
21.290       107
21.300        40
21.310        40
21.320        53
21.330        40
21.340        53
21.350        80
21.360        40
21.370         0
21.380        40
21.390        40
21.400        13
21.410        67
21.420         0
21.430        27
21.440        40
21.450        40
21.460        27
21.470         0
21.480        27
21.490        40
21.500        27
21.510        13
21.520        53
21.530        40
21.540        53
21.550        13
21.560        80
21.570        27
21.580        67
21.590        27
21.600        40
21.610        40
21.620        27
21.630        40
21.640        27
21.650        27
21.660        53
21.670        40
21.680        67
21.690        67
21.700        93
21.710        93
21.720        27
21.730        67
21.740        53
21.750        67
21.760        27
21.770        40
21.780        27
21.790        53
21.800        40
21.810         0
21.820        13
21.830        27
21.840        40
21.850        67
21.860        40
21.870        67
21.880        27
21.890        40
21.900        80
21.910        27
21.920        53
21.930        53
21.940        53
21.950        27
21.960        13
21.970        13
21.980        67
21.990        27
22.000        27
22.010        53
22.020        27
22.030        80
22.040        40
22.050        67
22.060        40
22.070       107
22.080        40
22.090        27
22.100       107
22.110        13
22.120        27
22.130        27
22.140        67
22.150       133
22.160        67
22.170        53
22.180        93
22.190        53
22.200        93
22.210        93
22.220        40
22.230        80
22.240       120
22.250       160
22.260       120
22.270       160
22.280       147
22.290       147
22.300       107
22.310       133
22.320       133
22.330       147
22.340       200
22.350       120
22.360       160
22.370       213
22.380       147
22.390       173
22.400       133
22.410       160
22.420       227
22.430       200
22.440       213
22.450       133
22.460       227
22.470       133
22.480       227
22.490       187
22.500       187
22.510       160
22.520        93
22.530       107
22.540       187
22.550       173
22.560       147
22.570       173
22.580       120
22.590       173
22.600       120
22.610        93
22.620        93
22.630       133
22.640        80
22.650       120
22.660       120
22.670        27
22.680       187
22.690        53
22.700       147
22.710       160
22.720       107
22.730        80
22.740       120
22.750        80
22.760       147
22.770        93
22.780        13
22.790        53
22.800        67
22.810        80
22.820        53
22.830        13
22.840        80
22.850        80
22.860       147
22.870        53
22.880        67
22.890        67
22.900        53
22.910        80
22.920       120
22.930        67
22.940        67
22.950        80
22.960        40
22.970        67
22.980        27
22.990        67
23.000        80
23.010        13
23.020        67
23.030        40
23.040        27
23.050        67
23.060        27
23.070        93
23.080        13
23.090        80
23.100        27
23.110        80
23.120        40
23.130        53
23.140        40
23.150        67
23.160        53
23.170        67
23.180        40
23.190        80
23.200        40
23.210        93
23.220        27
23.230        53
23.240        40
23.250        27
23.260        67
23.270        53
23.280        40
23.290        27
23.300        27
23.310        40
23.320        40
23.330        53
23.340        27
23.350        27
23.360        27
23.370        53
23.380        40
23.390        53
23.400        13
23.410        53
23.420        40
23.430        40
23.440         0
23.450        40
23.460        67
23.470        27
23.480        53
23.490        53
23.500        27
23.510        67
23.520        53
23.530        40
23.540        13
23.550        27
23.560        40
23.570        13
23.580        40
23.590        27
23.600         0
23.610        13
23.620        40
23.630        67
23.640        53
23.650        27
23.660        93
23.670        67
23.680        53
23.690        27
23.700        27
23.710        13
23.720        80
23.730        53
23.740        40
23.750         0
23.760        40
23.770        40
23.780        80
23.790       107
23.800        27
23.810        53
23.820        53
23.830        53
23.840        13
23.850        13
23.860        67
23.870        27
23.880        53
23.890        53
23.900        13
23.910        67
23.920        13
23.930        40
23.940        27
23.950        53
23.960        40
23.970        27
23.980        27
23.990         0
24.000        13
24.010        40
24.020        27
24.030        53
24.040        53
24.050        13
24.060        80
24.070        13
24.080        40
24.090        40
24.100         0
24.110         0
24.120        27
24.130        27
24.140        40
24.150        53
24.160        40
24.170        40
24.180        53
24.190         0
24.200         0
24.210        80
24.220        40
24.230        27
24.240        67
24.250        40
24.260        27
24.270        40
24.280        27
24.290        27
24.300        53
24.310        13
24.320        27
24.330        27
24.340        40
24.350        27
24.360         0
24.370        53
24.380         0
24.390        53
24.400        27
24.410        80
24.420        67
24.430        27
24.440        13
24.450        27
24.460        40
24.470        40
24.480        13
24.490        13
24.500        13
24.510        27
24.520        40
24.530        27
24.540        53
24.550        93
24.560        27
24.570        27
24.580        40
24.590        27
24.600        53
24.610        67
24.620        40
24.630        27
24.640        80
24.650        40
24.660        53
24.670        67
24.680         0
24.690        67
24.700        53
24.710       107
24.720        40
24.730        27
24.740        40
24.750        40
24.760        27
24.770        80
24.780         0
24.790        67
24.800        53
24.810        53
24.820        53
24.830        27
24.840        13
24.850        13
24.860        27
24.870        27
24.880        27
24.890        53
24.900        67
24.910        67
24.920        40
24.930        53
24.940        13
24.950        13
24.960        13
24.970        53
24.980        27
24.990        53
25.000        27
25.010        27
25.020        53
25.030        80
25.040        13
25.050        67
25.060        40
25.070        27
25.080        53
25.090        40
25.100        80
25.110        40
25.120         0
25.130        67
25.140        40
25.150        27
25.160        13
25.170        27
25.180        13
25.190        40
25.200        27
25.210        27
25.220        13
25.230        27
25.240        13
25.250        27
25.260        13
25.270        13
25.280        13
25.290        27
25.300        27
25.310        13
25.320        93
25.330        53
25.340        40
25.350        27
25.360        40
25.370        27
25.380        27
25.390        40
25.400        67
25.410        13
25.420        53
25.430        53
25.440         0
25.450        40
25.460         0
25.470        40
25.480        13
25.490        67
25.500        40
25.510        27
25.520        27
25.530        40
25.540        13
25.550        67
25.560        27
25.570        40
25.580        93
25.590        27
25.600         0
25.610        53
25.620        40
25.630        27
25.640        27
25.650        53
25.660        40
25.670        13
25.680        40
25.690         0
25.700        40
25.710        53
25.720        53
25.730        27
25.740        13
25.750        13
25.760        53
25.770        13
25.780        13
25.790        40
25.800        40
25.810        80
25.820        40
25.830        67
25.840        53
25.850        13
25.860        53
25.870        40
25.880        67
25.890        67
25.900        13
25.910        13
25.920        40
25.930        27
25.940        40
25.950        40
25.960        40
25.970        53
25.980        40
25.990        67
26.000        53
26.010        27
26.020        40
26.030        53
26.040        53
26.050        13
26.060        80
26.070        80
26.080        40
26.090        27
26.100        13
26.110        67
26.120        80
26.130         0
26.140        80
26.150        13
26.160        40
26.170        27
26.180        27
26.190        13
26.200        27
26.210        40
26.220        40
26.230        40
26.240        40
26.250        27
26.260        53
26.270         0
26.280        40
26.290        27
26.300        53
26.310        40
26.320        27
26.330        13
26.340        53
26.350        13
26.360        13
26.370        40
26.380        53
26.390        13
26.400        13
26.410        53
26.420        13
26.430        27
26.440        27
26.450        53
26.460        13
26.470        53
26.480        27
26.490         0
26.500        13
26.510        80
26.520        40
26.530        67
26.540        53
26.550        13
26.560        53
26.570        53
26.580         0
26.590        13
26.600         0
26.610        40
26.620        27
26.630        40
26.640        13
26.650        27
26.660        80
26.670        27
26.680        53
26.690        27
26.700         0
26.710         0
26.720        27
26.730        27
26.740        40
26.750        27
26.760        27
26.770        13
26.780        13
26.790        40
26.800        40
26.810        40
26.820         0
26.830        13
26.840        13
26.850        53
26.860        13
26.870        40
26.880        13
26.890        40
26.900         0
26.910        27
26.920        27
26.930        67
26.940        27
26.950        27
26.960        27
26.970        27
26.980        27
26.990        13
27.000         0
27.010        13
27.020        53
27.030         0
27.040        80
27.050        40
27.060        40
27.070        13
27.080        27
27.090        13
27.100        53
27.110        13
27.120        40
27.130        13
27.140        27
27.150        13
27.160        53
27.170        27
27.180        13
27.190        13
27.200         0
27.210        27
27.220        13
27.230        27
27.240        40
27.250        27
27.260        67
27.270        27
27.280        13
27.290        80
27.300        40
27.310        67
27.320        13
27.330        67
27.340        40
27.350        40
27.360        53
27.370        13
27.380        40
27.390        53
27.400        27
27.410        13
27.420        40
27.430        67
27.440         0
27.450        27
27.460        53
27.470         0
27.480        53
27.490        13
27.500        13
27.510        27
27.520        27
27.530        53
27.540        40
27.550        67
27.560        13
27.570        40
27.580        27
27.590        27
27.600        40
27.610        27
27.620        13
27.630         0
27.640        80
27.650        40
27.660         0
27.670        67
27.680        53
27.690        13
27.700        13
27.710        13
27.720        53
27.730        27
27.740        53
27.750        27
27.760        13
27.770        40
27.780        13
27.790        27
27.800        27
27.810         0
27.820        27
27.830         0
27.840        40
27.850        53
27.860        13
27.870        13
27.880        40
27.890         0
27.900        13
27.910        27
27.920        13
27.930        13
27.940        67
27.950        13
27.960        53
27.970        53
27.980         0
27.990        53
28.000         0
28.010        13
28.020         0
28.030         0
28.040        27
28.050        53
28.060        13
28.070        27
28.080        67
28.090        53
28.100        53
28.110        53
28.120        27
28.130        40
28.140        27
28.150        27
28.160         0
28.170         0
28.180        40
28.190        53
28.200        27
28.210        93
28.220        13
28.230        40
28.240        27
28.250        27
28.260        13
28.270         0
28.280        40
28.290       107
28.300        13
28.310        13
28.320        13
28.330        40
28.340        40
28.350         0
28.360         0
28.370        13
28.380        13
28.390         0
28.400        13
28.410        40
28.420        13
28.430        53
28.440        27
28.450        13
28.460        27
28.470        67
28.480        27
28.490        13
28.500        40
28.510        53
28.520         0
28.530        27
28.540        53
28.550        27
28.560        53
28.570        27
28.580        40
28.590        40
28.600        27
28.610        13
28.620        27
28.630        40
28.640        13
28.650        40
28.660        27
28.670        27
28.680        13
28.690         0
28.700         0
28.710        13
28.720        80
28.730        40
28.740        27
28.750        53
28.760        27
28.770        27
28.780        13
28.790        13
28.800        40
28.810        27
28.820        40
28.830         0
28.840        67
28.850        53
28.860        13
28.870        40
28.880        40
28.890        27
28.900        53
28.910        67
28.920        53
28.930        27
28.940        13
28.950        80
28.960        40
28.970        27
28.980        67
28.990         0
29.000        13
29.010        80
29.020        13
29.030        27
29.040        13
29.050        27
29.060        40
29.070         0
29.080         0
29.090        40
29.100        27
29.110        27
29.120        40
29.130        53
29.140        27
29.150        53
29.160        27
29.170        27
29.180        80
29.190        67
29.200        93
29.210        67
29.220        40
29.230        80
29.240        53
29.250        27
29.260        53
29.270        53
29.280        27
29.290        13
29.300        27
29.310        27
29.320         0
29.330         0
29.340        13
29.350        40
29.360        27
29.370        13
29.380        27
29.390        27
29.400        67
29.410        27
29.420        53
29.430         0
29.440        13
29.450         0
29.460         0
29.470        27
29.480        13
29.490        40
29.500        27
29.510        40
29.520        27
29.530        27
29.540        40
29.550        13
29.560        67
29.570        40
29.580         0
29.590        13
29.600        53
29.610        27
29.620        53
29.630        53
29.640        40
29.650        40
29.660        27
29.670        27
29.680        27
29.690        27
29.700        13
29.710        53
29.720        40
29.730        40
29.740        40
29.750        27
29.760        13
29.770        27
29.780        27
29.790        40
29.800        13
29.810        40
29.820        13
29.830         0
29.840        27
29.850         0
29.860         0
29.870        53
29.880        53
29.890        27
29.900        53
29.910        13
29.920        27
29.930        40
29.940        27
29.950        40
29.960        27
29.970        13
29.980        27
29.990        13
30.000        40
30.010        40
30.020        40
30.030        40
30.040        13
30.050        27
30.060        53
30.070         0
30.080        27
30.090        13
30.100        53
30.110         0
30.120        13
30.130        27
30.140        13
30.150        27
30.160        13
30.170         0
30.180        27
30.190        27
30.200        13
30.210        53
30.220        53
30.230        27
30.240        13
30.250        27
30.260        27
30.270        40
30.280        13
30.290         0
30.300        13
30.310        40
30.320         0
30.330        27
30.340        40
30.350        27
30.360        93
30.370        27
30.380        53
30.390         0
30.400        40
30.410        40
30.420        27
30.430        40
30.440        13
30.450        27
30.460        27
30.470        27
30.480        27
30.490         0
30.500        27
30.510        40
30.520        13
30.530        13
30.540         0
30.550        13
30.560        13
30.570        13
30.580        40
30.590        27
30.600         0
30.610         0
30.620        13
30.630        40
30.640        27
30.650        53
30.660        13
30.670        27
30.680        27
30.690        40
30.700        40
30.710        13
30.720        13
30.730        27
30.740        27
30.750        13
30.760        67
30.770        27
30.780        53
30.790        67
30.800        27
30.810        53
30.820        40
30.830        13
30.840        27
30.850        13
30.860        27
30.870        27
30.880        27
30.890        27
30.900        53
30.910        93
30.920        13
30.930         0
30.940        40
30.950        40
30.960        80
30.970        27
30.980        67
30.990        53
31.000        40
31.010        40
31.020        40
31.030        27
31.040        13
31.050         0
31.060        67
31.070         0
31.080        27
31.090        53
31.100        53
31.110        40
31.120         0
31.130        27
31.140        40
31.150        27
31.160        13
31.170        40
31.180         0
31.190        13
31.200        13
31.210        13
31.220        27
31.230        13
31.240        53
31.250        13
31.260        13
31.270        53
31.280         0
31.290        80
31.300         0
31.310        40
31.320        13
31.330        40
31.340        27
31.350         0
31.360        13
31.370         0
31.380        40
31.390         0
31.400        27
31.410        13
31.420        13
31.430        40
31.440        53
31.450        40
31.460        40
31.470        27
31.480        67
31.490        27
31.500        13
31.510        80
31.520        40
31.530        40
31.540        27
31.550        40
31.560        40
31.570        53
31.580        40
31.590        27
31.600        13
31.610        27
31.620        40
31.630        27
31.640        40
31.650        40
31.660        40
31.670        27
31.680        40
31.690        27
31.700        13
31.710        40
31.720        13
31.730        53
31.740        53
31.750        40
31.760        93
31.770         0
31.780        53
31.790        40
31.800         0
31.810        13
31.820         0
31.830        40
31.840        27
31.850        40
31.860        67
31.870        80
31.880        80
31.890        53
31.900        80
31.910        67
31.920        53
31.930        40
31.940         0
31.950       133
31.960        53
31.970        40
31.980        53
31.990        93
32.000       107
32.010       107
32.020        93
32.030        93
32.040       120
32.050        40
32.060       107
32.070       133
32.080       107
32.090       133
32.100       173
32.110       160
32.120       107
32.130       147
32.140       120
32.150       147
32.160       173
32.170       133
32.180       147
32.190       120
32.200       227
32.210       240
32.220       253
32.230       280
32.240       173
32.250       227
32.260       160
32.270       240
32.280       213
32.290       360
32.300       147
32.310       240
32.320       213
32.330       253
32.340       173
32.350       147
32.360       160
32.370       147
32.380       160
32.390       160
32.400       120
32.410       160
32.420        80
32.430       133
32.440       107
32.450       107
32.460       147
32.470       107
32.480       173
32.490       107
32.500        80
32.510        40
32.520       147
32.530        93
32.540        93
32.550        53
32.560        67
32.570        80
32.580        13
32.590        53
32.600        67
32.610        53
32.620        53
32.630        27
32.640        80
32.650        80
32.660        80
32.670        40
32.680        53
32.690        40
32.700        80
32.710        13
32.720         0
32.730        40
32.740        93
32.750        53
32.760        53
32.770        40
32.780         0
32.790        40
32.800        80
32.810        40
32.820        40
32.830        27
32.840        53
32.850        27
32.860        27
32.870        53
32.880        13
32.890        27
32.900        13
32.910        27
32.920        80
32.930        13
32.940        27
32.950        27
32.960        27
32.970        13
32.980         0
32.990        53
33.000        27
33.010        53
33.020         0
33.030        40
33.040        53
33.050        53
33.060         0
33.070         0
33.080        53
33.090        13
33.100        13
33.110        13
33.120        53
33.130        27
33.140        53
33.150         0
33.160        27
33.170        13
33.180        13
33.190        13
33.200        53
33.210         0
33.220        80
33.230         0
33.240        13
33.250        67
33.260        27
33.270        13
33.280        67
33.290         0
33.300        67
33.310        27
33.320         0
33.330         0
33.340        40
33.350        53
33.360        13
33.370        27
33.380        67
33.390        27
33.400        13
33.410        13
33.420        27
33.430        13
33.440        40
33.450        13
33.460         0
33.470        53
33.480        27
33.490        13
33.500        53
33.510        40
33.520        13
33.530         0
33.540         0
33.550        53
33.560        13
33.570        13
33.580        13
33.590        27
33.600        13
33.610        13
33.620        13
33.630        53
33.640        13
33.650        27
33.660        13
33.670        27
33.680        27
33.690        27
33.700        13
33.710         0
33.720        27
33.730        53
33.740        13
33.750        40
33.760         0
33.770        27
33.780         0
33.790        27
33.800        27
33.810        27
33.820        13
33.830        13
33.840         0
33.850        53
33.860        13
33.870        13
33.880        53
33.890        13
33.900        13
33.910        40
33.920        27
33.930        13
33.940        40
33.950        40
33.960        27
33.970        27
33.980        40
33.990         0
34.000        27
34.010        13
34.020        27
34.030        40
34.040        13
34.050        13
34.060        27
34.070        13
34.080        27
34.090        53
34.100        13
34.110        27
34.120        13
34.130        40
34.140        13
34.150        53
34.160        27
34.170        13
34.180        27
34.190        13
34.200        13
34.210        27
34.220         0
34.230        13
34.240        53
34.250        13
34.260        40
34.270        27
34.280        40
34.290        27
34.300        27
34.310        53
34.320        27
34.330        13
34.340        13
34.350        13
34.360        27
34.370         0
34.380        13
34.390        13
34.400        27
34.410        53
34.420         0
34.430        13
34.440        13
34.450         0
34.460         0
34.470        13
34.480        40
34.490        27
34.500        13
34.510        13
34.520         0
34.530        40
34.540        40
34.550        27
34.560        13
34.570         0
34.580         0
34.590        40
34.600        40
34.610        40
34.620        27
34.630        13
34.640        53
34.650        27
34.660         0
34.670         0
34.680         0
34.690        27
34.700        13
34.710         0
34.720        53
34.730         0
34.740        40
34.750        40
34.760        40
34.770        40
34.780        40
34.790        13
34.800         0
34.810        40
34.820        13
34.830        67
34.840        13
34.850        53
34.860        13
34.870        13
34.880        40
34.890        27
34.900        53
34.910         0
34.920        53
34.930         0
34.940        27
34.950        13
34.960        40
34.970        13
34.980        27
34.990        13
35.000         0
35.010        27
35.020         0
35.030        13
35.040        13
35.050        53
35.060        27
35.070         0
35.080        13
35.090        27
35.100        27
35.110        53
35.120        27
35.130        40
35.140         0
35.150        27
35.160        13
35.170        13
35.180        27
35.190         0
35.200         0
35.210        27
35.220        13
35.230        13
35.240         0
35.250        13
35.260        40
35.270        40
35.280        27
35.290        27
35.300        27
35.310        13
35.320        27
35.330        27
35.340        27
35.350        53
35.360        13
35.370        27
35.380        40
35.390        40
35.400        40
35.410        53
35.420        27
35.430         0
35.440         0
35.450         0
35.460        53
35.470        27
35.480         0
35.490        13
35.500         0
35.510        40
35.520        13
35.530        27
35.540         0
35.550        40
35.560        53
35.570        13
35.580        27
35.590        13
35.600        27
35.610        53
35.620         0
35.630         0
35.640        80
35.650         0
35.660        13
35.670         0
35.680         0
35.690        27
35.700         0
35.710         0
35.720        40
35.730        40
35.740        53
35.750         0
35.760        53
35.770        27
35.780        53
35.790        13
35.800        13
35.810        40
35.820        27
35.830        27
35.840        13
35.850         0
35.860         0
35.870        27
35.880        53
35.890        27
35.900        27
35.910        13
35.920        27
35.930        13
35.940        13
35.950        27
35.960         0
35.970        27
35.980        13
35.990        13
36.000        13
36.010         0
36.020        27
36.030        27
36.040        27
36.050        40
36.060        40
36.070        13
36.080         0
36.090         0
36.100         0
36.110        13
36.120        27
36.130         0
36.140        13
36.150         0
36.160        40
36.170        40
36.180        13
36.190         0
36.200        13
36.210        13
36.220        13
36.230        40
36.240        13
36.250        13
36.260        13
36.270        13
36.280        13
36.290        27
36.300        27
36.310        40
36.320        27
36.330        27
36.340        40
36.350         0
36.360        13
36.370        13
36.380        27
36.390        13
36.400        40
36.410        27
36.420        27
36.430         0
36.440        27
36.450        13
36.460        53
36.470        27
36.480        27
36.490        40
36.500        27
36.510         0
36.520         0
36.530        27
36.540         0
36.550        13
36.560         0
36.570        53
36.580        13
36.590        13
36.600        40
36.610        13
36.620         0
36.630        27
36.640        13
36.650        40
36.660        40
36.670        13
36.680         0
36.690        40
36.700        27
36.710        27
36.720         0
36.730         0
36.740         0
36.750        27
36.760        13
36.770        13
36.780        53
36.790        13
36.800        27
36.810        40
36.820         0
36.830         0
36.840         0
36.850         0
36.860        27
36.870        13
36.880         0
36.890        13
36.900        13
36.910        13
36.920        67
36.930        27
36.940        27
36.950        13
36.960        13
36.970        13
36.980        13
36.990        13
37.000         0
37.010        40
37.020         0
37.030        13
37.040        40
37.050         0
37.060        13
37.070        40
37.080         0
37.090        27
37.100        13
37.110        13
37.120        27
37.130         0
37.140        13
37.150        27
37.160        40
37.170        40
37.180         0
37.190         0
37.200        13
37.210        13
37.220         0
37.230        13
37.240        27
37.250        13
37.260        13
37.270        13
37.280         0
37.290        13
37.300        13
37.310         0
37.320        13
37.330        27
37.340         0
37.350        27
37.360         0
37.370        27
37.380        27
37.390        13
37.400        27
37.410        13
37.420        13
37.430        27
37.440        27
37.450        40
37.460        13
37.470         0
37.480         0
37.490        13
37.500        27
37.510        13
37.520        13
37.530        40
37.540        40
37.550        13
37.560        27
37.570        27
37.580        13
37.590        27
37.600         0
37.610        27
37.620        40
37.630        27
37.640        27
37.650        53
37.660        13
37.670        40
37.680        53
37.690        13
37.700        13
37.710        13
37.720        40
37.730        13
37.740         0
37.750         0
37.760        13
37.770        13
37.780        40
37.790        13
37.800        40
37.810        27
37.820        27
37.830        13
37.840        13
37.850        13
37.860        13
37.870        40
37.880        13
37.890        53
37.900        40
37.910        13
37.920        40
37.930        40
37.940         0
37.950        27
37.960        13
37.970        27
37.980        27
37.990        27
38.000         0
38.010        27
38.020         0
38.030        13
38.040         0
38.050        27
38.060        40
38.070         0
38.080         0
38.090        13
38.100        13
38.110         0
38.120        27
38.130        13
38.140        13
38.150        40
38.160        27
38.170        27
38.180        40
38.190        13
38.200         0
38.210        27
38.220        40
38.230         0
38.240         0
38.250         0
38.260        40
38.270        13
38.280        27
38.290        27
38.300         0
38.310        13
38.320        13
38.330        40
38.340        13
38.350        13
38.360        13
38.370        13
38.380        40
38.390        13
38.400         0
38.410        27
38.420         0
38.430        27
38.440        40
38.450        27
38.460        13
38.470         0
38.480        27
38.490        13
38.500        27
38.510        13
38.520        13
38.530         0
38.540        40
38.550        27
38.560         0
38.570        53
38.580         0
38.590         0
38.600        27
38.610        53
38.620        27
38.630        53
38.640        27
38.650        40
38.660        13
38.670        27
38.680        40
38.690        13
38.700         0
38.710         0
38.720         0
38.730         0
38.740        13
38.750        27
38.760        13
38.770        27
38.780        13
38.790         0
38.800        40
38.810        27
38.820        27
38.830         0
38.840        27
38.850        27
38.860         0
38.870        27
38.880        13
38.890         0
38.900        27
38.910        13
38.920        27
38.930         0
38.940        40
38.950        13
38.960        67
38.970        40
38.980         0
38.990         0
39.000        13
39.010        13
39.020        13
39.030        13
39.040        13
39.050        13
39.060        27
39.070        27
39.080        13
39.090        40
39.100        13
39.110        13
39.120        13
39.130         0
39.140        13
39.150        27
39.160        13
39.170         0
39.180        13
39.190        13
39.200        40
39.210        13
39.220        27
39.230        27
39.240         0
39.250        40
39.260        13
39.270         0
39.280         0
39.290        27
39.300        13
39.310        27
39.320        13
39.330        13
39.340        40
39.350         0
39.360        13
39.370        13
39.380         0
39.390        27
39.400        13
39.410        27
39.420        53
39.430         0
39.440        40
39.450        40
39.460        27
39.470        27
39.480        13
39.490        13
39.500         0
39.510         0
39.520        13
39.530        13
39.540        27
39.550         0
39.560        40
39.570        40
39.580        40
39.590        27
39.600        40
39.610        13
39.620         0
39.630        13
39.640        40
39.650        27
39.660        40
39.670         0
39.680        53
39.690        27
39.700        27
39.710        40
39.720        13
39.730         0
39.740        13
39.750        13
39.760        27
39.770        27
39.780        40
39.790        13
39.800        27
39.810        13
39.820        13
39.830        80
39.840        40
39.850        53
39.860        27
39.870        40
39.880        53
39.890        13
39.900        13
39.910        13
39.920        27
39.930        13
39.940        13
39.950        40
39.960        53
39.970         0
39.980        27
39.990        40
40.000        67
40.010        27
40.020        27
40.030        40
40.040        13
40.050        27
40.060        13
40.070        13
40.080        40
40.090        13
40.100        40
40.110        27
40.120         0
40.130         0
40.140        53
40.150        27
40.160        40
40.170        13
40.180        13
40.190        40
40.200        27
40.210        40
40.220        27
40.230        40
40.240        27
40.250        53
40.260        40
40.270        13
40.280         0
40.290         0
40.300        67
40.310        27
40.320        53
40.330        40
40.340         0
40.350         0
40.360        27
40.370        40
40.380         0
40.390        13
40.400        40
40.410        40
40.420        40
40.430        27
40.440        27
40.450        13
40.460         0
40.470        27
40.480         0
40.490         0
40.500        13
40.510        13
40.520        13
40.530        13
40.540        13
40.550        27
40.560        40
40.570        40
40.580         0
40.590        13
40.600        27
40.610         0
40.620        13
40.630        13
40.640        13
40.650        27
40.660        13
40.670         0
40.680        27
40.690        13
40.700        40
40.710        27
40.720        27
40.730        13
40.740        13
40.750        27
40.760        13
40.770        27
40.780        27
40.790         0
40.800        27
40.810        13
40.820         0
40.830        13
40.840        53
40.850         0
40.860        53
40.870        27
40.880        40
40.890        80
40.900        53
40.910        40
40.920         0
40.930        27
40.940        27
40.950        53
40.960        13
40.970        53
40.980         0
40.990        13
41.000        27
41.010        27
41.020        27
41.030        13
41.040        13
41.050        53
41.060        67
41.070        13
41.080        13
41.090        13
41.100        13
41.110        27
41.120        13
41.130        27
41.140        40
41.150        13
41.160        27
41.170        40
41.180        13
41.190        40
41.200        27
41.210        53
41.220        27
41.230        53
41.240        53
41.250        13
41.260        80
41.270        13
41.280         0
41.290        53
41.300        27
41.310        13
41.320        53
41.330        53
41.340        27
41.350        40
41.360        80
41.370        13
41.380        13
41.390        67
41.400        27
41.410        13
41.420        40
41.430        13
41.440        13
41.450        40
41.460        27
41.470        40
41.480        40
41.490        27
41.500        27
41.510        67
41.520        27
41.530        13
41.540        40
41.550        53
41.560        13
41.570        40
41.580        27
41.590        27
41.600        13
41.610        40
41.620         0
41.630        13
41.640        27
41.650        13
41.660        13
41.670        27
41.680        40
41.690        13
41.700        13
41.710        13
41.720        13
41.730        13
41.740        40
41.750        40
41.760        67
41.770        67
41.780        40
41.790        40
41.800        27
41.810         0
41.820        27
41.830        13
41.840        13
41.850        27
41.860        13
41.870        27
41.880        13
41.890        13
41.900        27
41.910        40
41.920         0
41.930        13
41.940        27
41.950        53
41.960        13
41.970         0
41.980        13
41.990        13
42.000        40
42.010        27
42.020        27
42.030        27
42.040        27
42.050        13
42.060        27
42.070        27
42.080        53
42.090        53
42.100        40
42.110        13
42.120        40
42.130         0
42.140         0
42.150        13
42.160        13
42.170        13
42.180        40
42.190        27
42.200        27
42.210        13
42.220        40
42.230        40
42.240        53
42.250        27
42.260        13
42.270        40
42.280        40
42.290         0
42.300        27
42.310        13
42.320        13
42.330        27
42.340        13
42.350        53
42.360        13
42.370        40
42.380        53
42.390        40
42.400        13
42.410        13
42.420        27
42.430        40
42.440        13
42.450         0
42.460         0
42.470        67
42.480        40
42.490        13
42.500        13
42.510        13
42.520        13
42.530         0
42.540        13
42.550        53
42.560        13
42.570        13
42.580         0
42.590        27
42.600        27
42.610         0
42.620        53
42.630        27
42.640        27
42.650         0
42.660        13
42.670        40
42.680         0
42.690        40
42.700        13
42.710        13
42.720        13
42.730         0
42.740         0
42.750        27
42.760        13
42.770        40
42.780        80
42.790        53
42.800        27
42.810        27
42.820        67
42.830        13
42.840        53
42.850        27
42.860         0
42.870        40
42.880        13
42.890        27
42.900        40
42.910        13
42.920        13
42.930        27
42.940        27
42.950        40
42.960        13
42.970        67
42.980        27
42.990        40
43.000        27
43.010        27
43.020        13
43.030        27
43.040        40
43.050         0
43.060        13
43.070        40
43.080        13
43.090        13
43.100        13
43.110        27
43.120         0
43.130         0
43.140        13
43.150        40
43.160        53
43.170        53
43.180         0
43.190        40
43.200        13
43.210        27
43.220        80
43.230        53
43.240        40
43.250        40
43.260        27
43.270        53
43.280        27
43.290        53
43.300        13
43.310        13
43.320        13
43.330        67
43.340         0
43.350        53
43.360         0
43.370        40
43.380        13
43.390         0
43.400        13
43.410         0
43.420        27
43.430        27
43.440        27
43.450        13
43.460        40
43.470        27
43.480        40
43.490        27
43.500        40
43.510         0
43.520        13
43.530        40
43.540         0
43.550        40
43.560         0
43.570        27
43.580        13
43.590        27
43.600        67
43.610        13
43.620        40
43.630        13
43.640         0
43.650        67
43.660        40
43.670        27
43.680        27
43.690        27
43.700        40
43.710         0
43.720        13
43.730        27
43.740        40
43.750         0
43.760        53
43.770        27
43.780        27
43.790        13
43.800        27
43.810        13
43.820        67
43.830        13
43.840        67
43.850        27
43.860         0
43.870        13
43.880        40
43.890        27
43.900         0
43.910        67
43.920         0
43.930        53
43.940        40
43.950        40
43.960        13
43.970        27
43.980        67
43.990        13
44.000        27
44.010        40
44.020        27
44.030        27
44.040        40
44.050        53
44.060         0
44.070        67
44.080        40
44.090        27
44.100        27
44.110        40
44.120        27
44.130        93
44.140        13
44.150        80
44.160        53
44.170        80
44.180        40
44.190        53
44.200        27
44.210        40
44.220        40
44.230        53
44.240        53
44.250        53
44.260        40
44.270        40
44.280        67
44.290        53
44.300        27
44.310        40
44.320        13
44.330        40
44.340        27
44.350        53
44.360        27
44.370        13
44.380        53
44.390        53
44.400        53
44.410        93
44.420        13
44.430        13
44.440        67
44.450        13
44.460        27
44.470        67
44.480        27
44.490       133
44.500        53
44.510        53
44.520        40
44.530         0
44.540        67
44.550        80
44.560       107
44.570        53
44.580        67
44.590        53
44.600        67
44.610        27
44.620        80
44.630        40
44.640        80
44.650        40
44.660        27
44.670        67
44.680        27
44.690        53
44.700        80
44.710        67
44.720        93
44.730        67
44.740        80
44.750        93
44.760        93
44.770        80
44.780        53
44.790       107
44.800        93
44.810        67
44.820       107
44.830        93
44.840        13
44.850        80
44.860       147
44.870        53
44.880        93
44.890        53
44.900       120
44.910        67
44.920        80
44.930        53
44.940       107
44.950        80
44.960       120
44.970        93
44.980        67
44.990        80
45.000       107
45.010        67
45.020       107
45.030        53
45.040        67
45.050       147
45.060        67
45.070        67
45.080        93
45.090       133
45.100       187
45.110       120
45.120       147
45.130       147
45.140       120
45.150       120
45.160        53
45.170       200
45.180       160
45.190       107
45.200       147
45.210       147
45.220       133
45.230       280
45.240       200
45.250       120
45.260       160
45.270       147
45.280        67
45.290       120
45.300       187
45.310       147
45.320       147
45.330       240
45.340       227
45.350       267
45.360       213
45.370       280
45.380       187
45.390       173
45.400       267
45.410       320
45.420       320
45.430       240
45.440       240
45.450       333
45.460       267
45.470       160
45.480       227
45.490       307
45.500       480
45.510       453
45.520       373
45.530       320
45.540       466
45.550       453
45.560       400
45.570       320
45.580       293
45.590       426
45.600       426
45.610       440
45.620       440
45.630       360
45.640       560
45.650       533
45.660       520
45.670       413
45.680       680
45.690       586
45.700       560
45.710       600
45.720       626
45.730       840
45.740       693
45.750       613
45.760       826
45.770       826
45.780       880
45.790       653
45.800       573
45.810       866
45.820       760
45.830       973
45.840       880
45.850       986
45.860       800
45.870      1306
45.880      1080
45.890      1000
45.900      1040
45.910      1386
45.920      1266
45.930      1359
45.940      1146
45.950      1426
45.960      1279
45.970      1493
45.980      1359
45.990      1519
46.000      1386
46.010      1559
46.020      1613
46.030      1533
46.040      1546
46.050      1426
46.060      1573
46.070      1559
46.080      1626
46.090      1559
46.100      1386
46.110      1626
46.120      1679
46.130      1573
46.140      1626
46.150      1573
46.160      1773
46.170      1319
46.180      1399
46.190      1719
46.200      1519
46.210      1653
46.220      1839
46.230      1359
46.240      1439
46.250      1546
46.260      1413
46.270      1293
46.280      1453
46.290      1626
46.300      1533
46.310      1466
46.320      1426
46.330      1439
46.340      1493
46.350      1066
46.360      1306
46.370      1426
46.380      1200
46.390      1319
46.400      1293
46.410      1226
46.420      1040
46.430      1319
46.440      1066
46.450      1200
46.460      1146
46.470      1133
46.480      1133
46.490      1133
46.500      1040
46.510       746
46.520       826
46.530       653
46.540       960
46.550       880
46.560       853
46.570       853
46.580       920
46.590       600
46.600       706
46.610       706
46.620       573
46.630       693
46.640       680
46.650       573
46.660       586
46.670       546
46.680       453
46.690       560
46.700       533
46.710       466
46.720       426
46.730       640
46.740       373
46.750       520
46.760       506
46.770       320
46.780       400
46.790       293
46.800       253
46.810       253
46.820       280
46.830       213
46.840       267
46.850       333
46.860       293
46.870       227
46.880       200
46.890       267
46.900       213
46.910       360
46.920       373
46.930       160
46.940       373
46.950       280
46.960       333
46.970       240
46.980       307
46.990       253
47.000       293
47.010       227
47.020       267
47.030       293
47.040       227
47.050       120
47.060       187
47.070       187
47.080       267
47.090       267
47.100        93
47.110        67
47.120        93
47.130       133
47.140       187
47.150       107
47.160       227
47.170       107
47.180       133
47.190        67
47.200       187
47.210       133
47.220       120
47.230       147
47.240       133
47.250       107
47.260       187
47.270       173
47.280       173
47.290       133
47.300       133
47.310       173
47.320       120
47.330       120
47.340        80
47.350        53
47.360       133
47.370        93
47.380       147
47.390        40
47.400        80
47.410       120
47.420       107
47.430       133
47.440       147
47.450       133
47.460       107
47.470        53
47.480        93
47.490        93
47.500       107
47.510        53
47.520        80
47.530        93
47.540        80
47.550        67
47.560        40
47.570        93
47.580        80
47.590        67
47.600       107
47.610        67
47.620        93
47.630        67
47.640        80
47.650        13
47.660        53
47.670        80
47.680        13
47.690        67
47.700        80
47.710        80
47.720        53
47.730        53
47.740       147
47.750        53
47.760       133
47.770        13
47.780        80
47.790        53
47.800        27
47.810       120
47.820        53
47.830       107
47.840        40
47.850        67
47.860        67
47.870        13
47.880        67
47.890       107
47.900        80
47.910        53
47.920        67
47.930        67
47.940        13
47.950        13
47.960        93
47.970        67
47.980        27
47.990        53
48.000        27
48.010        13
48.020        53
48.030        53
48.040        27
48.050        80
48.060        40
48.070        13
48.080        13
48.090       107
48.100        53
48.110        27
48.120        27
48.130        80
48.140        80
48.150        67
48.160        67
48.170        27
48.180        27
48.190        53
48.200        93
48.210        93
48.220        53
48.230        13
48.240        67
48.250        13
48.260        40
48.270        27
48.280        27
48.290        80
48.300        53
48.310        27
48.320        80
48.330        27
48.340        40
48.350        40
48.360        53
48.370        27
48.380        27
48.390        40
48.400       107
48.410        40
48.420        67
48.430        13
48.440        53
48.450        40
48.460        40
48.470        27
48.480        40
48.490        40
48.500        13
48.510        40
48.520        13
48.530        13
48.540        27
48.550        40
48.560        53
48.570        67
48.580        67
48.590        40
48.600        40
48.610        40
48.620        80
48.630        67
48.640        13
48.650        40
48.660        40
48.670        27
48.680        13
48.690        27
48.700        40
48.710         0
48.720        13
48.730        53
48.740         0
48.750        80
48.760       107
48.770        40
48.780        13
48.790        40
48.800        67
48.810        93
48.820        13
48.830        27
48.840        13
48.850        13
48.860        27
48.870        40
48.880        53
48.890        67
48.900        53
48.910        27
48.920        53
48.930        40
48.940       107
48.950        67
48.960        40
48.970        13
48.980         0
48.990        27
49.000        13
49.010        27
49.020        53
49.030        27
49.040        40
49.050        13
49.060        40
49.070        27
49.080        53
49.090         0
49.100        53
49.110        13
49.120        13
49.130        40
49.140        13
49.150        27
49.160        13
49.170        13
49.180        40
49.190        40
49.200        13
49.210        27
49.220        53
49.230        27
49.240        67
49.250        40
49.260        27
49.270        13
49.280        13
49.290        27
49.300        53
49.310        40
49.320        40
49.330         0
49.340        27
49.350        27
49.360        13
49.370        27
49.380        27
49.390        80
49.400        13
49.410         0
49.420        40
49.430        67
49.440        27
49.450        53
49.460        13
49.470        27
49.480        40
49.490        13
49.500        27
49.510        93
49.520        40
49.530        27
49.540        67
49.550        40
49.560         0
49.570        13
49.580        40
49.590        53
49.600        27
49.610        27
49.620        80
49.630        67
49.640        13
49.650         0
49.660        27
49.670        40
49.680        53
49.690        67
49.700        40
49.710        27
49.720        27
49.730        53
49.740        13
49.750        53
49.760        67
49.770        40
49.780        13
49.790        53
49.800        40
49.810         0
49.820        27
49.830        40
49.840        13
49.850         0
49.860         0
49.870        13
49.880        27
49.890        53
49.900        40
49.910        40
49.920        13
49.930        13
49.940        27
49.950        40
49.960        80
49.970        40
49.980        27
49.990       107
50.000        53
50.010        40
50.020        53
50.030        53
50.040        27
50.050        13
50.060        27
50.070        80
50.080        13
50.090        67
50.100        53
50.110        27
50.120        27
50.130        27
50.140        53
50.150        27
50.160        27
50.170        53
50.180        40
50.190        13
50.200        40
50.210        67
50.220        27
50.230        40
50.240        13
50.250         0
50.260        40
50.270        13
50.280        27
50.290        13
50.300         0
50.310        40
50.320        53
50.330        40
50.340        13
50.350        27
50.360        27
50.370        27
50.380        53
50.390        53
50.400         0
50.410        13
50.420        27
50.430        80
50.440        13
50.450        13
50.460        53
50.470         0
50.480        40
50.490        53
50.500        27
50.510         0
50.520        27
50.530        13
50.540        13
50.550         0
50.560        27
50.570        13
50.580        53
50.590        40
50.600         0
50.610         0
50.620        80
50.630        27
50.640        53
50.650        40
50.660        80
50.670        13
50.680        40
50.690         0
50.700        40
50.710        27
50.720        80
50.730        27
50.740        13
50.750        27
50.760        13
50.770        13
50.780        27
50.790        27
50.800        27
50.810         0
50.820        40
50.830        13
50.840        80
50.850        27
50.860        13
50.870         0
50.880        13
50.890        67
50.900        40
50.910         0
50.920        53
50.930        80
50.940        13
50.950        53
50.960        27
50.970        93
50.980        27
50.990        53
51.000        67
51.010        40
51.020         0
51.030        53
51.040        27
51.050        40
51.060        27
51.070        13
51.080        27
51.090        27
51.100        13
51.110        67
51.120        67
51.130        67
51.140        40
51.150        53
51.160        40
51.170        27
51.180        40
51.190        40
51.200        13
51.210        13
51.220        40
51.230        53
51.240        13
51.250        53
51.260        40
51.270         0
51.280        13
51.290        40
51.300        13
51.310        27
51.320        67
51.330        13
51.340        27
51.350        27
51.360        53
51.370        27
51.380        27
51.390        53
51.400        27
51.410        67
51.420        13
51.430        27
51.440        53
51.450        27
51.460        13
51.470        40
51.480        27
51.490        27
51.500        40
51.510        40
51.520        40
51.530        80
51.540        53
51.550        13
51.560        13
51.570         0
51.580        27
51.590        53
51.600        40
51.610        27
51.620         0
51.630        80
51.640        40
51.650        13
51.660        67
51.670        27
51.680        40
51.690        13
51.700        53
51.710        67
51.720        27
51.730        53
51.740        53
51.750        40
51.760        40
51.770        40
51.780         0
51.790        13
51.800        13
51.810        13
51.820        53
51.830        40
51.840        27
51.850        40
51.860        67
51.870        67
51.880        53
51.890        40
51.900        13
51.910        40
51.920        80
51.930        27
51.940        13
51.950        53
51.960        40
51.970        40
51.980        27
51.990        67
52.000       107
52.010        93
52.020        27
52.030        53
52.040        40
52.050        80
52.060        53
52.070        53
52.080        13
52.090        53
52.100        53
52.110        27
52.120        40
52.130        40
52.140        13
52.150        40
52.160        40
52.170        80
52.180        40
52.190        67
52.200        13
52.210        40
52.220        40
52.230        27
52.240        27
52.250        13
52.260        27
52.270        40
52.280        27
52.290        27
52.300        80
52.310        40
52.320        53
52.330        40
52.340        13
52.350        27
52.360       133
52.370        80
52.380        27
52.390        67
52.400        53
52.410        80
52.420        67
52.430        40
52.440        27
52.450        53
52.460        53
52.470        40
52.480       107
52.490        93
52.500        67
52.510        53
52.520        40
52.530        53
52.540       107
52.550        67
52.560       107
52.570        67
52.580        93
52.590        13
52.600        40
52.610        80
52.620       120
52.630        93
52.640        80
52.650        67
52.660        27
52.670        67
52.680       107
52.690        40
52.700       147
52.710        67
52.720        93
52.730        53
52.740        67
52.750        40
52.760        67
52.770       133
52.780        53
52.790        67
52.800        40
52.810        27
52.820        67
52.830        80
52.840        67
52.850        40
52.860        67
52.870        53
52.880        40
52.890        27
52.900        40
52.910        80
52.920        67
52.930        40
52.940        40
52.950        93
52.960        27
52.970        80
52.980        53
52.990         0
53.000        13
53.010        27
53.020        53
53.030        27
53.040        13
53.050        13
53.060        80
53.070        13
53.080        27
53.090        27
53.100        13
53.110        13
53.120        27
53.130        27
53.140        53
53.150        93
53.160        40
53.170        67
53.180        13
53.190         0
53.200        13
53.210        80
53.220        40
53.230        53
53.240        27
53.250        67
53.260        27
53.270         0
53.280        40
53.290        40
53.300        27
53.310        27
53.320        40
53.330        27
53.340        27
53.350        53
53.360        53
53.370         0
53.380        53
53.390        27
53.400        13
53.410        40
53.420        27
53.430        40
53.440        27
53.450        40
53.460        27
53.470        40
53.480        13
53.490        40
53.500        27
53.510        27
53.520        13
53.530        13
53.540        27
53.550        27
53.560        13
53.570        27
53.580        40
53.590        27
53.600        27
53.610         0
53.620        40
53.630        53
53.640        40
53.650        13
53.660        53
53.670        40
53.680        27
53.690         0
53.700        40
53.710        13
53.720        27
53.730        53
53.740        53
53.750        13
53.760        93
53.770         0
53.780        13
53.790        40
53.800        40
53.810        27
53.820        27
53.830        27
53.840         0
53.850        27
53.860        53
53.870        13
53.880        40
53.890        27
53.900        53
53.910        40
53.920        40
53.930         0
53.940        27
53.950        27
53.960        27
53.970        27
53.980         0
53.990         0
54.000        27
54.010        53
54.020        27
54.030        27
54.040        27
54.050        27
54.060        13
54.070        13
54.080        53
54.090        13
54.100        40
54.110         0
54.120        40
54.130        13
54.140        27
54.150        27
54.160         0
54.170        40
54.180        40
54.190        27
54.200        53
54.210        13
54.220        27
54.230        27
54.240        13
54.250         0
54.260         0
54.270        27
54.280        27
54.290         0
54.300        67
54.310        13
54.320        13
54.330        27
54.340         0
54.350         0
54.360        53
54.370        40
54.380        13
54.390        40
54.400        27
54.410        13
54.420        40
54.430        40
54.440        27
54.450        13
54.460        13
54.470        13
54.480        27
54.490        53
54.500        53
54.510        53
54.520         0
54.530        40
54.540        27
54.550        40
54.560        13
54.570         0
54.580         0
54.590        67
54.600        27
54.610        27
54.620        27
54.630         0
54.640        13
54.650        13
54.660        13
54.670        40
54.680        40
54.690        40
54.700        13
54.710        40
54.720         0
54.730        13
54.740        27
54.750        13
54.760        13
54.770        40
54.780        13
54.790         0
54.800        40
54.810         0
54.820        13
54.830        53
54.840        80
54.850        13
54.860        27
54.870        27
54.880        53
54.890        27
54.900        13
54.910        53
54.920         0
54.930        13
54.940        27
54.950         0
54.960        40
54.970        53
54.980        27
54.990        27
55.000        67
55.010        27
55.020        13
55.030         0
55.040        13
55.050        40
55.060        27
55.070         0
55.080        40
55.090        27
55.100         0
55.110        40
55.120        13
55.130        27
55.140        67
55.150        13
55.160        40
55.170         0
55.180        40
55.190        27
55.200        40
55.210        13
55.220        27
55.230        13
55.240        27
55.250        27
55.260        27
55.270         0
55.280        13
55.290        40
55.300        40
55.310        13
55.320        27
55.330        13
55.340        13
55.350        67
55.360        13
55.370        27
55.380        13
55.390        40
55.400        13
55.410        13
55.420        27
55.430         0
55.440        53
55.450         0
55.460        27
55.470        53
55.480        27
55.490        40
55.500        27
55.510         0
55.520        40
55.530        27
55.540        40
55.550        13
55.560        27
55.570        27
55.580        40
55.590        27
55.600        40
55.610        13
55.620         0
55.630        27
55.640        13
55.650         0
55.660        40
55.670        27
55.680        13
55.690        53
55.700        13
55.710        13
55.720        13
55.730         0
55.740         0
55.750         0
55.760        40
55.770        67
55.780        27
55.790        13
55.800         0
55.810         0
55.820         0
55.830        67
55.840        27
55.850        53
55.860        27
55.870        13
55.880        13
55.890        13
55.900         0
55.910        13
55.920        27
55.930        27
55.940         0
55.950        40
55.960        40
55.970        13
55.980        40
55.990        13
56.000        27
56.010         0
56.020        13
56.030        40
56.040        27
56.050         0
56.060         0
56.070         0
56.080        53
56.090        53
56.100         0
56.110        13
56.120        27
56.130        40
56.140        53
56.150        27
56.160        27
56.170        27
56.180         0
56.190        27
56.200        40
56.210        27
56.220         0
56.230        27
56.240        40
56.250        40
56.260        27
56.270        40
56.280        13
56.290        13
56.300        13
56.310        27
56.320        40
56.330        40
56.340         0
56.350        27
56.360         0
56.370         0
56.380        27
56.390         0
56.400        13
56.410         0
56.420        40
56.430         0
56.440         0
56.450        27
56.460        27
56.470        40
56.480        13
56.490        13
56.500        27
56.510        40
56.520        13
56.530         0
56.540         0
56.550         0
56.560        53
56.570        27
56.580        13
56.590        27
56.600        13
56.610        13
56.620         0
56.630         0
56.640        13
56.650        13
56.660        27
56.670         0
56.680        27
56.690         0
56.700         0
56.710        13
56.720         0
56.730        13
56.740        40
56.750        27
56.760        40
56.770        40
56.780        40
56.790        13
56.800        13
56.810         0
56.820        13
56.830        13
56.840        53
56.850        27
56.860         0
56.870        27
56.880        27
56.890         0
56.900        27
56.910        40
56.920        40
56.930        27
56.940        13
56.950        13
56.960        40
56.970         0
56.980        27
56.990        40
57.000        27
57.010         0
57.020        53
57.030         0
57.040        13
57.050        27
57.060         0
57.070        13
57.080        13
57.090        27
57.100        40
57.110        27
57.120        13
57.130        27
57.140        13
57.150        13
57.160        27
57.170        40
57.180         0
57.190        27
57.200        27
57.210        27
57.220        13
57.230        27
57.240        40
57.250        40
57.260        40
57.270         0
57.280        13
57.290        53
57.300        13
57.310        27
57.320        27
57.330        13
57.340        27
57.350         0
57.360        40
57.370        27
57.380        27
57.390        13
57.400        13
57.410        80
57.420        40
57.430        53
57.440        40
57.450        80
57.460        13
57.470        13
57.480        27
57.490        27
57.500        27
57.510        13
57.520        13
57.530         0
57.540        53
57.550        13
57.560        40
57.570        13
57.580        13
57.590        27
57.600         0
57.610         0
57.620        13
57.630         0
57.640        13
57.650        13
57.660        13
57.670         0
57.680         0
57.690        53
57.700         0
57.710        27
57.720         0
57.730        27
57.740         0
57.750        13
57.760        13
57.770        40
57.780        53
57.790        13
57.800        13
57.810        13
57.820        27
57.830        13
57.840         0
57.850        13
57.860        27
57.870        27
57.880        27
57.890        27
57.900        80
57.910         0
57.920        13
57.930        13
57.940        40
57.950        13
57.960        13
57.970        13
57.980        27
57.990         0
58.000        27
58.010         0
58.020        40
58.030        27
58.040        27
58.050        40
58.060        13
58.070        40
58.080        27
58.090         0
58.100        27
58.110        13
58.120        13
58.130         0
58.140        13
58.150         0
58.160        53
58.170        53
58.180         0
58.190        13
58.200         0
58.210        40
58.220        13
58.230        27
58.240        13
58.250        27
58.260         0
58.270        13
58.280        27
58.290        40
58.300        27
58.310        13
58.320        13
58.330        27
58.340        13
58.350        13
58.360         0
58.370        80
58.380        13
58.390        13
58.400        13
58.410        40
58.420        80
58.430        53
58.440         0
58.450        27
58.460        67
58.470        13
58.480        13
58.490        13
58.500         0
58.510        13
58.520        13
58.530        13
58.540        13
58.550         0
58.560         0
58.570         0
58.580        13
58.590        13
58.600        13
58.610        27
58.620        27
58.630        13
58.640        13
58.650        13
58.660        13
58.670        13
58.680         0
58.690        40
58.700         0
58.710        13
58.720        27
58.730        40
58.740        13
58.750        27
58.760        27
58.770        13
58.780        53
58.790         0
58.800        27
58.810        27
58.820        13
58.830        13
58.840        40
58.850         0
58.860        53
58.870        13
58.880        40
58.890        27
58.900         0
58.910        40
58.920         0
58.930         0
58.940        13
58.950         0
58.960        27
58.970        13
58.980        53
58.990        13
59.000        13
59.010        13
59.020         0
59.030        27
59.040        13
59.050        27
59.060        13
59.070        13
59.080        13
59.090        13
59.100        27
59.110         0
59.120         0
59.130        27
59.140        53
59.150         0
59.160        13
59.170        40
59.180        40
59.190        40
59.200        27
59.210        13
59.220         0
59.230        27
59.240        13
59.250        13
59.260         0
59.270         0
59.280        27
59.290        13
59.300         0
59.310        13
59.320        40
59.330         0
59.340        40
59.350        13
59.360         0
59.370        27
59.380        13
59.390         0
59.400        53
59.410        13
59.420         0
59.430         0
59.440        40
59.450        13
59.460        13
59.470        27
59.480        27
59.490         0
59.500        27
59.510         0
59.520         0
59.530        13
59.540        13
59.550        27
59.560        13
59.570         0
59.580         0
59.590        13
59.600         0
59.610        13
59.620         0
59.630        13
59.640        40
59.650         0
59.660        53
59.670         0
59.680        13
59.690        13
59.700         0
59.710        27
59.720         0
59.730         0
59.740        13
59.750        13
59.760        13
59.770        27
59.780        13
59.790         0
59.800         0
59.810        27
59.820         0
59.830        27
59.840        13
59.850        27
59.860        27
59.870        40
59.880        27
59.890         0
59.900        13
59.910        13
59.920        27
59.930         0
59.940        13
59.950        13
59.960        27
59.970        13
59.980         0
59.990         0
60.000         0
