20.000        33
20.010        33
20.020       100
20.030        87
20.040       120
20.050       147
20.060       127
20.070        93
20.080       107
20.090       107
20.100        60
20.110       113
20.120       107
20.130       120
20.140        93
20.150       100
20.160       100
20.170        87
20.180       113
20.190        80
20.200       140
20.210        33
20.220        53
20.230        93
20.240       100
20.250       113
20.260        80
20.270       100
20.280        87
20.290       100
20.300        87
20.310        93
20.320       133
20.330        80
20.340        93
20.350       100
20.360       107
20.370       147
20.380        87
20.390        53
20.400        60
20.410        80
20.420       193
20.430        87
20.440       100
20.450        67
20.460        87
20.470        93
20.480        87
20.490       107
20.500       160
20.510        87
20.520       100
20.530        67
20.540        87
20.550       120
20.560        80
20.570        87
20.580       113
20.590        47
20.600        87
20.610       127
20.620       120
20.630       120
20.640       120
20.650       107
20.660        80
20.670        93
20.680       127
20.690        80
20.700        87
20.710       107
20.720       127
20.730       167
20.740       160
20.750       107
20.760        60
20.770       127
20.780       113
20.790       100
20.800       120
20.810       100
20.820        80
20.830       120
20.840        87
20.850        87
20.860       113
20.870        80
20.880        87
20.890       107
20.900       147
20.910        87
20.920        80
20.930       127
20.940       120
20.950       100
20.960       127
20.970       120
20.980        93
20.990       107
21.000        73
21.010       147
21.020        87
21.030       173
21.040        73
21.050        80
21.060        53
21.070       100
21.080        53
21.090       107
21.100        73
21.110       127
21.120       100
21.130       120
21.140        73
21.150        87
21.160        80
21.170        80
21.180        87
21.190       100
21.200        80
21.210       113
21.220       140
21.230        67
21.240        67
21.250       107
21.260       127
21.270        87
21.280       120
21.290        87
21.300        73
21.310       120
21.320       140
21.330       113
21.340       100
21.350        67
21.360        93
21.370        93
21.380        87
21.390        93
21.400       100
21.410       100
21.420        93
21.430        73
21.440       113
21.450        60
21.460       127
21.470       107
21.480       133
21.490       100
21.500        93
21.510       127
21.520        60
21.530        93
21.540       127
21.550       133
21.560        80
21.570       100
21.580        93
21.590       120
21.600        80
21.610       100
21.620        87
21.630       160
21.640       113
21.650        60
21.660        73
21.670       107
21.680       107
21.690       100
21.700       100
21.710       113
21.720        93
21.730       140
21.740        93
21.750       127
21.760        93
21.770       140
21.780        87
21.790        80
21.800        93
21.810       107
21.820        87
21.830       100
21.840       127
21.850       133
21.860        60
21.870       140
21.880       100
21.890       107
21.900        67
21.910       133
21.920        87
21.930       107
21.940       153
21.950       113
21.960       147
21.970       113
21.980       147
21.990       127
22.000       120
22.010        93
22.020       113
22.030       180
22.040        93
22.050       147
22.060       140
22.070       113
22.080        93
22.090       147
22.100       140
22.110       153
22.120       180
22.130        87
22.140       160
22.150        87
22.160       173
22.170       113
22.180       167
22.190       113
22.200       127
22.210       107
22.220       187
22.230       113
22.240       120
22.250       133
22.260       113
22.270       120
22.280       120
22.290       113
22.300       167
22.310       127
22.320       167
22.330       167
22.340       147
22.350       113
22.360       133
22.370       107
22.380       220
22.390       153
22.400       113
22.410       120
22.420       220
22.430       153
22.440       193
22.450       127
22.460       120
22.470       140
22.480       153
22.490       160
22.500       147
22.510       153
22.520       127
22.530       133
22.540       180
22.550       153
22.560       167
22.570       200
22.580       127
22.590       127
22.600       160
22.610       180
22.620       140
22.630       127
22.640       193
22.650       113
22.660       100
22.670       180
22.680       147
22.690       147
22.700       153
22.710       107
22.720       173
22.730       200
22.740       167
22.750       107
22.760       187
22.770       167
22.780       153
22.790       167
22.800       180
22.810       140
22.820       120
22.830       167
22.840       187
22.850       193
22.860       187
22.870       200
22.880       147
22.890       220
22.900       207
22.910       267
22.920       267
22.930       220
22.940       267
22.950       287
22.960       327
22.970       273
22.980       273
22.990       247
23.000       240
23.010       300
23.020       260
23.030       227
23.040       220
23.050       287
23.060       380
23.070       633
23.080      1053
23.090      1333
23.100      1459
23.110      1613
23.120      1633
23.130      1699
23.140      1599
23.150      1186
23.160       820
23.170       553
23.180       353
23.190       353
23.200       300
23.210       320
23.220       313
23.230       227
23.240       193
23.250       300
23.260       213
23.270       193
23.280       147
23.290       200
23.300       173
23.310       180
23.320       140
23.330       233
23.340       120
23.350       193
23.360       153
23.370       140
23.380       153
23.390       207
23.400       180
23.410       193
23.420       187
23.430       193
23.440       207
23.450       207
23.460       193
23.470       247
23.480       133
23.490       213
23.500       193
23.510       187
23.520       193
23.530       147
23.540       227
23.550       147
23.560       153
23.570       180
23.580       207
23.590       187
23.600       193
23.610       180
23.620       227
23.630       160
23.640       153
23.650       187
23.660       200
23.670       173
23.680       187
23.690       193
23.700       180
23.710       187
23.720       193
23.730       180
23.740       153
23.750       193
23.760       167
23.770       160
23.780       127
23.790       180
23.800       207
23.810       167
23.820       200
23.830       127
23.840       180
23.850       233
23.860       180
23.870       160
23.880       147
23.890       173
23.900       200
23.910       193
23.920       180
23.930       167
23.940        93
23.950       133
23.960       140
23.970       260
23.980       200
23.990       153
24.000       200
24.010       200
24.020       140
24.030       107
24.040       180
24.050       160
24.060       187
24.070       240
24.080       120
24.090       147
24.100       220
24.110       127
24.120       200
24.130       200
24.140       180
24.150       180
24.160       193
24.170       160
24.180       147
24.190       153
24.200       153
24.210       133
24.220       160
24.230       167
24.240       200
24.250       153
24.260       147
24.270       140
24.280       240
24.290       153
24.300       173
24.310       113
24.320       180
24.330       160
24.340       160
24.350       207
24.360       247
24.370       140
24.380       200
24.390       193
24.400       187
24.410       233
24.420       160
24.430       180
24.440       173
24.450       193
24.460       153
24.470       167
24.480       180
24.490       153
24.500       213
24.510       247
24.520       153
24.530       207
24.540       220
24.550       200
24.560       173
24.570       147
24.580       227
24.590       193
24.600       213
24.610       173
24.620       180
24.630       260
24.640       227
24.650       193
24.660       167
24.670       260
24.680       293
24.690       347
24.700       227
24.710       347
24.720       360
24.730       473
24.740       533
24.750       620
24.760       640
24.770       646
24.780       726
24.790       800
24.800       726
24.810       886
24.820       813
24.830       713
24.840       780
24.850       773
24.860       680
24.870       806
24.880       753
24.890       766
24.900       793
24.910       833
24.920       733
24.930       800
24.940       746
24.950       673
24.960       793
24.970       686
24.980       740
24.990       800
25.000       873
25.010       866
25.020       813
25.030       746
25.040       926
25.050       793
25.060      1000
25.070       746
25.080       726
25.090       746
25.100       853
25.110       786
25.120       886
25.130       760
25.140       953
25.150       853
25.160       753
25.170       726
25.180       840
25.190       860
25.200       866
25.210       993
25.220      1046
25.230      1006
25.240      1006
25.250       993
25.260      1040
25.270       940
25.280      1113
25.290      1100
25.300      1020
25.310      1113
25.320      1000
25.330      1286
25.340      1106
25.350      1206
25.360      1386
25.370      1659
25.380      1779
25.390      2686
25.400      2939
25.410      3525
25.420      4338
25.430      5091
25.440      6064
25.450      6337
25.460      7970
25.470      8717
25.480      9183
25.490     10356
25.500     11136
25.510     11875
25.520     12941
25.530     14308
25.540     15767
25.550     19619
25.560     29881
25.570     54365
25.580     89058
25.590    125616
25.600    146441
25.610    157170
25.620    160936
25.630    164827
25.640    165467
25.650    157097
25.660    137172
25.670    117080
25.680    105185
25.690     99987
25.700     95095
25.710     81034
25.720     61649
25.730     39644
25.740     24544
25.750     16507
25.760     12108
25.770     10189
25.780      8403
25.790      6851
25.800      5804
25.810      4818
25.820      4078
25.830      3425
25.840      3265
25.850      2612
25.860      2292
25.870      1833
25.880      1653
25.890      1619
25.900      1486
25.910      1346
25.920      1379
25.930      1366
25.940      1299
25.950      1053
25.960       986
25.970      1180
25.980      1106
25.990       973
26.000       873
26.010       993
26.020       906
26.030       953
26.040      1026
26.050       946
26.060       866
26.070       886
26.080       860
26.090       820
26.100       773
26.110       806
26.120       853
26.130       740
26.140       840
26.150       920
26.160       860
26.170       820
26.180       766
26.190       846
26.200       633
26.210       806
26.220       786
26.230       813
26.240       606
26.250       786
26.260       766
26.270       806
26.280       726
26.290       780
26.300       833
26.310       713
26.320       653
26.330       653
26.340       613
26.350       706
26.360       706
26.370       746
26.380       620
26.390       760
26.400       686
26.410       713
26.420       646
26.430       540
26.440       613
26.450       733
26.460       500
26.470       706
26.480       626
26.490       593
26.500       520
26.510       646
26.520       653
26.530       613
26.540       553
26.550       600
26.560       613
26.570       586
26.580       500
26.590       580
26.600       480
26.610       666
26.620       646
26.630       660
26.640       660
26.650       526
26.660       540
26.670       600
26.680       560
26.690       553
26.700       640
26.710       586
26.720       660
26.730       600
26.740       600
26.750       520
26.760       593
26.770       626
26.780       620
26.790       633
26.800       453
26.810       493
26.820       600
26.830       473
26.840       493
26.850       493
26.860       660
26.870       460
26.880       480
26.890       553
26.900       573
26.910       606
26.920       520
26.930       533
26.940       540
26.950       593
26.960       646
26.970       520
26.980       653
26.990       526
27.000       526
27.010       546
27.020       573
27.030       606
27.040       560
27.050       446
27.060       460
27.070       493
27.080       466
27.090       506
27.100       486
27.110       493
27.120       513
27.130       426
27.140       540
27.150       493
27.160       433
27.170       513
27.180       486
27.190       533
27.200       480
27.210       486
27.220       506
27.230       433
27.240       546
27.250       533
27.260       500
27.270       553
27.280       453
27.290       407
27.300       626
27.310       513
27.320       500
27.330       486
27.340       520
27.350       433
27.360       493
27.370       433
27.380       526
27.390       440
27.400       420
27.410       400
27.420       466
27.430       426
27.440       373
27.450       393
27.460       520
27.470       493
27.480       533
27.490       473
27.500       433
27.510       480
27.520       433
27.530       506
27.540       553
27.550       480
27.560       480
27.570       533
27.580       440
27.590       373
27.600       486
27.610       560
27.620       460
27.630       413
27.640       426
27.650       493
27.660       340
27.670       560
27.680       420
27.690       500
27.700       480
27.710       566
27.720       373
27.730       466
27.740       440
27.750       420
27.760       540
27.770       520
27.780       486
27.790       460
27.800       380
27.810       500
27.820       486
27.830       400
27.840       573
27.850       367
27.860       540
27.870       553
27.880       453
27.890       426
27.900       520
27.910       420
27.920       560
27.930       473
27.940       480
27.950       373
27.960       486
27.970       453
27.980       486
27.990       433
28.000       453
28.010       446
28.020       446
28.030       460
28.040       426
28.050       440
28.060       446
28.070       493
28.080       440
28.090       446
28.100       460
28.110       486
28.120       533
28.130       413
28.140       407
28.150       473
28.160       426
28.170       426
28.180       446
28.190       420
28.200       500
28.210       387
28.220       433
28.230       440
28.240       440
28.250       446
28.260       393
28.270       407
28.280       340
28.290       493
28.300       493
28.310       407
28.320       440
28.330       387
28.340       453
28.350       473
28.360       440
28.370       453
28.380       420
28.390       433
28.400       473
28.410       426
28.420       493
28.430       433
28.440       520
28.450       380
28.460       560
28.470       453
28.480       493
28.490       407
28.500       353
28.510       380
28.520       573
28.530       493
28.540       520
28.550       420
28.560       493
28.570       393
28.580       446
28.590       586
28.600       513
28.610       606
28.620       566
28.630       506
28.640       473
28.650       560
28.660       506
28.670       613
28.680       606
28.690       620
28.700       600
28.710       673
28.720       546
28.730       506
28.740       646
28.750       660
28.760       626
28.770       800
28.780       640
28.790       713
28.800       640
28.810       653
28.820       766
28.830       740
28.840       660
28.850       646
28.860       666
28.870       760
28.880       740
28.890       680
28.900       786
28.910       680
28.920       613
28.930       813
28.940       793
28.950       726
28.960       686
28.970       626
28.980       653
28.990       586
29.000       566
29.010       580
29.020       560
29.030       533
29.040       666
29.050       446
29.060       526
29.070       540
29.080       553
29.090       513
29.100       606
29.110       493
29.120       613
29.130       546
29.140       620
29.150       513
29.160       573
29.170       586
29.180       460
29.190       420
29.200       500
29.210       420
29.220       340
29.230       493
29.240       453
29.250       413
29.260       380
29.270       413
29.280       393
29.290       540
29.300       500
29.310       426
29.320       453
29.330       460
29.340       420
29.350       347
29.360       440
29.370       360
29.380       426
29.390       313
29.400       360
29.410       307
29.420       526
29.430       460
29.440       340
29.450       320
29.460       367
29.470       293
29.480       420
29.490       433
29.500       347
29.510       333
29.520       373
29.530       373
29.540       300
29.550       400
29.560       287
29.570       433
29.580       347
29.590       367
29.600       486
29.610       353
29.620       446
29.630       400
29.640       360
29.650       486
29.660       353
29.670       287
29.680       373
29.690       380
29.700       380
29.710       327
29.720       400
29.730       393
29.740       433
29.750       353
29.760       333
29.770       367
29.780       353
29.790       393
29.800       307
29.810       327
29.820       300
29.830       333
29.840       380
29.850       407
29.860       293
29.870       373
29.880       300
29.890       353
29.900       380
29.910       320
29.920       420
29.930       347
29.940       426
29.950       273
29.960       367
29.970       260
29.980       313
29.990       340
30.000       320
30.010       347
30.020       307
30.030       327
30.040       380
30.050       260
30.060       247
30.070       360
30.080       387
30.090       313
30.100       400
30.110       340
30.120       367
30.130       327
30.140       400
30.150       300
30.160       360
30.170       280
30.180       340
30.190       360
30.200       213
30.210       367
30.220       267
30.230       380
30.240       327
30.250       320
30.260       320
30.270       293
30.280       347
30.290       260
30.300       307
30.310       353
30.320       307
30.330       273
30.340       320
30.350       247
30.360       253
30.370       280
30.380       327
30.390       307
30.400       307
30.410       327
30.420       280
30.430       300
30.440       280
30.450       267
30.460       287
30.470       320
30.480       233
30.490       300
30.500       313
30.510       267
30.520       320
30.530       207
30.540       307
30.550       340
30.560       260
30.570       327
30.580       353
30.590       347
30.600       267
30.610       367
30.620       247
30.630       407
30.640       353
30.650       273
30.660       313
30.670       240
30.680       340
30.690       320
30.700       300
30.710       320
30.720       313
30.730       293
30.740       287
30.750       320
30.760       367
30.770       367
30.780       227
30.790       347
30.800       280
30.810       300
30.820       293
30.830       320
30.840       293
30.850       273
30.860       287
30.870       340
30.880       333
30.890       327
30.900       333
30.910       267
30.920       327
30.930       273
30.940       293
30.950       280
30.960       307
30.970       267
30.980       313
30.990       293
31.000       313
31.010       287
31.020       320
31.030       393
31.040       340
31.050       267
31.060       253
31.070       207
31.080       253
31.090       327
31.100       333
31.110       333
31.120       293
31.130       407
31.140       260
31.150       267
31.160       253
31.170       333
31.180       307
31.190       327
31.200       233
31.210       227
31.220       300
31.230       327
31.240       287
31.250       293
31.260       227
31.270       340
31.280       267
31.290       240
31.300       247
31.310       280
31.320       287
31.330       180
31.340       227
31.350       207
31.360       233
31.370       260
31.380       280
31.390       233
31.400       340
31.410       247
31.420       313
31.430       213
31.440       193
31.450       200
31.460       180
31.470       240
31.480       307
31.490       240
31.500       287
31.510       193
31.520       193
31.530       247
31.540       293
31.550       280
31.560       320
31.570       227
31.580       313
31.590       213
31.600       253
31.610       167
31.620       253
31.630       253
31.640       213
31.650       193
31.660       273
31.670       327
31.680       173
31.690       260
31.700       260
31.710       233
31.720       347
31.730       173
31.740       207
31.750       253
31.760       233
31.770       187
31.780       207
31.790       153
31.800       227
31.810       273
31.820       260
31.830       207
31.840       267
31.850       180
31.860       267
31.870       347
31.880       233
31.890       287
31.900       260
31.910       233
31.920       240
31.930       213
31.940       293
31.950       207
31.960       280
31.970       153
31.980       247
31.990       260
32.000       227
32.010       320
32.020       280
32.030       247
32.040       180
32.050       180
32.060       173
32.070       273
32.080       200
32.090       220
32.100       200
32.110       207
32.120       213
32.130       253
32.140       253
32.150       207
32.160       193
32.170       247
32.180       233
32.190       233
32.200       227
32.210       247
32.220       220
32.230       287
32.240       227
32.250       267
32.260       180
32.270       173
32.280       193
32.290       200
32.300       227
32.310       233
32.320       260
32.330       227
32.340       220
32.350       273
32.360       173
32.370       200
32.380       207
32.390       240
32.400       220
32.410       173
32.420       260
32.430       247
32.440       267
32.450       167
32.460       313
32.470       213
32.480       327
32.490       220
32.500       233
32.510       220
32.520       180
32.530       247
32.540       213
32.550       307
32.560       200
32.570       280
32.580       247
32.590       253
32.600       200
32.610       193
32.620       187
32.630       320
32.640       307
32.650       220
32.660       247
32.670       227
32.680       187
32.690       313
32.700       173
32.710       207
32.720       193
32.730       213
32.740       253
32.750       173
32.760       240
32.770       180
32.780       200
32.790       220
32.800       187
32.810       193
32.820       213
32.830       227
32.840       113
32.850       160
32.860       220
32.870       220
32.880       227
32.890       133
32.900       153
32.910       213
32.920       173
32.930       173
32.940       227
32.950       233
32.960       147
32.970       153
32.980       173
32.990       253
33.000       220
33.010       213
33.020       207
33.030       173
33.040       240
33.050       207
33.060       173
33.070       133
33.080       220
33.090       187
33.100       220
33.110       120
33.120       153
33.130       233
33.140       207
33.150       140
33.160       213
33.170       193
33.180       173
33.190       220
33.200       180
33.210       253
33.220       213
33.230       160
33.240       180
33.250       160
33.260       187
33.270       160
33.280       173
33.290       160
33.300       113
33.310       113
33.320       160
33.330       193
33.340       173
33.350       220
33.360       167
33.370       173
33.380       207
33.390       160
33.400       140
33.410       133
33.420       173
33.430       127
33.440       233
33.450       160
33.460       167
33.470       133
33.480       173
33.490       113
33.500       153
33.510       193
33.520       153
33.530       227
33.540       140
33.550       120
33.560       267
33.570       213
33.580       167
33.590       153
33.600       133
33.610       140
33.620       127
33.630       127
33.640       120
33.650       160
33.660       133
33.670       173
33.680       147
33.690       253
33.700       133
33.710       160
33.720       167
33.730       180
33.740       160
33.750       140
33.760       213
33.770       167
33.780       107
33.790       140
33.800       147
33.810       220
33.820       160
33.830       133
33.840       107
33.850       127
33.860       120
33.870       140
33.880       193
33.890       153
33.900       160
33.910       113
33.920       160
33.930       147
33.940       147
33.950       167
33.960       133
33.970       140
33.980       133
33.990       100
34.000       133
34.010       220
34.020        80
34.030       147
34.040       120
34.050       153
34.060       167
34.070       127
34.080       120
34.090       207
34.100       113
34.110       160
34.120       120
34.130       140
34.140       160
34.150        73
34.160       167
34.170       107
34.180       147
34.190       207
34.200        80
34.210       147
34.220       193
34.230       120
34.240       160
34.250       100
34.260       107
34.270       140
34.280       133
34.290        67
34.300       107
34.310       133
34.320       113
34.330       173
34.340       153
34.350       140
34.360       147
34.370       187
34.380       100
34.390        87
34.400       160
34.410       107
34.420       140
34.430       140
34.440       180
34.450       147
34.460       207
34.470       153
34.480       133
34.490       120
34.500       100
34.510       113
34.520       167
34.530       127
34.540       133
34.550       153
34.560       167
34.570       160
34.580       107
34.590       100
34.600       113
34.610       160
34.620       173
34.630       153
34.640       120
34.650       113
34.660       113
34.670       100
34.680       120
34.690       147
34.700        93
34.710       140
34.720       180
34.730       127
34.740       160
34.750       120
34.760        93
34.770       107
34.780       160
34.790       153
34.800       140
34.810       113
34.820       133
34.830       220
34.840       147
34.850       113
34.860       160
34.870       107
34.880       153
34.890       133
34.900       107
34.910       147
34.920       160
34.930       187
34.940       153
34.950       153
34.960       113
34.970       120
34.980        87
34.990       213
35.000       173
35.010        87
35.020       167
35.030       140
35.040       160
35.050       107
35.060       120
35.070       113
35.080       167
35.090       113
35.100       153
35.110       193
35.120       107
35.130       187
35.140       167
35.150        93
35.160       107
35.170       113
35.180       120
35.190       113
35.200        73
35.210       120
35.220        73
35.230       133
35.240       120
35.250       133
35.260       120
35.270       120
35.280       140
35.290       100
35.300       180
35.310       113
35.320       160
35.330       160
35.340       100
35.350       160
35.360       140
35.370       133
35.380        93
35.390       173
35.400       100
35.410       113
35.420       160
35.430       120
35.440       120
35.450       100
35.460       127
35.470       153
35.480       133
35.490       160
35.500       120
35.510        60
35.520        87
35.530       120
35.540       133
35.550        93
35.560       127
35.570       107
35.580        93
35.590       107
35.600       160
35.610       127
35.620       153
35.630        67
35.640        93
35.650       100
35.660       100
35.670        93
35.680        93
35.690        93
35.700       147
35.710       153
35.720       140
35.730        80
35.740       100
35.750        87
35.760       147
35.770       153
35.780       120
35.790       100
35.800       160
35.810       113
35.820       100
35.830       167
35.840       147
35.850       100
35.860       147
35.870       127
35.880       127
35.890       100
35.900       100
35.910       113
35.920        87
35.930       113
35.940       100
35.950       127
35.960       107
35.970       107
35.980        93
35.990       133
36.000       113
36.010        93
36.020       100
36.030       147
36.040       113
36.050        87
36.060       127
36.070       100
36.080       107
36.090       100
36.100        80
36.110       107
36.120        87
36.130       153
36.140        80
36.150       100
36.160       100
36.170       127
36.180       107
36.190       140
36.200        93
36.210       113
36.220       127
36.230       107
36.240       107
36.250       153
36.260       107
36.270        87
36.280       147
36.290        87
36.300        93
36.310       107
36.320       147
36.330       133
36.340       127
36.350       120
36.360       113
36.370       140
36.380       100
36.390       120
36.400        93
36.410       113
36.420        80
36.430       107
36.440        87
36.450       140
36.460       147
36.470       127
36.480       113
36.490        87
36.500        93
36.510       140
36.520       100
36.530       153
36.540       140
36.550        87
36.560       113
36.570       113
36.580        93
36.590        80
36.600       180
36.610       120
36.620        80
36.630       100
36.640       120
36.650       107
36.660        73
36.670        67
36.680       120
36.690       147
36.700       120
36.710       120
36.720       120
36.730       100
36.740       153
36.750        87
36.760       140
36.770       107
36.780       113
36.790        93
36.800        93
36.810       113
36.820       147
36.830        67
36.840        93
36.850       113
36.860        80
36.870        93
36.880        93
36.890        67
36.900        93
36.910        67
36.920        87
36.930       147
36.940       100
36.950       120
36.960       113
36.970        67
36.980       107
36.990       133
37.000        93
37.010       113
37.020        73
37.030        33
37.040       127
37.050        93
37.060        60
37.070        73
37.080       153
37.090        67
37.100        73
37.110       160
37.120       147
37.130       120
37.140       113
37.150       100
37.160       140
37.170        60
37.180        80
37.190        80
37.200       100
37.210        73
37.220       107
37.230       107
37.240        80
37.250       107
37.260        73
37.270        93
37.280        67
37.290        87
37.300        73
37.310        67
37.320        93
37.330        67
37.340       100
37.350        80
37.360        87
37.370       140
37.380       107
37.390        93
37.400        93
37.410       120
37.420       113
37.430       120
37.440       100
37.450        33
37.460        73
37.470       100
37.480        73
37.490       100
37.500       113
37.510        87
37.520        73
37.530        73
37.540       113
37.550        47
37.560        60
37.570        47
37.580        67
37.590        93
37.600        93
37.610       127
37.620        53
37.630       113
37.640       107
37.650        80
37.660        67
37.670        73
37.680       107
37.690        80
37.700        87
37.710        60
37.720        67
37.730        73
37.740       107
37.750       133
37.760        33
37.770        73
37.780        87
37.790        73
37.800        53
37.810       100
37.820        73
37.830        93
37.840        53
37.850        87
37.860        80
37.870        67
37.880        67
37.890       100
37.900        93
37.910        53
37.920        80
37.930        67
37.940        67
37.950       113
37.960        93
37.970       127
37.980        73
37.990        53
38.000        93
38.010       127
38.020        67
38.030        27
38.040        87
38.050        60
38.060        53
38.070        67
38.080        53
38.090        67
38.100        80
38.110        67
38.120        60
38.130        47
38.140        40
38.150       100
38.160        80
38.170        67
38.180        87
38.190        53
38.200        80
38.210        27
38.220        73
38.230        73
38.240        67
38.250        87
38.260        60
38.270        40
38.280        80
38.290        87
38.300        73
38.310        87
38.320        80
38.330        47
38.340        47
38.350        73
38.360        87
38.370       113
38.380        67
38.390        40
38.400        40
38.410        87
38.420        67
38.430        93
38.440        93
38.450        93
38.460        67
38.470        53
38.480        27
38.490        60
38.500        73
38.510        93
38.520        67
38.530        67
38.540        73
38.550        47
38.560        87
38.570        67
38.580        93
38.590        47
38.600       107
38.610        73
38.620        47
38.630        33
38.640       100
38.650        73
38.660        60
38.670       120
38.680       107
38.690        67
38.700        73
38.710        60
38.720        53
38.730        80
38.740        47
38.750        67
38.760        47
38.770        80
38.780        67
38.790        53
38.800        73
38.810       140
38.820        53
38.830        93
38.840       153
38.850        67
38.860        67
38.870        47
38.880       107
38.890        27
38.900        67
38.910        53
38.920        33
38.930        87
38.940        47
38.950        53
38.960        60
38.970        60
38.980        60
38.990        73
39.000        67
39.010        13
39.020        80
39.030        60
39.040        40
39.050        60
39.060        80
39.070        67
39.080        60
39.090        40
39.100        67
39.110        60
39.120        73
39.130        53
39.140        73
39.150        60
39.160        80
39.170        87
39.180        67
39.190        80
39.200        27
39.210        67
39.220        67
39.230        60
39.240        47
39.250        47
39.260         7
39.270        93
39.280        47
39.290        53
39.300        80
39.310        60
39.320        53
39.330        47
39.340        53
39.350        53
39.360        27
39.370        67
39.380        33
39.390       113
39.400        47
39.410        53
39.420       113
39.430        47
39.440        73
39.450        67
39.460        20
39.470        73
39.480        67
39.490        60
39.500        80
39.510        80
39.520        13
39.530        47
39.540        47
39.550        47
39.560        80
39.570        93
39.580        73
39.590       120
39.600        33
39.610       127
39.620        40
39.630        53
39.640        87
39.650        80
39.660        47
39.670        67
39.680       107
39.690        93
39.700        73
39.710        73
39.720        80
39.730        47
39.740        47
39.750        73
39.760        73
39.770        67
39.780        60
39.790        93
39.800        47
39.810        47
39.820        60
39.830       113
39.840        47
39.850        80
39.860        53
39.870        60
39.880        47
39.890        80
39.900        67
39.910        60
39.920        73
39.930        80
39.940        73
39.950        87
39.960        80
39.970        60
39.980       120
39.990        53
40.000        47
40.010       120
40.020        40
40.030        80
40.040       100
40.050        67
40.060        60
40.070        73
40.080        33
40.090        47
40.100        67
40.110        80
40.120        27
40.130        73
40.140        67
40.150        67
40.160        53
40.170        87
40.180        53
40.190        60
40.200        33
40.210       113
40.220        80
40.230        53
40.240        73
40.250        40
40.260        60
40.270        67
40.280        47
40.290        53
40.300        73
40.310        33
40.320        40
40.330        80
40.340        33
40.350       133
40.360        27
40.370        40
40.380        53
40.390        47
40.400        60
40.410        53
40.420        67
40.430        40
40.440        60
40.450        40
40.460        53
40.470        67
40.480        47
40.490        60
40.500        40
40.510        33
40.520        47
40.530        27
40.540        47
40.550        60
40.560        67
40.570        20
40.580        47
40.590       100
40.600        67
40.610        93
40.620        73
40.630        27
40.640        40
40.650        80
40.660        73
40.670        33
40.680        53
40.690        33
40.700        33
40.710        33
40.720        60
40.730        60
40.740        47
40.750        47
40.760        33
40.770        67
40.780        73
40.790        33
40.800        93
40.810        67
40.820        60
40.830        40
40.840        47
40.850        67
40.860        40
40.870        53
40.880        27
40.890        40
40.900        47
40.910        27
40.920        53
40.930       100
40.940        93
40.950        33
40.960        33
40.970        47
40.980        53
40.990        47
41.000        47
41.010        47
41.020        40
41.030        47
41.040        40
41.050        33
41.060        53
41.070        47
41.080        40
41.090        67
41.100        53
41.110        53
41.120        60
41.130        67
41.140        20
41.150        27
41.160        53
41.170        47
41.180        73
41.190        53
41.200        80
41.210       100
41.220        67
41.230        60
41.240        60
41.250        33
41.260        53
41.270        40
41.280        53
41.290        33
41.300        20
41.310        47
41.320        53
41.330        27
41.340        53
41.350        40
41.360        20
41.370        40
41.380        47
41.390        33
41.400        47
41.410        73
41.420        33
41.430         0
41.440        47
41.450        60
41.460        47
41.470        60
41.480        60
41.490        47
41.500        93
41.510        60
41.520        33
41.530        40
41.540        47
41.550        40
41.560        67
41.570        40
41.580        47
41.590        33
41.600        53
41.610        67
41.620        33
41.630         7
41.640        47
41.650        27
41.660        73
41.670        27
41.680        27
41.690        40
41.700        33
41.710        27
41.720        33
41.730        60
41.740        33
41.750        47
41.760        67
41.770        33
41.780        67
41.790        67
41.800        60
41.810        67
41.820        67
41.830        47
41.840        27
41.850        47
41.860        47
41.870        60
41.880        47
41.890        53
41.900        60
41.910        73
41.920        33
41.930        67
41.940        47
41.950        40
41.960        47
41.970        40
41.980        60
41.990        33
42.000        67
42.010        60
42.020        27
42.030        53
42.040        53
42.050        67
42.060        47
42.070        33
42.080        47
42.090        73
42.100        33
42.110        53
42.120        67
42.130        53
42.140        60
42.150        27
42.160        80
42.170        33
42.180        13
42.190        40
42.200        27
42.210        80
42.220        73
42.230        47
42.240        67
42.250        47
42.260        40
42.270        53
42.280        47
42.290        67
42.300        67
42.310        27
42.320        40
42.330        60
42.340        47
42.350        40
42.360        80
42.370        47
42.380        80
42.390        40
42.400       100
42.410        53
42.420        47
42.430        40
42.440        40
42.450        40
42.460        87
42.470        67
42.480        53
42.490        87
42.500        47
42.510        20
42.520        60
42.530        47
42.540        73
42.550        33
42.560        47
42.570        60
42.580        67
42.590        27
42.600        53
42.610        40
42.620        53
42.630        73
42.640        33
42.650        67
42.660        27
42.670        53
42.680        27
42.690        40
42.700        27
42.710       100
42.720        60
42.730        33
42.740        47
42.750        60
42.760        60
42.770        40
42.780        33
42.790       100
42.800        60
42.810        33
42.820        40
42.830        60
42.840         7
42.850        47
42.860        53
42.870       107
42.880        53
42.890        40
42.900        67
42.910        27
42.920        40
42.930        60
42.940        33
42.950        33
42.960        60
42.970        27
42.980        53
42.990        27
43.000        47
43.010        33
43.020        40
43.030        47
43.040        53
43.050        47
43.060        40
43.070        47
43.080        27
43.090       107
43.100        20
43.110        47
43.120        47
43.130        20
43.140        27
43.150        33
43.160        60
43.170         7
43.180        60
43.190        33
43.200        47
43.210        20
43.220        60
43.230        47
43.240        67
43.250        33
43.260        60
43.270        27
43.280        40
43.290        40
43.300        40
43.310        27
43.320        47
43.330        27
43.340        53
43.350        27
43.360        40
43.370        47
43.380        33
43.390        53
43.400        47
43.410        27
43.420        47
43.430        53
43.440         7
43.450        47
43.460        60
43.470        20
43.480        67
43.490        20
43.500        53
43.510        33
43.520        20
43.530        33
43.540        20
43.550        67
43.560        20
43.570        27
43.580        40
43.590        40
43.600        20
43.610        27
43.620        40
43.630        40
43.640        40
43.650        27
43.660        53
43.670        53
43.680        40
43.690        27
43.700        67
43.710        40
43.720         7
43.730        60
43.740        40
43.750        80
43.760        47
43.770        33
43.780        33
43.790        47
43.800        60
43.810        53
43.820        60
43.830        47
43.840        27
43.850        13
43.860        80
43.870        73
43.880        40
43.890        33
43.900        67
43.910        20
43.920        53
43.930        33
43.940        53
43.950        47
43.960        27
43.970        53
43.980        73
43.990        60
44.000        13
44.010        27
44.020        60
44.030        20
44.040        33
44.050        20
44.060        67
44.070        80
44.080        73
44.090        47
44.100        67
44.110        33
44.120        60
44.130        60
44.140        73
44.150        40
44.160        40
44.170        33
44.180        60
44.190        40
44.200        47
44.210        33
44.220        13
44.230        40
44.240        33
44.250        47
44.260        53
44.270        60
44.280        87
44.290        33
44.300        27
44.310        20
44.320        40
44.330        27
44.340        60
44.350        20
44.360        53
44.370        40
44.380        53
44.390        47
44.400        40
44.410        67
44.420        40
44.430        67
44.440        73
44.450         7
44.460        33
44.470        67
44.480        73
44.490        33
44.500        13
44.510        47
44.520        47
44.530        73
44.540        53
44.550         7
44.560        20
44.570        60
44.580        40
44.590        47
44.600        33
44.610        20
44.620        27
44.630        27
44.640        33
44.650        40
44.660        27
44.670        33
44.680        47
44.690        27
44.700        47
44.710        20
44.720        60
44.730         7
44.740        27
44.750        27
44.760        47
44.770        27
44.780        33
44.790        33
44.800        67
44.810        60
44.820        47
44.830        33
44.840        53
44.850        33
44.860        33
44.870         7
44.880        20
44.890        20
44.900        33
44.910        60
44.920        33
44.930        47
44.940        33
44.950        33
44.960        20
44.970        40
44.980        40
44.990        20
45.000        67
45.010        40
45.020        13
45.030        27
45.040        47
45.050        13
45.060        27
45.070        27
45.080        27
45.090        40
45.100        47
45.110        33
45.120        27
45.130        33
45.140        40
45.150        33
45.160        33
45.170        40
45.180        13
45.190        27
45.200        13
45.210        27
45.220        13
45.230        27
45.240        33
45.250        27
45.260        60
45.270         7
45.280        53
45.290        20
45.300        47
45.310        53
45.320        20
45.330        33
45.340        20
45.350        53
45.360        40
45.370        27
45.380        33
45.390        40
45.400        40
45.410        40
45.420        53
45.430        47
45.440        93
45.450        47
45.460        40
45.470        67
45.480        20
45.490        33
45.500        33
45.510        40
45.520        87
45.530        80
45.540        47
45.550        27
45.560        47
45.570        53
45.580        40
45.590        40
45.600        47
45.610        27
45.620        20
45.630        53
45.640        47
45.650        47
45.660        27
45.670        27
45.680        33
45.690        47
45.700        80
45.710        33
45.720        40
45.730        40
45.740        80
45.750        60
45.760        80
45.770        27
45.780        20
45.790        40
45.800        27
45.810        73
45.820        93
45.830        53
45.840        47
45.850        20
45.860        93
45.870        47
45.880        53
45.890        40
45.900        73
45.910        33
45.920        33
45.930        40
45.940        53
45.950        60
45.960        47
45.970        53
45.980        53
45.990        47
46.000         7
46.010        67
46.020        80
46.030        47
46.040        33
46.050        40
46.060        40
46.070        47
46.080        80
46.090        47
46.100        53
46.110        67
46.120        47
46.130        20
46.140        60
46.150        60
46.160        13
46.170        80
46.180        47
46.190        40
46.200        40
46.210        53
46.220        40
46.230        27
46.240        33
46.250        40
46.260        40
46.270        60
46.280        53
46.290        20
46.300        40
46.310        27
46.320        20
46.330        27
46.340        47
46.350        53
46.360        40
46.370        53
46.380        47
46.390        27
46.400        40
46.410        60
46.420        53
46.430        73
46.440        53
46.450        53
46.460        33
46.470        20
46.480        47
46.490        67
46.500        47
46.510        13
46.520        67
46.530        47
46.540        33
46.550        40
46.560        33
46.570        60
46.580        47
46.590        53
46.600        67
46.610        27
46.620        33
46.630        87
46.640        33
46.650        40
46.660        60
46.670        40
46.680        27
46.690        47
46.700        53
46.710        53
46.720        80
46.730        27
46.740        53
46.750        33
46.760       100
46.770        47
46.780        47
46.790        73
46.800        73
46.810        80
46.820        80
46.830        53
46.840       107
46.850       160
46.860       113
46.870       107
46.880        73
46.890       100
46.900        53
46.910        67
46.920        80
46.930        53
46.940        87
46.950        73
46.960       113
46.970        93
46.980       133
46.990        87
47.000       120
47.010        67
47.020       140
47.030       167
47.040       187
47.050       173
47.060       113
47.070       193
47.080       187
47.090       127
47.100       180
47.110       180
47.120       287
47.130       233
47.140       287
47.150       586
47.160       646
47.170       973
47.180      1086
47.190      1366
47.200      1639
47.210      1693
47.220      1619
47.230      1479
47.240      1313
47.250      1013
47.260       753
47.270       620
47.280       446
47.290       440
47.300       247
47.310       247
47.320       220
47.330       153
47.340       140
47.350       153
47.360       147
47.370       127
47.380       107
47.390       133
47.400        87
47.410       127
47.420        73
47.430       107
47.440       113
47.450       100
47.460        67
47.470        67
47.480        53
47.490        47
47.500        67
47.510        67
47.520       100
47.530        67
47.540        47
47.550        60
47.560       113
47.570        60
47.580        80
47.590        47
47.600        53
47.610        73
47.620        27
47.630        87
47.640        47
47.650        80
47.660        67
47.670        47
47.680        67
47.690        80
47.700        73
47.710        60
47.720        87
47.730        53
47.740        87
47.750        73
47.760        73
47.770        73
47.780        53
47.790        67
47.800        40
47.810        40
47.820        47
47.830        67
47.840        73
47.850        27
47.860        80
47.870        73
47.880        33
47.890        40
47.900        60
47.910        27
47.920         0
47.930       100
47.940        53
47.950        53
47.960        40
47.970        60
47.980       107
47.990        67
48.000        60
48.010        47
48.020        33
48.030        40
48.040        40
48.050        47
48.060        40
48.070        33
48.080       107
48.090        40
48.100        40
48.110        73
48.120        53
48.130        67
48.140        33
48.150        80
48.160        67
48.170        47
48.180        80
48.190        40
48.200        47
48.210        80
48.220        40
48.230        33
48.240        33
48.250        40
48.260        40
48.270        53
48.280        87
48.290        60
48.300        33
48.310        73
48.320        20
48.330        67
48.340        47
48.350        47
48.360        47
48.370        53
48.380        73
48.390        33
48.400        53
48.410        20
48.420        33
48.430        13
48.440        33
48.450        47
48.460        40
48.470        33
48.480        60
48.490        87
48.500        53
48.510        73
48.520        53
48.530        40
48.540        40
48.550        27
48.560        40
48.570        60
48.580        40
48.590        60
48.600        67
48.610        20
48.620        13
48.630        53
48.640        53
48.650        67
48.660        40
48.670        27
48.680        47
48.690        60
48.700        60
48.710        20
48.720        53
48.730        33
48.740        53
48.750        47
48.760        40
48.770        13
48.780        73
48.790        47
48.800        47
48.810        53
48.820        47
48.830        60
48.840        47
48.850        33
48.860        40
48.870        40
48.880        27
48.890        67
48.900        40
48.910        27
48.920        47
48.930        67
48.940        47
48.950        40
48.960        20
48.970        13
48.980        47
48.990        33
49.000        33
49.010        40
49.020        20
49.030        47
49.040        47
49.050        53
49.060        40
49.070        40
49.080        67
49.090        47
49.100        40
49.110        27
49.120        60
49.130        33
49.140        33
49.150        33
49.160        27
49.170        60
49.180        53
49.190        27
49.200        33
49.210        47
49.220        67
49.230        73
49.240        40
49.250        47
49.260        13
49.270        53
49.280        20
49.290        47
49.300        53
49.310        33
49.320        13
49.330        27
49.340        20
49.350        27
49.360        47
49.370        20
49.380        27
49.390        33
49.400        60
49.410        47
49.420        27
49.430        27
49.440        27
49.450        60
49.460        40
49.470        27
49.480        20
49.490        80
49.500        40
49.510        33
49.520        20
49.530        53
49.540        40
49.550        53
49.560        87
49.570        33
49.580        67
49.590        33
49.600        40
49.610        40
49.620        80
49.630        53
49.640        53
49.650        33
49.660        53
49.670        47
49.680        20
49.690        60
49.700        27
49.710        20
49.720        73
49.730       100
49.740        60
49.750       100
49.760       113
49.770        40
49.780        80
49.790        73
49.800        53
49.810        67
49.820        53
49.830        47
49.840       127
49.850        93
49.860        67
49.870        80
49.880        47
49.890        80
49.900        33
49.910        47
49.920        33
49.930        47
49.940        40
49.950        80
49.960        47
49.970        47
49.980        67
49.990        60
50.000        47
50.010        47
50.020        40
50.030        73
50.040        60
50.050        67
50.060        53
50.070        73
50.080        80
50.090        40
50.100        53
50.110        60
50.120        53
50.130        73
50.140        73
50.150        60
50.160       100
50.170        67
50.180        73
50.190        87
50.200        73
50.210        47
50.220        67
50.230        20
50.240        47
50.250        67
50.260        20
50.270        53
50.280        47
50.290        80
50.300        60
50.310        47
50.320        73
50.330        67
50.340        47
50.350        33
50.360        67
50.370        40
50.380        60
50.390        60
50.400        67
50.410        53
50.420        80
50.430        73
50.440        60
50.450        60
50.460        60
50.470        67
50.480        53
50.490        67
50.500        53
50.510        47
50.520        53
50.530        47
50.540        33
50.550        40
50.560        73
50.570        80
50.580        60
50.590        73
50.600        80
50.610       113
50.620       107
50.630       100
50.640        53
50.650       120
50.660       167
50.670       200
50.680       287
50.690       233
50.700       280
50.710       340
50.720       446
50.730       340
50.740       380
50.750       433
50.760       440
50.770       426
50.780       373
50.790       426
50.800       407
50.810       420
50.820       420
50.830       387
50.840       573
50.850       400
50.860       420
50.870       453
50.880       566
50.890       426
50.900       440
50.910       580
50.920       413
50.930       506
50.940       440
50.950       367
50.960       420
50.970       440
50.980       480
50.990       367
51.000       526
51.010       453
51.020       407
51.030       520
51.040       493
51.050       440
51.060       500
51.070       533
51.080       440
51.090       460
51.100       513
51.110       426
51.120       460
51.130       473
51.140       493
51.150       473
51.160       506
51.170       460
51.180       493
51.190       486
51.200       426
51.210       553
51.220       493
51.230       446
51.240       400
51.250       513
51.260       526
51.270       400
51.280       493
51.290       480
51.300       546
51.310       426
51.320       500
51.330       327
51.340       480
51.350       520
51.360       387
51.370       473
51.380       420
51.390       513
51.400       433
51.410       433
51.420       407
51.430       407
51.440       426
51.450       486
51.460       426
51.470       407
51.480       420
51.490       473
51.500       413
51.510       466
51.520       506
51.530       580
51.540       480
51.550       480
51.560       506
51.570       446
51.580       506
51.590       580
51.600       526
51.610       526
51.620       360
51.630       500
51.640       480
51.650       466
51.660       347
51.670       433
51.680       493
51.690       566
51.700       486
51.710       526
51.720       433
51.730       540
51.740       473
51.750       407
51.760       613
51.770       586
51.780       540
51.790       380
51.800       606
51.810       573
51.820       586
51.830       553
51.840       586
51.850       553
51.860       540
51.870       593
51.880       546
51.890       593
51.900       566
51.910       646
51.920       646
51.930       660
51.940       600
51.950       613
51.960       626
51.970       586
51.980       580
51.990       606
52.000       546
52.010       633
52.020       680
52.030       706
52.040       666
52.050       580
52.060       720
52.070       646
52.080       713
52.090       673
52.100       793
52.110       826
52.120       706
52.130       746
52.140       866
52.150       820
52.160      1000
52.170       933
52.180      1000
52.190       833
52.200      1013
52.210      1160
52.220      1120
52.230      1273
52.240      1326
52.250      1279
52.260      1513
52.270      1593
52.280      1753
52.290      1893
52.300      2239
52.310      2326
52.320      2772
52.330      2672
52.340      3592
52.350      3719
52.360      4318
52.370      5118
52.380      5251
52.390      6178
52.400      6944
52.410      7770
52.420      8230
52.430      9430
52.440     10003
52.450     11469
52.460     11655
52.470     12715
52.480     14041
52.490     15307
52.500     17893
52.510     20119
52.520     23797
52.530     30974
52.540     42256
52.550     63581
52.560     94522
52.570    127576
52.580    153778
52.590    169765
52.600    178475
52.610    182147
52.620    176223
52.630    155604
52.640    128269
52.650     95668
52.660     69572
52.670     54165
52.680     50280
52.690     55005
52.700     66540
52.710     80974
52.720     95149
52.730    103012
52.740    109056
52.750    107330
52.760    103105
52.770     88478
52.780     72698
52.790     51479
52.800     35892
52.810     24937
52.820     18832
52.830     14714
52.840     12128
52.850     10742
52.860      9196
52.870      7764
52.880      6764
52.890      5658
52.900      4871
52.910      4452
52.920      3665
52.930      3039
52.940      2632
52.950      2599
52.960      2146
52.970      2039
52.980      1666
52.990      1739
53.000      1639
53.010      1513
53.020      1413
53.030      1559
53.040      1293
53.050      1193
53.060      1286
53.070      1086
53.080      1279
53.090      1040
53.100      1106
53.110       940
53.120      1153
53.130       953
53.140      1086
53.150       986
53.160       853
53.170      1020
53.180       826
53.190       933
53.200       926
53.210       653
53.220       813
53.230       900
53.240       780
53.250       760
53.260       920
53.270       753
53.280       780
53.290       786
53.300       660
53.310       680
53.320       566
53.330       700
53.340       580
53.350       580
53.360       660
53.370       760
53.380       620
53.390       593
53.400       493
53.410       613
53.420       633
53.430       766
53.440       533
53.450       580
53.460       540
53.470       540
53.480       566
53.490       586
53.500       560
53.510       466
53.520       633
53.530       686
53.540       566
53.550       573
53.560       506
53.570       553
53.580       486
53.590       446
53.600       466
53.610       493
53.620       407
53.630       546
53.640       453
53.650       413
53.660       513
53.670       433
53.680       466
53.690       466
53.700       420
53.710       387
53.720       420
53.730       433
53.740       413
53.750       573
53.760       493
53.770       493
53.780       373
53.790       407
53.800       480
53.810       466
53.820       433
53.830       393
53.840       513
53.850       440
53.860       400
53.870       313
53.880       480
53.890       460
53.900       407
53.910       373
53.920       407
53.930       426
53.940       433
53.950       360
53.960       340
53.970       360
53.980       400
53.990       426
54.000       426
54.010       307
54.020       347
54.030       347
54.040       333
54.050       287
54.060       333
54.070       426
54.080       347
54.090       267
54.100       400
54.110       327
54.120       327
54.130       320
54.140       393
54.150       380
54.160       380
54.170       340
54.180       393
54.190       393
54.200       407
54.210       340
54.220       260
54.230       347
54.240       360
54.250       253
54.260       293
54.270       387
54.280       333
54.290       367
54.300       473
54.310       360
54.320       420
54.330       333
54.340       413
54.350       413
54.360       367
54.370       287
54.380       287
54.390       347
54.400       387
54.410       353
54.420       380
54.430       287
54.440       300
54.450       313
54.460       300
54.470       353
54.480       267
54.490       307
54.500       293
54.510       327
54.520       387
54.530       220
54.540       280
54.550       313
54.560       313
54.570       347
54.580       260
54.590       280
54.600       280
54.610       280
54.620       413
54.630       333
54.640       387
54.650       313
54.660       320
54.670       280
54.680       287
54.690       300
54.700       293
54.710       400
54.720       307
54.730       347
54.740       340
54.750       300
54.760       280
54.770       293
54.780       260
54.790       340
54.800       380
54.810       360
54.820       307
54.830       300
54.840       360
54.850       300
54.860       240
54.870       227
54.880       287
54.890       293
54.900       353
54.910       300
54.920       280
54.930       300
54.940       233
54.950       287
54.960       220
54.970       287
54.980       187
54.990       360
55.000       307
55.010       320
55.020       253
55.030       320
55.040       267
55.050       280
55.060       247
55.070       287
55.080       300
55.090       300
55.100       200
55.110       240
55.120       273
55.130       320
55.140       280
55.150       253
55.160       247
55.170       313
55.180       307
55.190       247
55.200       327
55.210       233
55.220       293
55.230       267
55.240       240
55.250       260
55.260       233
55.270       267
55.280       233
55.290       287
55.300       280
55.310       420
55.320       367
55.330       313
55.340       233
55.350       287
55.360       260
55.370       220
55.380       320
55.390       273
55.400       273
55.410       227
55.420       233
55.430       320
55.440       240
55.450       180
55.460       280
55.470       207
55.480       287
55.490       227
55.500       220
55.510       227
55.520       233
55.530       240
55.540       233
55.550       273
55.560       253
55.570       293
55.580       327
55.590       220
55.600       253
55.610       307
55.620       253
55.630       360
55.640       253
55.650       280
55.660       227
55.670       247
55.680       220
55.690       280
55.700       240
55.710       227
55.720       213
55.730       287
55.740       307
55.750       207
55.760       253
55.770       173
55.780       213
55.790       300
55.800       267
55.810       213
55.820       213
55.830       267
55.840       273
55.850       333
55.860       313
55.870       253
55.880       267
55.890       293
55.900       193
55.910       193
55.920       307
55.930       300
55.940       287
55.950       293
55.960       227
55.970       200
55.980       187
55.990       233
56.000       273
56.010       153
56.020       240
56.030       220
56.040       307
56.050       260
56.060       220
56.070       273
56.080       267
56.090       247
56.100       213
56.110       167
56.120       220
56.130       247
56.140       293
56.150       267
56.160       173
56.170       253
56.180       240
56.190       227
56.200       260
56.210       140
56.220       167
56.230       253
56.240       180
56.250       100
56.260       220
56.270       187
56.280       260
56.290       240
56.300       213
56.310       260
56.320       180
56.330       180
56.340       247
56.350       153
56.360       240
56.370       200
56.380       293
56.390       140
56.400       233
56.410       247
56.420       180
56.430       300
56.440       227
56.450       240
56.460       187
56.470       180
56.480       220
56.490       227
56.500       213
56.510       253
56.520       213
56.530       213
56.540       193
56.550       180
56.560       240
56.570       173
56.580       253
56.590       273
56.600       267
56.610       240
56.620       173
56.630       207
56.640       213
56.650       200
56.660       207
56.670       267
56.680       200
56.690       180
56.700       233
56.710       227
56.720       227
56.730       253
56.740       167
56.750       273
56.760       180
56.770       160
56.780       267
56.790       140
56.800       167
56.810       140
56.820       220
56.830       180
56.840       153
56.850       267
56.860       160
56.870       213
56.880       133
56.890       200
56.900       140
56.910       140
56.920       213
56.930       200
56.940       140
56.950       200
56.960       253
56.970       187
56.980       207
56.990       233
57.000       247
57.010       213
57.020       147
57.030       213
57.040       180
57.050       180
57.060       273
57.070       173
57.080       167
57.090       187
57.100       200
57.110       213
57.120       187
57.130       173
57.140       120
57.150       167
57.160       153
57.170       180
57.180       200
57.190       213
57.200       213
57.210       140
57.220       187
57.230       247
57.240       147
57.250       193
57.260       213
57.270       213
57.280       200
57.290       213
57.300       200
57.310       213
57.320       167
57.330       213
57.340       253
57.350       100
57.360       187
57.370       133
57.380       247
57.390       147
57.400       153
57.410       220
57.420       193
57.430       200
57.440       180
57.450       180
57.460       133
57.470       187
57.480       227
57.490       220
57.500       180
57.510       193
57.520       193
57.530       253
57.540       207
57.550       240
57.560       153
57.570       193
57.580       187
57.590       240
57.600       247
57.610       140
57.620       140
57.630       160
57.640       160
57.650       187
57.660       180
57.670       207
57.680       187
57.690       220
57.700       220
57.710       187
57.720       180
57.730       160
57.740       180
57.750       207
57.760       180
57.770       140
57.780       187
57.790       173
57.800       213
57.810       213
57.820       260
57.830       167
57.840       133
57.850       227
57.860       193
57.870       200
57.880       160
57.890       187
57.900       180
57.910       187
57.920       113
57.930       140
57.940       100
57.950       187
57.960       200
57.970       187
57.980       187
57.990       160
58.000       153
58.010       147
58.020       207
58.030       213
58.040       247
58.050       113
58.060       187
58.070       173
58.080       240
58.090        93
58.100       200
58.110       160
58.120       160
58.130       227
58.140       180
58.150       153
58.160       180
58.170       147
58.180       187
58.190       133
58.200       173
58.210       147
58.220       140
58.230       153
58.240       140
58.250       240
58.260       153
58.270       173
58.280       200
58.290       240
58.300       173
58.310       160
58.320       147
58.330       180
58.340       187
58.350       220
58.360       133
58.370       167
58.380       220
58.390       113
58.400       140
58.410       140
58.420       153
58.430       180
58.440       133
58.450       193
58.460       127
58.470       133
58.480       193
58.490       133
58.500       213
58.510       233
58.520       153
58.530       247
58.540       147
58.550       220
58.560       147
58.570       173
58.580       107
58.590       153
58.600       133
58.610       180
58.620       140
58.630       153
58.640       147
58.650       153
58.660       180
58.670       113
58.680       133
58.690       153
58.700       207
58.710       153
58.720       180
58.730       153
58.740       167
58.750       167
58.760       167
58.770       107
58.780       240
58.790       107
58.800       113
58.810       160
58.820       187
58.830       140
58.840       147
58.850       140
58.860        93
58.870       207
58.880        93
58.890       140
58.900       113
58.910       180
58.920       180
58.930       120
58.940       107
58.950       147
58.960       127
58.970       167
58.980       147
58.990       167
59.000       160
59.010       153
59.020       193
59.030       127
59.040       120
59.050       113
59.060       153
59.070       180
59.080       127
59.090       120
59.100       120
59.110       193
59.120       153
59.130       107
59.140       113
59.150       167
59.160       153
59.170       140
59.180       107
59.190       133
59.200       153
59.210       133
59.220       187
59.230       167
59.240       180
59.250        80
59.260       133
59.270       173
59.280       107
59.290       107
59.300       147
59.310       167
59.320       173
59.330       173
59.340       113
59.350       140
59.360       153
59.370       153
59.380       147
59.390       127
59.400       133
59.410       180
59.420       140
59.430       133
59.440       167
59.450       180
59.460       113
59.470       120
59.480       173
59.490       160
59.500       180
59.510       127
59.520       153
59.530       120
59.540        87
59.550       173
59.560       153
59.570       140
59.580       120
59.590       133
59.600       127
59.610       113
59.620       227
59.630        87
59.640       180
59.650       167
59.660       100
59.670       127
59.680       120
59.690        73
59.700       120
59.710        73
59.720       227
59.730       160
59.740       147
59.750       113
59.760       213
59.770       167
59.780       127
59.790       113
59.800       160
59.810       160
59.820       127
59.830       127
59.840       133
59.850       187
59.860       187
59.870       153
59.880       113
59.890        87
59.900       147
59.910       113
59.920       133
59.930        93
59.940       140
59.950       153
59.960        73
59.970       147
59.980       133
59.990        87
60.000        67
