20.000        53
20.010        47
20.020        47
20.030        87
20.040        67
20.050        27
20.060        60
20.070        40
20.080        47
20.090        47
20.100        20
20.110        40
20.120        40
20.130        67
20.140        47
20.150        67
20.160        47
20.170        47
20.180        60
20.190        60
20.200        40
20.210        40
20.220        33
20.230        47
20.240        53
20.250        40
20.260        53
20.270        33
20.280        47
20.290        47
20.300        67
20.310        47
20.320        33
20.330        60
20.340        53
20.350        27
20.360        40
20.370        53
20.380        60
20.390        60
20.400        33
20.410        47
20.420        47
20.430        27
20.440        47
20.450        53
20.460        60
20.470        47
20.480        53
20.490        27
20.500        53
20.510        13
20.520        27
20.530        60
20.540        60
20.550        47
20.560        20
20.570        27
20.580        40
20.590        93
20.600        80
20.610        27
20.620        33
20.630        47
20.640        87
20.650        33
20.660        40
20.670        80
20.680        60
20.690        47
20.700        27
20.710        20
20.720        13
20.730        67
20.740        33
20.750        80
20.760        53
20.770        53
20.780        33
20.790        53
20.800        40
20.810        13
20.820        47
20.830        33
20.840        47
20.850        20
20.860        60
20.870        60
20.880        47
20.890        27
20.900        67
20.910        73
20.920        53
20.930        27
20.940        73
20.950        13
20.960        67
20.970        33
20.980        20
20.990        33
21.000        40
21.010        53
21.020        80
21.030        47
21.040        73
21.050        47
21.060        47
21.070        13
21.080        40
21.090        33
21.100        67
21.110        67
21.120        40
21.130        20
21.140        60
21.150        27
21.160        33
21.170        40
21.180        47
21.190        27
21.200        33
21.210        53
21.220        40
21.230        47
21.240        33
21.250        20
21.260        20
21.270        60
21.280        47
21.290        47
21.300        60
21.310        33
21.320        47
21.330        33
21.340        47
21.350        53
21.360        53
21.370        40
21.380       100
21.390        33
21.400        33
21.410        40
21.420        47
21.430        27
21.440        53
21.450        47
21.460        53
21.470         7
21.480        67
21.490        47
21.500        40
21.510        53
21.520        33
21.530         7
21.540        27
21.550        33
21.560        27
21.570        33
21.580        33
21.590        40
21.600        53
21.610        47
21.620        20
21.630        67
21.640        33
21.650        13
21.660        27
21.670        40
21.680        47
21.690        40
21.700        47
21.710        53
21.720        20
21.730        40
21.740        60
21.750        33
21.760        40
21.770        27
21.780        53
21.790        33
21.800        27
21.810        60
21.820        33
21.830        33
21.840        20
21.850        27
21.860        33
21.870        40
21.880        47
21.890        47
21.900        33
21.910        60
21.920        60
21.930        53
21.940        53
21.950        40
21.960        27
21.970        53
21.980        47
21.990        60
22.000        53
22.010        33
22.020        33
22.030        13
22.040        33
22.050        27
22.060        20
22.070        53
22.080        33
22.090        60
22.100        53
22.110        80
22.120        87
22.130        60
22.140        27
22.150        40
22.160        40
22.170        93
22.180        80
22.190        33
22.200        60
22.210        80
22.220        67
22.230        73
22.240        53
22.250        73
22.260        67
22.270        40
22.280        80
22.290        67
22.300       100
22.310       107
22.320       120
22.330       100
22.340        93
22.350       147
22.360        87
22.370       173
22.380       113
22.390       113
22.400        87
22.410        87
22.420       120
22.430       140
22.440       133
22.450        87
22.460       120
22.470       120
22.480        87
22.490       120
22.500       120
22.510       127
22.520        60
22.530       120
22.540       153
22.550       180
22.560       153
22.570        67
22.580       127
22.590       120
22.600       147
22.610       113
22.620       120
22.630       107
22.640       133
22.650       140
22.660        87
22.670        73
22.680        87
22.690        80
22.700       127
22.710        87
22.720       100
22.730        87
22.740        67
22.750       107
22.760       107
22.770        73
22.780       113
22.790       100
22.800        87
22.810        73
22.820        80
22.830       120
22.840       100
22.850        47
22.860        87
22.870        40
22.880        47
22.890        67
22.900        73
22.910        87
22.920        60
22.930        67
22.940        60
22.950        53
22.960        67
22.970        33
22.980        20
22.990        93
23.000        20
23.010        87
23.020        40
23.030        40
23.040        87
23.050        67
23.060        40
23.070        27
23.080        60
23.090        47
23.100        60
23.110        53
23.120        20
23.130        27
23.140        47
23.150        40
23.160        33
23.170        47
23.180        67
23.190        27
23.200        27
23.210        27
23.220        60
23.230        47
23.240        60
23.250        20
23.260        13
23.270       113
23.280        67
23.290        47
23.300        40
23.310        40
23.320        20
23.330        40
23.340        33
23.350        60
23.360        53
23.370        27
23.380        40
23.390        93
23.400        40
23.410        47
23.420        53
23.430        27
23.440        67
23.450        47
23.460        27
23.470        60
23.480        60
23.490        53
23.500        40
23.510        27
23.520        47
23.530        33
23.540        33
23.550        33
23.560        53
23.570        20
23.580        60
23.590        47
23.600        73
23.610        40
23.620        60
23.630        60
23.640        47
23.650        20
23.660        60
23.670        67
23.680        47
23.690        27
23.700        33
23.710        33
23.720        27
23.730        27
23.740        27
23.750        33
23.760        40
23.770        47
23.780        40
23.790        93
23.800        33
23.810        60
23.820        27
23.830        47
23.840        40
23.850        27
23.860        53
23.870        40
23.880        60
23.890        33
23.900        73
23.910        80
23.920        33
23.930        27
23.940        53
23.950        40
23.960        33
23.970        33
23.980        80
23.990        40
24.000        47
24.010        27
24.020        27
24.030        53
24.040        27
24.050        47
24.060        13
24.070        27
24.080        27
24.090        40
24.100        47
24.110        40
24.120        47
24.130        13
24.140        33
24.150        53
24.160        27
24.170        60
24.180        27
24.190        27
24.200        27
24.210        33
24.220        33
24.230        47
24.240        40
24.250        40
24.260        33
24.270        60
24.280        47
24.290        20
24.300        60
24.310        47
24.320        40
24.330        47
24.340        80
24.350        27
24.360         7
24.370        27
24.380        20
24.390        27
24.400        40
24.410        60
24.420        27
24.430        27
24.440        27
24.450        67
24.460        13
24.470        40
24.480        20
24.490        47
24.500        40
24.510        60
24.520        53
24.530        27
24.540        67
24.550        33
24.560        20
24.570        20
24.580        60
24.590        47
24.600        33
24.610        73
24.620        47
24.630        33
24.640        47
24.650        53
24.660        27
24.670        80
24.680        27
24.690        33
24.700        53
24.710        73
24.720        47
24.730        20
24.740        80
24.750        67
24.760        40
24.770        67
24.780        80
24.790        67
24.800        53
24.810        47
24.820        40
24.830        47
24.840        40
24.850        33
24.860        53
24.870        20
24.880         7
24.890        27
24.900        33
24.910        13
24.920        60
24.930        40
24.940        67
24.950        60
24.960        47
24.970        47
24.980        27
24.990        33
25.000        40
25.010        27
25.020        47
25.030        67
25.040        67
25.050        53
25.060        27
25.070        67
25.080        40
25.090        20
25.100        27
25.110        27
25.120        60
25.130        33
25.140        40
25.150        40
25.160        47
25.170        73
25.180        33
25.190        40
25.200        47
25.210        73
25.220        67
25.230        73
25.240       100
25.250        87
25.260       133
25.270       140
25.280       167
25.290       173
25.300       147
25.310       213
25.320       180
25.330       173
25.340       147
25.350       213
25.360       187
25.370       173
25.380       153
25.390       193
25.400       180
25.410       147
25.420       120
25.430       167
25.440       133
25.450       113
25.460       127
25.470       127
25.480        60
25.490        60
25.500       140
25.510       140
25.520       193
25.530       180
25.540       227
25.550       227
25.560       233
25.570       313
25.580       280
25.590       267
25.600       300
25.610       187
25.620       273
25.630       220
25.640       153
25.650       220
25.660       213
25.670       193
25.680        73
25.690        67
25.700        60
25.710        73
25.720        60
25.730        60
25.740        60
25.750        40
25.760        27
25.770        33
25.780        60
25.790        33
25.800        40
25.810        33
25.820        40
25.830        27
25.840        13
25.850        33
25.860        20
25.870        53
25.880        40
25.890        33
25.900        53
25.910        47
25.920        33
25.930        67
25.940        53
25.950        47
25.960        53
25.970        20
25.980        53
25.990        20
26.000        60
26.010        40
26.020        33
26.030        33
26.040        20
26.050        27
26.060        13
26.070        40
26.080        33
26.090        53
26.100        40
26.110        33
26.120        47
26.130        20
26.140        53
26.150        53
26.160        47
26.170        60
26.180        60
26.190        27
26.200        27
26.210        33
26.220        20
26.230        20
26.240        33
26.250        20
26.260        20
26.270        33
26.280        40
26.290        20
26.300        13
26.310        67
26.320        33
26.330        33
26.340        47
26.350        53
26.360        27
26.370        60
26.380        53
26.390        20
26.400        13
26.410        33
26.420        13
26.430        53
26.440        33
26.450        27
26.460        33
26.470        47
26.480        53
26.490        40
26.500        67
26.510        20
26.520        40
26.530        20
26.540        27
26.550        27
26.560        27
26.570        27
26.580        27
26.590        33
26.600        27
26.610        27
26.620        40
26.630        40
26.640        47
26.650        73
26.660        27
26.670        40
26.680        13
26.690        27
26.700        67
26.710         7
26.720        27
26.730        60
26.740        33
26.750        27
26.760        33
26.770        47
26.780        33
26.790        40
26.800        33
26.810        20
26.820        33
26.830        40
26.840        27
26.850        20
26.860        33
26.870        20
26.880        53
26.890        53
26.900        67
26.910        27
26.920        60
26.930        40
26.940        27
26.950        47
26.960        27
26.970        47
26.980        40
26.990        40
27.000        27
27.010        47
27.020         7
27.030        33
27.040        27
27.050         7
27.060        13
27.070        47
27.080        33
27.090        13
27.100        13
27.110        40
27.120        20
27.130        40
27.140        47
27.150         7
27.160        33
27.170        13
27.180        40
27.190        40
27.200        40
27.210        33
27.220        20
27.230        47
27.240        27
27.250        40
27.260        40
27.270        60
27.280        47
27.290         7
27.300        33
27.310        47
27.320        13
27.330        33
27.340        20
27.350        53
27.360        27
27.370        20
27.380        53
27.390        20
27.400        53
27.410        40
27.420        60
27.430        33
27.440        40
27.450        27
27.460        33
27.470        13
27.480        53
27.490        47
27.500        20
27.510        53
27.520        47
27.530        27
27.540        27
27.550        67
27.560        40
27.570        53
27.580        20
27.590        13
27.600        47
27.610        60
27.620        40
27.630        40
27.640        20
27.650        60
27.660        13
27.670        40
27.680        33
27.690        40
27.700        20
27.710        33
27.720        27
27.730        47
27.740        40
27.750        20
27.760        47
27.770        27
27.780        20
27.790        13
27.800        33
27.810        33
27.820        20
27.830        27
27.840        20
27.850        20
27.860        47
27.870        20
27.880        47
27.890        27
27.900        20
27.910        33
27.920        27
27.930        40
27.940        13
27.950        40
27.960        13
27.970        53
27.980        27
27.990        53
28.000        33
28.010        47
28.020        20
28.030        13
28.040        40
28.050        33
28.060        33
28.070        33
28.080        33
28.090        67
28.100        27
28.110        33
28.120        53
28.130         7
28.140        33
28.150        47
28.160        33
28.170        20
28.180        33
28.190        47
28.200        13
28.210         7
28.220        20
28.230        33
28.240        40
28.250        33
28.260        27
28.270        20
28.280        27
28.290        20
28.300        33
28.310        47
28.320        27
28.330        40
28.340        40
28.350        20
28.360        33
28.370        40
28.380        13
28.390        13
28.400        27
28.410        20
28.420        40
28.430        27
28.440        20
28.450        27
28.460        27
28.470        33
28.480        33
28.490        53
28.500        53
28.510        20
28.520        33
28.530         7
28.540        33
28.550        20
28.560        53
28.570        20
28.580        27
28.590        27
28.600        27
28.610        33
28.620        47
28.630        20
28.640        27
28.650        13
28.660        33
28.670        20
28.680        47
28.690        27
28.700        53
28.710        13
28.720        20
28.730        20
28.740        27
28.750        33
28.760        33
28.770        13
28.780        47
28.790        33
28.800        80
28.810         7
28.820         0
28.830        40
28.840        33
28.850        27
28.860        40
28.870        20
28.880        20
28.890        27
28.900        20
28.910        47
28.920        33
28.930        13
28.940        40
28.950        20
28.960        40
28.970        47
28.980        27
28.990        20
29.000        20
29.010        33
29.020        73
29.030        40
29.040        47
29.050        27
29.060        33
29.070        20
29.080        60
29.090        40
29.100        53
29.110        40
29.120        27
29.130        93
29.140        33
29.150        60
29.160        20
29.170        33
29.180        73
29.190        53
29.200        67
29.210        67
29.220        80
29.230        40
29.240        73
29.250        67
29.260       120
29.270       107
29.280        53
29.290        53
29.300       113
29.310       107
29.320        53
29.330        67
29.340        40
29.350        87
29.360        53
29.370        60
29.380        60
29.390        40
29.400        53
29.410         7
29.420        47
29.430        27
29.440        27
29.450        60
29.460        27
29.470        20
29.480        53
29.490        47
29.500        27
29.510        40
29.520        40
29.530        53
29.540        33
29.550        13
29.560        13
29.570        47
29.580        53
29.590        40
29.600        20
29.610        47
29.620        47
29.630        40
29.640        20
29.650        13
29.660        33
29.670         7
29.680        13
29.690        20
29.700        13
29.710         7
29.720        13
29.730        33
29.740        20
29.750        13
29.760        47
29.770        40
29.780        20
29.790        33
29.800        47
29.810        47
29.820        40
29.830        40
29.840        20
29.850        20
29.860        20
29.870        47
29.880        40
29.890        27
29.900        33
29.910        13
29.920         7
29.930        27
29.940        40
29.950        13
29.960        53
29.970        13
29.980        40
29.990        40
30.000        27
30.010        20
30.020        27
30.030        27
30.040        33
30.050        27
30.060        27
30.070        33
30.080        33
30.090        60
30.100        40
30.110        53
30.120        27
30.130        27
30.140        20
30.150        40
30.160        33
30.170        27
30.180        33
30.190        13
30.200        33
30.210        20
30.220        33
30.230         0
30.240        33
30.250        27
30.260        33
30.270        27
30.280        13
30.290        20
30.300        20
30.310        33
30.320        20
30.330        20
30.340        20
30.350        20
30.360        33
30.370        27
30.380        40
30.390        33
30.400        27
30.410        27
30.420        20
30.430        27
30.440        33
30.450        27
30.460        20
30.470        20
30.480        33
30.490        33
30.500        27
30.510        27
30.520        13
30.530        40
30.540        20
30.550        27
30.560        33
30.570        13
30.580        27
30.590        40
30.600        20
30.610        27
30.620        27
30.630        33
30.640        33
30.650        27
30.660        13
30.670        13
30.680        20
30.690        40
30.700        20
30.710        27
30.720        13
30.730        13
30.740        53
30.750        33
30.760        33
30.770        33
30.780        27
30.790        33
30.800        13
30.810        40
30.820        33
30.830         7
30.840        13
30.850        20
30.860        13
30.870        13
30.880        33
30.890        47
30.900        20
30.910        27
30.920        13
30.930        40
30.940        40
30.950         7
30.960        47
30.970        13
30.980        33
30.990        27
31.000        27
31.010        13
31.020        27
31.030        40
31.040        20
31.050        20
31.060        13
31.070        20
31.080        13
31.090        27
31.100        40
31.110        13
31.120        13
31.130        33
31.140        20
31.150        27
31.160        13
31.170        47
31.180        20
31.190        27
31.200        33
31.210        40
31.220        13
31.230        27
31.240        53
31.250        33
31.260        13
31.270        33
31.280        33
31.290         7
31.300        27
31.310        33
31.320         7
31.330        27
31.340        27
31.350        27
31.360        47
31.370        40
31.380        20
31.390        33
31.400        53
31.410        27
31.420         0
31.430        33
31.440        47
31.450        27
31.460        53
31.470        47
31.480        20
31.490        33
31.500        13
31.510        20
31.520        40
31.530        53
31.540        33
31.550         7
31.560        73
31.570        20
31.580        40
31.590        40
31.600        47
31.610        33
31.620        33
31.630        27
31.640        40
31.650        27
31.660        13
31.670        40
31.680        33
31.690        60
31.700        33
31.710        13
31.720        33
31.730        20
31.740        47
31.750        40
31.760        27
31.770        40
31.780        33
31.790        40
31.800        67
31.810        27
31.820        53
31.830        20
31.840        73
31.850        33
31.860        40
31.870        67
31.880        53
31.890        53
31.900        60
31.910        80
31.920        87
31.930        27
31.940        67
31.950        47
31.960        80
31.970        60
31.980        73
31.990        67
32.000        53
32.010        47
32.020       100
32.030       133
32.040        60
32.050        67
32.060       100
32.070        80
32.080        67
32.090       120
32.100       127
32.110       107
32.120       173
32.130       140
32.140       167
32.150       127
32.160       173
32.170       127
32.180       133
32.190       187
32.200       167
32.210       160
32.220       153
32.230       167
32.240       247
32.250       207
32.260       173
32.270       147
32.280       193
32.290       180
32.300       267
32.310       173
32.320       120
32.330       233
32.340       233
32.350       160
32.360       193
32.370       200
32.380       200
32.390       140
32.400       173
32.410       200
32.420       160
32.430       107
32.440       127
32.450       160
32.460       140
32.470       120
32.480       113
32.490       100
32.500       153
32.510       147
32.520       100
32.530       127
32.540        87
32.550        93
32.560       120
32.570       107
32.580        87
32.590        53
32.600       120
32.610        53
32.620        53
32.630        67
32.640        53
32.650       100
32.660        40
32.670        53
32.680        60
32.690        40
32.700        73
32.710        67
32.720        73
32.730        40
32.740        33
32.750        33
32.760        47
32.770        40
32.780        53
32.790        60
32.800        53
32.810        33
32.820        27
32.830        27
32.840        13
32.850        40
32.860        47
32.870        53
32.880        53
32.890        40
32.900        27
32.910        33
32.920        27
32.930        33
32.940        40
32.950        27
32.960        33
32.970        13
32.980         0
32.990        20
33.000        47
33.010         7
33.020        13
33.030        33
33.040        27
33.050        33
33.060        27
33.070        47
33.080        33
33.090        60
33.100        20
33.110        20
33.120        13
33.130        47
33.140        20
33.150        20
33.160        27
33.170         0
33.180        27
33.190        20
33.200        33
33.210        13
33.220        27
33.230        13
33.240        20
33.250        40
33.260        20
33.270        20
33.280        33
33.290        27
33.300        33
33.310        20
33.320        40
33.330        47
33.340         7
33.350        20
33.360        20
33.370        73
33.380        80
33.390        13
33.400        40
33.410        20
33.420         7
33.430         7
33.440        40
33.450        33
33.460        33
33.470        27
33.480        67
33.490        20
33.500        27
33.510         7
33.520        33
33.530        13
33.540        40
33.550        47
33.560        33
33.570        27
33.580         7
33.590         7
33.600        40
33.610        13
33.620        27
33.630        40
33.640        47
33.650        40
33.660        27
33.670        20
33.680        40
33.690        33
33.700         0
33.710        13
33.720        33
33.730        27
33.740        53
33.750        33
33.760         0
33.770        20
33.780        13
33.790        13
33.800        40
33.810        53
33.820         0
33.830        13
33.840         7
33.850        20
33.860        13
33.870        27
33.880        13
33.890         0
33.900        27
33.910         7
33.920        47
33.930        20
33.940        13
33.950        33
33.960        47
33.970         0
33.980         0
33.990        27
34.000        20
34.010        33
34.020         7
34.030        27
34.040        20
34.050        13
34.060        40
34.070        47
34.080        47
34.090        20
34.100         7
34.110        33
34.120         7
34.130         7
34.140        33
34.150        27
34.160        40
34.170        47
34.180        13
34.190        47
34.200        20
34.210        20
34.220         0
34.230        13
34.240        27
34.250        20
34.260        20
34.270        20
34.280        27
34.290        13
34.300        60
34.310        27
34.320        33
34.330        47
34.340        20
34.350         0
34.360        20
34.370         7
34.380        20
34.390        20
34.400        27
34.410        27
34.420        40
34.430        27
34.440        20
34.450        27
34.460        27
34.470        27
34.480        53
34.490        20
34.500        33
34.510        27
34.520        40
34.530        27
34.540        33
34.550        40
34.560        40
34.570        53
34.580         7
34.590        47
34.600        27
34.610        20
34.620        13
34.630        13
34.640        13
34.650         7
34.660        27
34.670        13
34.680        33
34.690        40
34.700        27
34.710        13
34.720         7
34.730         7
34.740        27
34.750        33
34.760        47
34.770        53
34.780        20
34.790        40
34.800        40
34.810        27
34.820        13
34.830        27
34.840         7
34.850        67
34.860        20
34.870        27
34.880        27
34.890        20
34.900        33
34.910        40
34.920        40
34.930        47
34.940        33
34.950        40
34.960        27
34.970        20
34.980        13
34.990        20
35.000         7
35.010        13
35.020        33
35.030        20
35.040        60
35.050        33
35.060        20
35.070        20
35.080        13
35.090        73
35.100        13
35.110        67
35.120        27
35.130        20
35.140         7
35.150        27
35.160        47
35.170        20
35.180        13
35.190        20
35.200        20
35.210        20
35.220        33
35.230         7
35.240        13
35.250        20
35.260        27
35.270         0
35.280        20
35.290        13
35.300        53
35.310         7
35.320        27
35.330        20
35.340        33
35.350        13
35.360        33
35.370         7
35.380        27
35.390        20
35.400         7
35.410        33
35.420        13
35.430        47
35.440        20
35.450        13
35.460        27
35.470         7
35.480        20
35.490        13
35.500        20
35.510         7
35.520        20
35.530        20
35.540        60
35.550        33
35.560        13
35.570        27
35.580        53
35.590        20
35.600        27
35.610        27
35.620        33
35.630        40
35.640        20
35.650         7
35.660        27
35.670        20
35.680         7
35.690        13
35.700        27
35.710        27
35.720        47
35.730        40
35.740        40
35.750        27
35.760        40
35.770        27
35.780         7
35.790        27
35.800         0
35.810        20
35.820        53
35.830        33
35.840        33
35.850        13
35.860        40
35.870        53
35.880        53
35.890        53
35.900        27
35.910        33
35.920         7
35.930        33
35.940        53
35.950        20
35.960        33
35.970        33
35.980        47
35.990        27
36.000        20
36.010        27
36.020        33
36.030        13
36.040        20
36.050        13
36.060        33
36.070         7
36.080        40
36.090        27
36.100        40
36.110         7
36.120        33
36.130        20
36.140        20
36.150         7
36.160        20
36.170        20
36.180         7
36.190        13
36.200        20
36.210        27
36.220        27
36.230        27
36.240        33
36.250        27
36.260        33
36.270        13
36.280        27
36.290        13
36.300        20
36.310        13
36.320        33
36.330        20
36.340        13
36.350        20
36.360        13
36.370        13
36.380        33
36.390        20
36.400        27
36.410        27
36.420        27
36.430        13
36.440        13
36.450        13
36.460        27
36.470        13
36.480         7
36.490        20
36.500        13
36.510         7
36.520        33
36.530         7
36.540        13
36.550        40
36.560        13
36.570        27
36.580        20
36.590        20
36.600        47
36.610        20
36.620        53
36.630        13
36.640        20
36.650         7
36.660        13
36.670        27
36.680        20
36.690        13
36.700         7
36.710        20
36.720        20
36.730        20
36.740        33
36.750        20
36.760        20
36.770        20
36.780        20
36.790        27
36.800        13
36.810         7
36.820        13
36.830        20
36.840         7
36.850         7
36.860        27
36.870        13
36.880         7
36.890         0
36.900         7
36.910        67
36.920        13
36.930        20
36.940        33
36.950         0
36.960        27
36.970        13
36.980        33
36.990        20
37.000        27
37.010        20
37.020        27
37.030         7
37.040        20
37.050        33
37.060         7
37.070        20
37.080        13
37.090        27
37.100         7
37.110        20
37.120         7
37.130        20
37.140        20
37.150         7
37.160        27
37.170        27
37.180        20
37.190        20
37.200        13
37.210        13
37.220        33
37.230         7
37.240        13
37.250        13
37.260        20
37.270        13
37.280        67
37.290        20
37.300        27
37.310        13
37.320         7
37.330        27
37.340        27
37.350        33
37.360        27
37.370         7
37.380        47
37.390        33
37.400         7
37.410        40
37.420        40
37.430        40
37.440        13
37.450        13
37.460        20
37.470        13
37.480        20
37.490        47
37.500        20
37.510         7
37.520        27
37.530        13
37.540        33
37.550        40
37.560        20
37.570        33
37.580        33
37.590        20
37.600        20
37.610        20
37.620        27
37.630        27
37.640        33
37.650        27
37.660        13
37.670        13
37.680        40
37.690         7
37.700         0
37.710        40
37.720        27
37.730        13
37.740         7
37.750        40
37.760        20
37.770        20
37.780         7
37.790        47
37.800        13
37.810        20
37.820        20
37.830        13
37.840        13
37.850         7
37.860        33
37.870        40
37.880        33
37.890         7
37.900        20
37.910        20
37.920        27
37.930        20
37.940        33
37.950        40
37.960         7
37.970        27
37.980         7
37.990         7
38.000        33
38.010         7
38.020        20
38.030        27
38.040        27
38.050         7
38.060         7
38.070        27
38.080        20
38.090        40
38.100        13
38.110        13
38.120        40
38.130        40
38.140        20
38.150        13
38.160        20
38.170        13
38.180        47
38.190        27
38.200        27
38.210        20
38.220        13
38.230        53
38.240        33
38.250        33
38.260        20
38.270         7
38.280        47
38.290        27
38.300        27
38.310         0
38.320        13
38.330        27
38.340        20
38.350        13
38.360        20
38.370        40
38.380        33
38.390        20
38.400        27
38.410        20
38.420        27
38.430        27
38.440         7
38.450        47
38.460        27
38.470         7
38.480        20
38.490        27
38.500        27
38.510        33
38.520        13
38.530        20
38.540        67
38.550        20
38.560        33
38.570        27
38.580        13
38.590        20
38.600        27
38.610        27
38.620        13
38.630        20
38.640        20
38.650         0
38.660        13
38.670         7
38.680        13
38.690         0
38.700        33
38.710        13
38.720        13
38.730        20
38.740        27
38.750        33
38.760        27
38.770        47
38.780        27
38.790        13
38.800        20
38.810        33
38.820         7
38.830        60
38.840        20
38.850        33
38.860        20
38.870        33
38.880        47
38.890        27
38.900        27
38.910        27
38.920        33
38.930        13
38.940        33
38.950        40
38.960         7
38.970        27
38.980        27
38.990        27
39.000        20
39.010        27
39.020        47
39.030        40
39.040        47
39.050        27
39.060        20
39.070        33
39.080        40
39.090        40
39.100        53
39.110        33
39.120        27
39.130        27
39.140        33
39.150        27
39.160        20
39.170        47
39.180        47
39.190        20
39.200        33
39.210        73
39.220        27
39.230        47
39.240        47
39.250        53
39.260        40
39.270        60
39.280        40
39.290        20
39.300        60
39.310        33
39.320        53
39.330        33
39.340        47
39.350        40
39.360        67
39.370        60
39.380        40
39.390        40
39.400        27
39.410        33
39.420        20
39.430        27
39.440        40
39.450        13
39.460        13
39.470        40
39.480         7
39.490        27
39.500        27
39.510        13
39.520        47
39.530         7
39.540        33
39.550        13
39.560        27
39.570        20
39.580        13
39.590        47
39.600        27
39.610         7
39.620         7
39.630         7
39.640        40
39.650        13
39.660        27
39.670        13
39.680        20
39.690        20
39.700        13
39.710         7
39.720        27
39.730        27
39.740        33
39.750        20
39.760        40
39.770        13
39.780        20
39.790         7
39.800        40
39.810        13
39.820        33
39.830        27
39.840        13
39.850        13
39.860        53
39.870        47
39.880        27
39.890         7
39.900        47
39.910        13
39.920        27
39.930        27
39.940        47
39.950        27
39.960        60
39.970        20
39.980         7
39.990        20
40.000         7
40.010        40
40.020        33
40.030        13
40.040        20
40.050        13
40.060        13
40.070        40
40.080        27
40.090        40
40.100        20
40.110        20
40.120        40
40.130        40
40.140        40
40.150        33
40.160        47
40.170        60
40.180        27
40.190        27
40.200        47
40.210        20
40.220        40
40.230        20
40.240        27
40.250        40
40.260        20
40.270        27
40.280        27
40.290         7
40.300        27
40.310        53
40.320        60
40.330        27
40.340        40
40.350        53
40.360        13
40.370         7
40.380        27
40.390         0
40.400        33
40.410        13
40.420         7
40.430        27
40.440        13
40.450        27
40.460        13
40.470        33
40.480        13
40.490        47
40.500        27
40.510         7
40.520        27
40.530        13
40.540        27
40.550        27
40.560        13
40.570        33
40.580        33
40.590        33
40.600        33
40.610        33
40.620        33
40.630        20
40.640        27
40.650         7
40.660        33
40.670         0
40.680         7
40.690        33
40.700        33
40.710        47
40.720        60
40.730        20
40.740        27
40.750        27
40.760        40
40.770        27
40.780        40
40.790        27
40.800        40
40.810        27
40.820        33
40.830        13
40.840        33
40.850        27
40.860        13
40.870        13
40.880        20
40.890        33
40.900        27
40.910        13
40.920        20
40.930         7
40.940        20
40.950        33
40.960         0
40.970        27
40.980        33
40.990        20
41.000        20
41.010        13
41.020        33
41.030        27
41.040        20
41.050        20
41.060        13
41.070        27
41.080        20
41.090        13
41.100        27
41.110        13
41.120        27
41.130        20
41.140        47
41.150         7
41.160        20
41.170         7
41.180        20
41.190        13
41.200        20
41.210        33
41.220         7
41.230        40
41.240        20
41.250        33
41.260        27
41.270        33
41.280        40
41.290        33
41.300        13
41.310        20
41.320        33
41.330        33
41.340        20
41.350        53
41.360        53
41.370        13
41.380        40
41.390        27
41.400        33
41.410        20
41.420        20
41.430        27
41.440        27
41.450        13
41.460        13
41.470        40
41.480        27
41.490        27
41.500        33
41.510        67
41.520        53
41.530        20
41.540        60
41.550        33
41.560        27
41.570        33
41.580        20
41.590        47
41.600        60
41.610        13
41.620        27
41.630        20
41.640        40
41.650        40
41.660        47
41.670        60
41.680        27
41.690        20
41.700        13
41.710         7
41.720        13
41.730        27
41.740        13
41.750        13
41.760        20
41.770        20
41.780        33
41.790        40
41.800        20
41.810        40
41.820        53
41.830        13
41.840        33
41.850        40
41.860        47
41.870        13
41.880        20
41.890        33
41.900        47
41.910        47
41.920        33
41.930        40
41.940        27
41.950        33
41.960        40
41.970        20
41.980        27
41.990        33
42.000        20
42.010        27
42.020        13
42.030        20
42.040        27
42.050        33
42.060        33
42.070        27
42.080        13
42.090         7
42.100         7
42.110        27
42.120        20
42.130        13
42.140        27
42.150        20
42.160         7
42.170        20
42.180        33
42.190        13
42.200        33
42.210         0
42.220        27
42.230        27
42.240        13
42.250        33
42.260        20
42.270         7
42.280        20
42.290        20
42.300        13
42.310        27
42.320        40
42.330        33
42.340         7
42.350        33
42.360         7
42.370        33
42.380        53
42.390        27
42.400        47
42.410        27
42.420        20
42.430        27
42.440        27
42.450         7
42.460         7
42.470        13
42.480        13
42.490        20
42.500        20
42.510        20
42.520        40
42.530         7
42.540        33
42.550         7
42.560        20
42.570        47
42.580        20
42.590         7
42.600        13
42.610        33
42.620         7
42.630        20
42.640        40
42.650        13
42.660        27
42.670        40
42.680        27
42.690        27
42.700        60
42.710        13
42.720        33
42.730        27
42.740        20
42.750         7
42.760        13
42.770        33
42.780        13
42.790        33
42.800        40
42.810        27
42.820        20
42.830        27
42.840        33
42.850        20
42.860        40
42.870        27
42.880        40
42.890        33
42.900        27
42.910        20
42.920        53
42.930        13
42.940        27
42.950        27
42.960        20
42.970        20
42.980        27
42.990        27
43.000        53
43.010        40
43.020        20
43.030        47
43.040        27
43.050         7
43.060        47
43.070        33
43.080        20
43.090        73
43.100        33
43.110        20
43.120        33
43.130        20
43.140        53
43.150        40
43.160        40
43.170        20
43.180        40
43.190        27
43.200        20
43.210        20
43.220        13
43.230        20
43.240        33
43.250        47
43.260        40
43.270        13
43.280        33
43.290        13
43.300        13
43.310        13
43.320        13
43.330        40
43.340        40
43.350        33
43.360        20
43.370        33
43.380        47
43.390        13
43.400        13
43.410        20
43.420        27
43.430        40
43.440        13
43.450        20
43.460         7
43.470        20
43.480        20
43.490        40
43.500        47
43.510         0
43.520        27
43.530        20
43.540        40
43.550        20
43.560        33
43.570        27
43.580        40
43.590        40
43.600        13
43.610        13
43.620        27
43.630        33
43.640        13
43.650        13
43.660        20
43.670        13
43.680        13
43.690        40
43.700        27
43.710        40
43.720        33
43.730        53
43.740         7
43.750        20
43.760        27
43.770        40
43.780        20
43.790        20
43.800        27
43.810        13
43.820         7
43.830        13
43.840        47
43.850        73
43.860        40
43.870        33
43.880        13
43.890         7
43.900        27
43.910        20
43.920        33
43.930        20
43.940         7
43.950        20
43.960        33
43.970        27
43.980        20
43.990         7
44.000        20
44.010        33
44.020        27
44.030        13
44.040        27
44.050        33
44.060        47
44.070        27
44.080        20
44.090        47
44.100        47
44.110        27
44.120        13
44.130        13
44.140        27
44.150        33
44.160        40
44.170        13
44.180        20
44.190        20
44.200        27
44.210        13
44.220        20
44.230        13
44.240        33
44.250        33
44.260        47
44.270        40
44.280        40
44.290        40
44.300        13
44.310        20
44.320        40
44.330        53
44.340        27
44.350        20
44.360        67
44.370        47
44.380        20
44.390        40
44.400         7
44.410        47
44.420        53
44.430        13
44.440        20
44.450        40
44.460        40
44.470        33
44.480        33
44.490        60
44.500        27
44.510        60
44.520        60
44.530        33
44.540        33
44.550        40
44.560        27
44.570        40
44.580        53
44.590        33
44.600        40
44.610        33
44.620        47
44.630        53
44.640        53
44.650        40
44.660        27
44.670        27
44.680        47
44.690       100
44.700        33
44.710        53
44.720        47
44.730        73
44.740        47
44.750        47
44.760        80
44.770        67
44.780        53
44.790        60
44.800        53
44.810        47
44.820        47
44.830        60
44.840        47
44.850        53
44.860        40
44.870        40
44.880       113
44.890        47
44.900        47
44.910        93
44.920        67
44.930        60
44.940        60
44.950        67
44.960        87
44.970       127
44.980        60
44.990        80
45.000        47
45.010        80
45.020        87
45.030        53
45.040        53
45.050        80
45.060        73
45.070        67
45.080        73
45.090        73
45.100        80
45.110       107
45.120        60
45.130        93
45.140        87
45.150        93
45.160        93
45.170        67
45.180       100
45.190       107
45.200       113
45.210       107
45.220       147
45.230       113
45.240        53
45.250       100
45.260        87
45.270       127
45.280       127
45.290       120
45.300       153
45.310       133
45.320       153
45.330       133
45.340       107
45.350       147
45.360       167
45.370       113
45.380       200
45.390       173
45.400       173
45.410       140
45.420       140
45.430       233
45.440       160
45.450       173
45.460       180
45.470       147
45.480       193
45.490       233
45.500       247
45.510       187
45.520       247
45.530       233
45.540       307
45.550       233
45.560       213
45.570       247
45.580       240
45.590       233
45.600       293
45.610       327
45.620       347
45.630       313
45.640       273
45.650       373
45.660       380
45.670       313
45.680       353
45.690       473
45.700       360
45.710       460
45.720       480
45.730       380
45.740       500
45.750       380
45.760       333
45.770       367
45.780       540
45.790       473
45.800       500
45.810       526
45.820       686
45.830       626
45.840       733
45.850       726
45.860       600
45.870       620
45.880       640
45.890       673
45.900       686
45.910       760
45.920       520
45.930       920
45.940       686
45.950       880
45.960       720
45.970       726
45.980       766
45.990       840
46.000       726
46.010       960
46.020       866
46.030       960
46.040       826
46.050       813
46.060       893
46.070       986
46.080       920
46.090       913
46.100       880
46.110      1033
46.120       820
46.130       980
46.140       900
46.150      1020
46.160       920
46.170       993
46.180      1160
46.190       946
46.200       920
46.210       980
46.220      1013
46.230      1000
46.240      1013
46.250       840
46.260      1100
46.270      1006
46.280       833
46.290       926
46.300       786
46.310       880
46.320       866
46.330       893
46.340       906
46.350       786
46.360       833
46.370       813
46.380       673
46.390       840
46.400       793
46.410       820
46.420       746
46.430       853
46.440       806
46.450       753
46.460       700
46.470       580
46.480       593
46.490       540
46.500       653
46.510       586
46.520       673
46.530       526
46.540       620
46.550       526
46.560       653
46.570       440
46.580       520
46.590       513
46.600       453
46.610       540
46.620       420
46.630       420
46.640       460
46.650       387
46.660       393
46.670       480
46.680       387
46.690       353
46.700       373
46.710       313
46.720       280
46.730       280
46.740       367
46.750       273
46.760       240
46.770       340
46.780       300
46.790       333
46.800       180
46.810       267
46.820       200
46.830       233
46.840       247
46.850       200
46.860       253
46.870       260
46.880       240
46.890       167
46.900       200
46.910       193
46.920       173
46.930       167
46.940       193
46.950       193
46.960       160
46.970       227
46.980       180
46.990       160
47.000       200
47.010       213
47.020       200
47.030       293
47.040       167
47.050        93
47.060       193
47.070       107
47.080       173
47.090       173
47.100       160
47.110       133
47.120       107
47.130       207
47.140       153
47.150       100
47.160       207
47.170       233
47.180       307
47.190       313
47.200       273
47.210       313
47.220       227
47.230       247
47.240       173
47.250       207
47.260       133
47.270       160
47.280       160
47.290       127
47.300       127
47.310       120
47.320       120
47.330        87
47.340       107
47.350       133
47.360       107
47.370       100
47.380       113
47.390       113
47.400       147
47.410       140
47.420        80
47.430       100
47.440        93
47.450        87
47.460       100
47.470        40
47.480        80
47.490       107
47.500        93
47.510        80
47.520        60
47.530       100
47.540       107
47.550        80
47.560        60
47.570        87
47.580        73
47.590       113
47.600        40
47.610        67
47.620        40
47.630        40
47.640        73
47.650        60
47.660        47
47.670        60
47.680        60
47.690        40
47.700        73
47.710        13
47.720        60
47.730        80
47.740        53
47.750        67
47.760        47
47.770        73
47.780        60
47.790       100
47.800        53
47.810        60
47.820        67
47.830        73
47.840        47
47.850        47
47.860        40
47.870        93
47.880        60
47.890        40
47.900        53
47.910        47
47.920        27
47.930        33
47.940        33
47.950        27
47.960        53
47.970        73
47.980        47
47.990        53
48.000        87
48.010        40
48.020        33
48.030        67
48.040       107
48.050        53
48.060        20
48.070        47
48.080        40
48.090        40
48.100        53
48.110        27
48.120        47
48.130        20
48.140        93
48.150        53
48.160        53
48.170        40
48.180        87
48.190        53
48.200        47
48.210        60
48.220        73
48.230        60
48.240        60
48.250        73
48.260        53
48.270       107
48.280        33
48.290        60
48.300        60
48.310        53
48.320        33
48.330        53
48.340        60
48.350        60
48.360        53
48.370        87
48.380        73
48.390       107
48.400        60
48.410        87
48.420        93
48.430        33
48.440        60
48.450        53
48.460        47
48.470        73
48.480        87
48.490       160
48.500        27
48.510        80
48.520        67
48.530        73
48.540        53
48.550        53
48.560        60
48.570        60
48.580        40
48.590        27
48.600        20
48.610        47
48.620        40
48.630        20
48.640        20
48.650        47
48.660        60
48.670        47
48.680        27
48.690        53
48.700        47
48.710        47
48.720        20
48.730        20
48.740        40
48.750        27
48.760        53
48.770        67
48.780        40
48.790        40
48.800        27
48.810        33
48.820        47
48.830        47
48.840        20
48.850        40
48.860        40
48.870        27
48.880        27
48.890        40
48.900        20
48.910        33
48.920        47
48.930        20
48.940        33
48.950        60
48.960        33
48.970        40
48.980        20
48.990        13
49.000        27
49.010        60
49.020        33
49.030         7
49.040         7
49.050        27
49.060        53
49.070        33
49.080        27
49.090        27
49.100        27
49.110        53
49.120        60
49.130        20
49.140        47
49.150        87
49.160        60
49.170        33
49.180        20
49.190        33
49.200        40
49.210        27
49.220        40
49.230        40
49.240        33
49.250        40
49.260        20
49.270        20
49.280        67
49.290        33
49.300        40
49.310        33
49.320        60
49.330        27
49.340        40
49.350        20
49.360        40
49.370        67
49.380        20
49.390        13
49.400        33
49.410        40
49.420        33
49.430        20
49.440        27
49.450        60
49.460        33
49.470        60
49.480        27
49.490        27
49.500        33
49.510        20
49.520        60
49.530        27
49.540        53
49.550        27
49.560        13
49.570        20
49.580        40
49.590        13
49.600        33
49.610        67
49.620        20
49.630        40
49.640        33
49.650        40
49.660        40
49.670        40
49.680        33
49.690         7
49.700        47
49.710        40
49.720        27
49.730        27
49.740         0
49.750        33
49.760        40
49.770        47
49.780        53
49.790        40
49.800        20
49.810        13
49.820        40
49.830        27
49.840        60
49.850        40
49.860        20
49.870         7
49.880        33
49.890        33
49.900        13
49.910        33
49.920        27
49.930        47
49.940        20
49.950        33
49.960        40
49.970        47
49.980        40
49.990        13
50.000        33
50.010        27
50.020        27
50.030        27
50.040        27
50.050        47
50.060        60
50.070        20
50.080        60
50.090        13
50.100        20
50.110        47
50.120        20
50.130        40
50.140        20
50.150        53
50.160        20
50.170        27
50.180        73
50.190        20
50.200        33
50.210        20
50.220         7
50.230        20
50.240        20
50.250        33
50.260         7
50.270        27
50.280        33
50.290        33
50.300        27
50.310        47
50.320        67
50.330        47
50.340        40
50.350        33
50.360        40
50.370        60
50.380        20
50.390        20
50.400        27
50.410        47
50.420        47
50.430        47
50.440        20
50.450        20
50.460        40
50.470        53
50.480        33
50.490        40
50.500        33
50.510        27
50.520        27
50.530        13
50.540        53
50.550        33
50.560        47
50.570        40
50.580        73
50.590        53
50.600        40
50.610        33
50.620        40
50.630        67
50.640        73
50.650       120
50.660        73
50.670        80
50.680       100
50.690       120
50.700        67
50.710       120
50.720       160
50.730       120
50.740       133
50.750       173
50.760       107
50.770       147
50.780       127
50.790       113
50.800       100
50.810       127
50.820        93
50.830       113
50.840       107
50.850       180
50.860       127
50.870       173
50.880        60
50.890       140
50.900        80
50.910        93
50.920       120
50.930        93
50.940       147
50.950       133
50.960       187
50.970       147
50.980       107
50.990        87
51.000       107
51.010        87
51.020       120
51.030       100
51.040        93
51.050       120
51.060       173
51.070        87
51.080       167
51.090        93
51.100       133
51.110        80
51.120       113
51.130       153
51.140       100
51.150        93
51.160        93
51.170       153
51.180       127
51.190       127
51.200       100
51.210       100
51.220       107
51.230       120
51.240       120
51.250       120
51.260       120
51.270        80
51.280       113
51.290       160
51.300       127
51.310       120
51.320       107
51.330       167
51.340        93
51.350        93
51.360       133
51.370       153
51.380       140
51.390       133
51.400       127
51.410       133
51.420       167
51.430        93
51.440       153
51.450       193
51.460       107
51.470       107
51.480       133
51.490       120
51.500       167
51.510       160
51.520       127
51.530       113
51.540       173
51.550       140
51.560        93
51.570       160
51.580       180
51.590       133
51.600       127
51.610       133
51.620       120
51.630       127
51.640       147
51.650       113
51.660       120
51.670       140
51.680       127
51.690       160
51.700       167
51.710       147
51.720       173
51.730       207
51.740       133
51.750        93
51.760       200
51.770       187
51.780       193
51.790       127
51.800       100
51.810       173
51.820       167
51.830       160
51.840       167
51.850       173
51.860       193
51.870       120
51.880       147
51.890       180
51.900       167
51.910       200
51.920       153
51.930       180
51.940       127
51.950       220
51.960       227
51.970       213
51.980       193
51.990       160
52.000       167
52.010       167
52.020       193
52.030       193
52.040       253
52.050       240
52.060       160
52.070       213
52.080       180
52.090       200
52.100       220
52.110       207
52.120       267
52.130       233
52.140       273
52.150       253
52.160       300
52.170       233
52.180       247
52.190       340
52.200       347
52.210       367
52.220       353
52.230       360
52.240       353
52.250       460
52.260       413
52.270       666
52.280       700
52.290       820
52.300       860
52.310      1106
52.320      1186
52.330      1546
52.340      1853
52.350      1966
52.360      2206
52.370      2566
52.380      2532
52.390      2799
52.400      2692
52.410      3465
52.420      3579
52.430      3425
52.440      3585
52.450      4092
52.460       806
52.470      4338
52.480      4991
52.490      5071
52.500      5858
52.510      6537
52.520      7997
52.530     10669
52.540     15940
52.550     24397
52.560     33460
52.570     43096
52.580     50253
52.590     57330
52.600     63894
52.610     65114
52.620     61349
52.630     50493
52.640     35952
52.650     22644
52.660     15334
52.670     12022
52.680     11875
52.690     14334
52.700     18513
52.710     23177
52.720     27149
52.730     30768
52.740     33400
52.750     33220
52.760     30928
52.770     24970
52.780     18433
52.790     10869
52.800      6537
52.810      4445
52.820      2799
52.830      2006
52.840      1613
52.850      1419
52.860      1459
52.870      1046
52.880      1000
52.890       853
52.900       686
52.910       753
52.920       646
52.930       626
52.940       513
52.950       660
52.960       433
52.970       433
52.980       473
52.990       367
53.000       493
53.010       360
53.020       433
53.030       367
53.040       320
53.050       446
53.060       280
53.070       360
53.080       300
53.090       340
53.100       233
53.110       273
53.120       240
53.130       347
53.140       167
53.150       193
53.160       313
53.170       240
53.180       180
53.190       207
53.200       287
53.210       207
53.220       273
53.230       220
53.240       240
53.250       240
53.260       267
53.270       200
53.280       273
53.290       240
53.300       233
53.310       247
53.320       167
53.330       140
53.340       240
53.350       180
53.360       227
53.370       187
53.380       260
53.390       167
53.400       233
53.410       227
53.420       180
53.430       187
53.440       153
53.450       187
53.460       167
53.470       133
53.480       153
53.490       193
53.500       200
53.510       147
53.520       167
53.530       127
53.540       193
53.550       180
53.560       153
53.570       147
53.580       160
53.590       180
53.600       167
53.610       173
53.620       207
53.630       193
53.640       200
53.650       107
53.660       160
53.670       153
53.680       193
53.690       120
53.700        80
53.710       160
53.720       180
53.730       147
53.740       200
53.750       133
53.760       180
53.770        93
53.780       167
53.790       193
53.800       147
53.810       140
53.820       107
53.830       127
53.840       120
53.850       147
53.860       160
53.870       173
53.880       147
53.890       180
53.900       140
53.910       107
53.920       187
53.930       100
53.940       127
53.950        87
53.960       167
53.970       200
53.980       227
53.990       120
54.000       153
54.010       153
54.020       127
54.030       133
54.040       147
54.050       127
54.060       127
54.070       147
54.080       207
54.090       133
54.100       113
54.110       153
54.120       127
54.130       133
54.140        60
54.150       113
54.160       100
54.170       120
54.180       133
54.190       207
54.200       133
54.210       153
54.220       107
54.230       113
54.240       173
54.250       113
54.260       127
54.270       113
54.280       133
54.290       180
54.300        80
54.310        93
54.320       153
54.330       120
54.340        93
54.350       147
54.360       173
54.370       147
54.380        87
54.390       100
54.400       140
54.410       133
54.420       120
54.430        73
54.440       167
54.450       153
54.460       133
54.470       140
54.480       167
54.490       133
54.500       120
54.510       153
54.520        80
54.530        93
54.540       127
54.550       180
54.560       173
54.570        73
54.580       140
54.590        73
54.600        73
54.610       127
54.620        87
54.630       153
54.640       127
54.650       113
54.660       120
54.670       113
54.680        87
54.690       113
54.700       113
54.710        93
54.720        47
54.730        87
54.740       140
54.750        60
54.760       100
54.770       133
54.780       120
54.790       127
54.800       120
54.810        93
54.820       120
54.830       120
54.840       120
54.850       173
54.860       107
54.870       127
54.880        73
54.890       133
54.900       147
54.910       107
54.920       113
54.930       120
54.940       133
54.950       153
54.960       147
54.970       147
54.980       113
54.990        93
55.000       160
55.010       127
55.020       140
55.030       107
55.040       127
55.050        73
55.060       153
55.070       120
55.080       153
55.090        87
55.100       120
55.110       107
55.120        93
55.130       100
55.140       107
55.150       113
55.160        87
55.170       100
55.180       100
55.190        93
55.200       133
55.210       140
55.220        87
55.230        87
55.240        87
55.250       100
55.260       107
55.270       147
55.280        67
55.290       107
55.300        73
55.310       147
55.320        93
55.330        87
55.340       113
55.350       133
55.360       113
55.370        93
55.380       113
55.390       113
55.400       107
55.410        73
55.420        93
55.430       147
55.440        47
55.450       147
55.460       100
55.470        67
55.480       107
55.490       127
55.500        93
55.510       120
55.520        53
55.530       127
55.540       113
55.550       120
55.560        87
55.570        73
55.580       133
55.590       120
55.600       100
55.610        73
55.620       127
55.630       100
55.640       147
55.650        80
55.660       147
55.670       160
55.680        87
55.690        67
55.700        80
55.710       113
55.720       120
55.730        87
55.740        67
55.750       120
55.760       120
55.770        87
55.780       133
55.790       113
55.800        80
55.810       107
55.820        80
55.830       107
55.840       107
55.850       147
55.860        40
55.870        93
55.880        87
55.890        60
55.900        67
55.910        80
55.920        93
55.930       140
55.940       107
55.950        87
55.960        67
55.970        93
55.980        87
55.990       147
56.000       107
56.010        93
56.020       107
56.030       107
56.040       120
56.050       127
56.060        80
56.070        73
56.080       113
56.090        93
56.100        87
56.110        73
56.120       100
56.130        87
56.140        73
56.150       100
56.160       100
56.170        67
56.180        87
56.190       153
56.200       107
56.210       107
56.220       133
56.230       133
56.240       133
56.250        60
56.260        33
56.270        80
56.280        87
56.290       127
56.300        60
56.310        93
56.320        73
56.330        73
56.340       113
56.350        93
56.360       120
56.370       120
56.380       100
56.390       133
56.400        80
56.410        80
56.420       107
56.430        93
56.440       127
56.450        73
56.460       100
56.470        73
56.480       100
56.490       100
56.500       127
56.510       120
56.520       100
56.530        80
56.540        73
56.550        93
56.560        93
56.570       153
56.580        87
56.590       107
56.600        93
56.610        93
56.620        67
56.630       100
56.640        53
56.650        93
56.660        93
56.670        80
56.680        87
56.690       107
56.700       100
56.710        60
56.720       113
56.730       107
56.740        67
56.750        87
56.760        93
56.770        80
56.780        60
56.790       107
56.800       153
56.810       120
56.820        53
56.830        87
56.840       127
56.850       113
56.860       133
56.870        93
56.880       100
56.890       133
56.900       113
56.910        73
56.920        93
56.930        67
56.940        67
56.950       100
56.960       113
56.970        87
56.980        87
56.990       113
57.000        87
57.010       120
57.020        93
57.030        67
57.040       120
57.050        93
57.060        87
57.070        60
57.080        80
57.090       113
57.100        53
57.110        40
57.120       107
57.130       133
57.140       100
57.150       107
57.160       113
57.170        93
57.180       147
57.190        60
57.200       120
57.210        60
57.220        93
57.230        87
57.240        73
57.250        60
57.260        60
57.270       113
57.280        93
57.290        67
57.300       140
57.310       107
57.320       113
57.330       120
57.340        80
57.350        53
57.360       100
57.370       113
57.380        87
57.390        73
57.400       100
57.410        53
57.420        67
57.430       100
57.440       120
57.450        80
57.460        73
57.470       120
57.480       127
57.490        67
57.500        60
57.510       120
57.520       120
57.530        93
57.540        93
57.550       120
57.560        87
57.570       133
57.580        93
57.590        87
57.600        67
57.610        80
57.620        67
57.630        40
57.640        80
57.650        67
57.660        80
57.670       120
57.680        80
57.690        87
57.700       113
57.710        73
57.720        80
57.730        53
57.740       100
57.750       107
57.760        47
57.770        93
57.780        73
57.790       120
57.800        33
57.810        93
57.820        87
57.830        27
57.840        80
57.850        93
57.860        67
57.870       100
57.880        80
57.890        67
57.900        87
57.910        67
57.920       100
57.930        60
57.940        73
57.950        73
57.960        80
57.970       147
57.980       100
57.990        87
58.000        73
58.010       107
58.020        87
58.030        80
58.040        80
58.050        47
58.060       107
58.070       120
58.080        20
58.090       120
58.100        60
58.110       113
58.120        87
58.130        93
58.140        67
58.150        53
58.160        80
58.170        67
58.180        93
58.190        73
58.200       107
58.210        20
58.220        53
58.230        80
58.240        87
58.250       100
58.260        53
58.270       133
58.280        80
58.290        80
58.300        40
58.310       113
58.320        93
58.330        47
58.340        27
58.350       127
58.360        60
58.370       113
58.380        53
58.390        93
58.400        40
58.410        40
58.420        33
58.430        87
58.440        87
58.450        60
58.460        67
58.470       133
58.480        67
58.490        67
58.500        93
58.510        60
58.520        80
58.530        87
58.540        80
58.550        80
58.560        60
58.570        73
58.580        93
58.590        80
58.600        60
58.610        80
58.620        73
58.630        60
58.640        93
58.650        60
58.660        67
58.670        73
58.680        33
58.690        53
58.700        93
58.710        73
58.720        67
58.730         7
58.740        80
58.750        60
58.760        47
58.770        53
58.780        47
58.790       100
58.800        47
58.810        40
58.820        47
58.830        67
58.840        87
58.850        47
58.860        53
58.870        33
58.880        60
58.890        87
58.900        80
58.910        47
58.920        60
58.930        60
58.940        93
58.950        53
58.960        33
58.970        40
58.980        53
58.990       127
59.000        80
59.010        47
59.020        80
59.030        67
59.040        80
59.050        80
59.060        80
59.070        60
59.080        80
59.090        40
59.100        73
59.110        87
59.120        40
59.130        40
59.140        93
59.150        47
59.160        80
59.170        53
59.180        47
59.190        53
59.200        67
59.210        87
59.220        67
59.230        67
59.240        67
59.250        47
59.260        80
59.270        67
59.280        67
59.290        93
59.300        67
59.310        93
59.320        53
59.330        73
59.340        40
59.350        40
59.360        80
59.370        87
59.380        73
59.390        53
59.400        47
59.410       100
59.420        60
59.430        40
59.440        53
59.450        67
59.460        73
59.470        53
59.480        47
59.490        60
59.500        47
59.510        40
59.520        27
59.530       100
59.540        80
59.550        53
59.560        47
59.570        87
59.580        67
59.590        73
59.600       120
59.610        60
59.620        33
59.630        73
59.640        33
59.650        20
59.660        53
59.670        67
59.680        33
59.690        33
59.700        73
59.710        73
59.720        73
59.730        47
59.740       100
59.750        60
59.760        73
59.770        60
59.780        87
59.790        87
59.800        40
59.810        73
59.820        33
59.830        93
59.840        47
59.850        67
59.860       100
59.870        80
59.880        40
59.890        53
59.900        47
59.910        67
59.920        60
59.930        53
59.940        60
59.950        73
59.960        53
59.970        33
59.980        40
59.990        73
60.000        73
