20.000        53
20.010        27
20.020        27
20.030        27
20.040        67
20.050        40
20.060        67
20.070        93
20.080        67
20.090        80
20.100        80
20.110        53
20.120        93
20.130        53
20.140        67
20.150        27
20.160        53
20.170        40
20.180         0
20.190       107
20.200        67
20.210        13
20.220        67
20.230        67
20.240        27
20.250        40
20.260        40
20.270       107
20.280        67
20.290        80
20.300        80
20.310        53
20.320        27
20.330        13
20.340        40
20.350        27
20.360        40
20.370        67
20.380        53
20.390        40
20.400        53
20.410        53
20.420        13
20.430        53
20.440        13
20.450        80
20.460        53
20.470         0
20.480        40
20.490        13
20.500        53
20.510        13
20.520        40
20.530        27
20.540        80
20.550        13
20.560        53
20.570        53
20.580        13
20.590        27
20.600        67
20.610        67
20.620        53
20.630        40
20.640        40
20.650        27
20.660        13
20.670        27
20.680        13
20.690        53
20.700        53
20.710        53
20.720        40
20.730        27
20.740        40
20.750        80
20.760        27
20.770        13
20.780        67
20.790        53
20.800        13
20.810        80
20.820        13
20.830        67
20.840         0
20.850        13
20.860        40
20.870        27
20.880        80
20.890        40
20.900        27
20.910        40
20.920        53
20.930        80
20.940         0
20.950        67
20.960        80
20.970        67
20.980        27
20.990        13
21.000        27
21.010        27
21.020        40
21.030        27
21.040        27
21.050        53
21.060        13
21.070        13
21.080        53
21.090        53
21.100        27
21.110        53
21.120        53
21.130        53
21.140        80
21.150        40
21.160        27
21.170        67
21.180        40
21.190        13
21.200        13
21.210        53
21.220        27
21.230        67
21.240        27
21.250       107
21.260        13
21.270        13
21.280        67
21.290        40
21.300        40
21.310        13
21.320        40
21.330        40
21.340        67
21.350        13
21.360        53
21.370        40
21.380        53
21.390        53
21.400        67
21.410       107
21.420        80
21.430        53
21.440        27
21.450        40
21.460        80
21.470        40
21.480        67
21.490        27
21.500        40
21.510        53
21.520        67
21.530        40
21.540        27
21.550        53
21.560        13
21.570        27
21.580        13
21.590        13
21.600        40
21.610        27
21.620        40
21.630        13
21.640        80
21.650        13
21.660        40
21.670        27
21.680        27
21.690        27
21.700        13
21.710        80
21.720        67
21.730        40
21.740        40
21.750        40
21.760        67
21.770        40
21.780        13
21.790        13
21.800        53
21.810        13
21.820        40
21.830        40
21.840        53
21.850        53
21.860        13
21.870        53
21.880        53
21.890        67
21.900        53
21.910        67
21.920        13
21.930        13
21.940        67
21.950        53
21.960        53
21.970        67
21.980       107
21.990        27
22.000        27
22.010        67
22.020        80
22.030        27
22.040        40
22.050        13
22.060        67
22.070        40
22.080        27
22.090        67
22.100        40
22.110        53
22.120        53
22.130        67
22.140        80
22.150         0
22.160        67
22.170        13
22.180        27
22.190        40
22.200        27
22.210        13
22.220       107
22.230       133
22.240        53
22.250       120
22.260        80
22.270       120
22.280        93
22.290        80
22.300        67
22.310        53
22.320        67
22.330       173
22.340       173
22.350       107
22.360       160
22.370        53
22.380       200
22.390       160
22.400       147
22.410       253
22.420       293
22.430       293
22.440       240
22.450       293
22.460       280
22.470       307
22.480       453
22.490       440
22.500       440
22.510       267
22.520       426
22.530       480
22.540       506
22.550       347
22.560       466
22.570       373
22.580       347
22.590       373
22.600       253
22.610       360
22.620       213
22.630       147
22.640       187
22.650       160
22.660       120
22.670       133
22.680       120
22.690        93
22.700        93
22.710        80
22.720        27
22.730       120
22.740        53
22.750        80
22.760        40
22.770        40
22.780        27
22.790        27
22.800        67
22.810        13
22.820        40
22.830       120
22.840        27
22.850        53
22.860        67
22.870        27
22.880        53
22.890        53
22.900        27
22.910        67
22.920        67
22.930        40
22.940         0
22.950        27
22.960         0
22.970        53
22.980        67
22.990        53
23.000        27
23.010        53
23.020        53
23.030        27
23.040       107
23.050        27
23.060        53
23.070        80
23.080        80
23.090        27
23.100        67
23.110        53
23.120        67
23.130        13
23.140        27
23.150        27
23.160        27
23.170        27
23.180        40
23.190        27
23.200        13
23.210        67
23.220        13
23.230        40
23.240        27
23.250        40
23.260        53
23.270        67
23.280       120
23.290        13
23.300        13
23.310        40
23.320        93
23.330        27
23.340        40
23.350        53
23.360        40
23.370        53
23.380        67
23.390        53
23.400         0
23.410        27
23.420        67
23.430        27
23.440        80
23.450        27
23.460        27
23.470        67
23.480        93
23.490        80
23.500        27
23.510        27
23.520        13
23.530        13
23.540        40
23.550        40
23.560        40
23.570        27
23.580        13
23.590        13
23.600        40
23.610        27
23.620        80
23.630        27
23.640         0
23.650        40
23.660        80
23.670         0
23.680        13
23.690        13
23.700        67
23.710        93
23.720        40
23.730        40
23.740        13
23.750        27
23.760         0
23.770        53
23.780        27
23.790        53
23.800        53
23.810        40
23.820        40
23.830        80
23.840        13
23.850        40
23.860        40
23.870        27
23.880        53
23.890         0
23.900        13
23.910        40
23.920        27
23.930       107
23.940        53
23.950        40
23.960        40
23.970        27
23.980        40
23.990        40
24.000        13
24.010        40
24.020        67
24.030        53
24.040       120
24.050        13
24.060        67
24.070        40
24.080        53
24.090        27
24.100        27
24.110        13
24.120        40
24.130        53
24.140        40
24.150        67
24.160        53
24.170        67
24.180        13
24.190        67
24.200        13
24.210        53
24.220        40
24.230        13
24.240        13
24.250        40
24.260        53
24.270        40
24.280        53
24.290        40
24.300        40
24.310        80
24.320        13
24.330        27
24.340        27
24.350        13
24.360        67
24.370        27
24.380        13
24.390        53
24.400        40
24.410        40
24.420        40
24.430        67
24.440        40
24.450        40
24.460        40
24.470        67
24.480        53
24.490        40
24.500        53
24.510        27
24.520        27
24.530        40
24.540        27
24.550        53
24.560        13
24.570        13
24.580        27
24.590        13
24.600        40
24.610        40
24.620        27
24.630        67
24.640        53
24.650        27
24.660        40
24.670        67
24.680        53
24.690        27
24.700        27
24.710        53
24.720        27
24.730        53
24.740        40
24.750        27
24.760        27
24.770        27
24.780        40
24.790        40
24.800        27
24.810        27
24.820        53
24.830        93
24.840        67
24.850        27
24.860        13
24.870        40
24.880        67
24.890        27
24.900        40
24.910        67
24.920        40
24.930        27
24.940        27
24.950        27
24.960        27
24.970        27
24.980        40
24.990        13
25.000        53
25.010        67
25.020        27
25.030        40
25.040        27
25.050        27
25.060        53
25.070        40
25.080       107
25.090        40
25.100        53
25.110        27
25.120        80
25.130        13
25.140        27
25.150        13
25.160        53
25.170        80
25.180        40
25.190        27
25.200        53
25.210        67
25.220        53
25.230        13
25.240        27
25.250        40
25.260        53
25.270        53
25.280        40
25.290        13
25.300        53
25.310        27
25.320        53
25.330        40
25.340        40
25.350        27
25.360        67
25.370        53
25.380        53
25.390        27
25.400         0
25.410        53
25.420         0
25.430        40
25.440        40
25.450        40
25.460        27
25.470        53
25.480       120
25.490        53
25.500        40
25.510        93
25.520        40
25.530        67
25.540       107
25.550       173
25.560       147
25.570        80
25.580        93
25.590       173
25.600       267
25.610       147
25.620       213
25.630       173
25.640       280
25.650       280
25.660       293
25.670       293
25.680       387
25.690       320
25.700       466
25.710       493
25.720       426
25.730       480
25.740       560
25.750       600
25.760       573
25.770       573
25.780       560
25.790       400
25.800       387
25.810       413
25.820       373
25.830       506
25.840       360
25.850       413
25.860       267
25.870       267
25.880       240
25.890       187
25.900       133
25.910        93
25.920        93
25.930       133
25.940        40
25.950        13
25.960        27
25.970        27
25.980        80
25.990        53
26.000        40
26.010        80
26.020        40
26.030        67
26.040        53
26.050        53
26.060        53
26.070        27
26.080        27
26.090        80
26.100        27
26.110        40
26.120         0
26.130        27
26.140        53
26.150        40
26.160        80
26.170        13
26.180        67
26.190        80
26.200        53
26.210         0
26.220        13
26.230        40
26.240        80
26.250        40
26.260        53
26.270        40
26.280        13
26.290        40
26.300        13
26.310        40
26.320        53
26.330        27
26.340        27
26.350        27
26.360        13
26.370        27
26.380         0
26.390        53
26.400         0
26.410        27
26.420        40
26.430        27
26.440        40
26.450        40
26.460        13
26.470        53
26.480        53
26.490        53
26.500        13
26.510        27
26.520        40
26.530        13
26.540        13
26.550        27
26.560        53
26.570        53
26.580         0
26.590        53
26.600        40
26.610        67
26.620         0
26.630        13
26.640        27
26.650        67
26.660        53
26.670        53
26.680        67
26.690        40
26.700        27
26.710        13
26.720        27
26.730        53
26.740         0
26.750        27
26.760        67
26.770        13
26.780        53
26.790        80
26.800        67
26.810        53
26.820        27
26.830        27
26.840        53
26.850        13
26.860        27
26.870        13
26.880         0
26.890        40
26.900        93
26.910        13
26.920        53
26.930        13
26.940        40
26.950        40
26.960        27
26.970        27
26.980        27
26.990        53
27.000        27
27.010        40
27.020        27
27.030        53
27.040        13
27.050        27
27.060        27
27.070        80
27.080        80
27.090        40
27.100        53
27.110        27
27.120        27
27.130        67
27.140        13
27.150        27
27.160         0
27.170        27
27.180        13
27.190        53
27.200        13
27.210        13
27.220        27
27.230        53
27.240        53
27.250        27
27.260        40
27.270        27
27.280         0
27.290        67
27.300        13
27.310        40
27.320        53
27.330        53
27.340        13
27.350        67
27.360        13
27.370        53
27.380        40
27.390        27
27.400        40
27.410        27
27.420        13
27.430        53
27.440        40
27.450        53
27.460        53
27.470        40
27.480        67
27.490        27
27.500        27
27.510        40
27.520        27
27.530        13
27.540        40
27.550        93
27.560        27
27.570        40
27.580        40
27.590        27
27.600        13
27.610        27
27.620        40
27.630        40
27.640        27
27.650        40
27.660        13
27.670        67
27.680        13
27.690        40
27.700        27
27.710        13
27.720        53
27.730        67
27.740        40
27.750        67
27.760        67
27.770         0
27.780        53
27.790        80
27.800        93
27.810        27
27.820        80
27.830        27
27.840        27
27.850        67
27.860         0
27.870        27
27.880        53
27.890        27
27.900        27
27.910        13
27.920        40
27.930         0
27.940        13
27.950         0
27.960        27
27.970        67
27.980         0
27.990        27
28.000        27
28.010        40
28.020         0
28.030        53
28.040        13
28.050        27
28.060        53
28.070        40
28.080        13
28.090         0
28.100        27
28.110         0
28.120        13
28.130        27
28.140        27
28.150        93
28.160         0
28.170        13
28.180        27
28.190        53
28.200        53
28.210        13
28.220        13
28.230        13
28.240        40
28.250        40
28.260        53
28.270        67
28.280         0
28.290         0
28.300         0
28.310        27
28.320        53
28.330        27
28.340        53
28.350        27
28.360        27
28.370        40
28.380        93
28.390        27
28.400        40
28.410        40
28.420        13
28.430        27
28.440        67
28.450        53
28.460        27
28.470        27
28.480        80
28.490        40
28.500        67
28.510        40
28.520        27
28.530        27
28.540       120
28.550        40
28.560       120
28.570        80
28.580       107
28.590       107
28.600        80
28.610        93
28.620       160
28.630       133
28.640       160
28.650       227
28.660       240
28.670       213
28.680       107
28.690       173
28.700       133
28.710       173
28.720        93
28.730       173
28.740        93
28.750       253
28.760        80
28.770        13
28.780       120
28.790       107
28.800        40
28.810       107
28.820        27
28.830        80
28.840        80
28.850        80
28.860        93
28.870        80
28.880       107
28.890        53
28.900        80
28.910        40
28.920        53
28.930        53
28.940        93
28.950       133
28.960        67
28.970        67
28.980        40
28.990        13
29.000        93
29.010        67
29.020        53
29.030        67
29.040        93
29.050       120
29.060        40
29.070        80
29.080        13
29.090        27
29.100        53
29.110       133
29.120        53
29.130       120
29.140       107
29.150        40
29.160        67
29.170        80
29.180        67
29.190        27
29.200        80
29.210        80
29.220       107
29.230        80
29.240        53
29.250        27
29.260       107
29.270        53
29.280        80
29.290       173
29.300       107
29.310        93
29.320       120
29.330       107
29.340       200
29.350       267
29.360       133
29.370       240
29.380       160
29.390       227
29.400       187
29.410       320
29.420       347
29.430       200
29.440       333
29.450       253
29.460       453
29.470       480
29.480       693
29.490       880
29.500      1093
29.510       933
29.520      1040
29.530      1133
29.540      1186
29.550      1453
29.560      1439
29.570      1200
29.580      1120
29.590      1506
29.600      1146
29.610      1213
29.620       800
29.630       760
29.640       960
29.650       693
29.660       573
29.670       560
29.680       533
29.690       480
29.700       387
29.710       267
29.720       213
29.730       267
29.740       227
29.750       213
29.760       160
29.770        80
29.780       133
29.790        67
29.800       107
29.810        80
29.820       107
29.830        27
29.840        80
29.850        40
29.860        67
29.870        67
29.880        67
29.890        93
29.900        40
29.910        53
29.920        53
29.930        13
29.940        40
29.950        53
29.960        40
29.970        53
29.980        53
29.990        53
30.000        27
30.010        13
30.020        40
30.030        53
30.040        40
30.050        27
30.060        53
30.070        67
30.080        13
30.090        53
30.100        40
30.110        53
30.120        40
30.130        40
30.140        67
30.150        40
30.160        93
30.170        93
30.180        80
30.190        53
30.200        67
30.210        67
30.220       120
30.230        40
30.240       133
30.250       173
30.260        93
30.270       107
30.280        67
30.290       120
30.300        80
30.310       173
30.320       173
30.330       173
30.340       267
30.350       160
30.360       160
30.370       253
30.380       333
30.390       253
30.400       267
30.410       373
30.420       240
30.430       280
30.440       293
30.450       293
30.460       293
30.470       227
30.480       240
30.490       307
30.500       320
30.510       253
30.520       227
30.530       200
30.540       160
30.550       160
30.560       173
30.570        53
30.580       120
30.590        40
30.600       147
30.610        67
30.620        40
30.630        13
30.640       107
30.650        80
30.660        40
30.670        40
30.680        93
30.690        40
30.700        13
30.710        27
30.720        53
30.730        53
30.740        40
30.750        27
30.760        27
30.770        13
30.780        13
30.790        40
30.800        13
30.810        27
30.820        13
30.830        13
30.840        53
30.850        40
30.860        40
30.870        53
30.880        13
30.890         0
30.900        13
30.910        53
30.920        13
30.930        13
30.940        27
30.950        27
30.960        13
30.970        67
30.980        27
30.990         0
31.000        67
31.010        40
31.020        13
31.030        40
31.040        27
31.050       107
31.060        13
31.070        13
31.080        40
31.090        67
31.100        40
31.110        40
31.120        53
31.130        40
31.140        40
31.150        80
31.160        40
31.170        40
31.180        27
31.190        27
31.200        40
31.210        40
31.220        53
31.230         0
31.240        53
31.250        40
31.260        67
31.270         0
31.280        40
31.290        27
31.300        27
31.310        40
31.320        27
31.330        13
31.340         0
31.350        27
31.360        67
31.370        67
31.380        53
31.390        40
31.400        13
31.410        53
31.420        27
31.430        27
31.440         0
31.450        27
31.460        53
31.470        93
31.480        27
31.490        53
31.500        40
31.510        27
31.520        27
31.530        53
31.540        27
31.550        13
31.560        27
31.570        13
31.580        53
31.590        40
31.600        13
31.610        53
31.620        40
31.630        13
31.640         0
31.650        13
31.660        27
31.670        53
31.680        27
31.690        27
31.700        13
31.710        53
31.720        80
31.730        67
31.740        80
31.750        53
31.760         0
31.770        27
31.780        93
31.790        67
31.800        53
31.810        13
31.820        13
31.830        40
31.840        53
31.850        53
31.860       107
31.870        40
31.880        53
31.890        40
31.900        53
31.910        67
31.920       120
31.930        40
31.940        93
31.950        80
31.960       147
31.970       120
31.980       107
31.990       160
32.000       133
32.010       213
32.020       147
32.030       253
32.040       280
32.050       187
32.060       200
32.070       293
32.080       347
32.090       440
32.100       466
32.110       347
32.120       466
32.130       333
32.140       413
32.150       506
32.160       293
32.170       400
32.180       347
32.190       280
32.200       320
32.210       400
32.220       360
32.230       280
32.240       240
32.250       267
32.260       173
32.270       227
32.280       107
32.290       160
32.300        93
32.310       107
32.320       147
32.330       160
32.340        27
32.350        80
32.360        53
32.370        40
32.380        40
32.390        13
32.400        53
32.410        27
32.420       133
32.430         0
32.440        40
32.450        27
32.460        27
32.470        40
32.480        67
32.490         0
32.500       107
32.510        27
32.520        27
32.530        27
32.540        13
32.550        27
32.560         0
32.570        13
32.580        40
32.590        13
32.600        40
32.610        27
32.620        27
32.630        13
32.640        13
32.650        53
32.660        27
32.670        53
32.680        53
32.690        27
32.700        13
32.710        67
32.720        53
32.730        13
32.740        27
32.750        40
32.760        27
32.770         0
32.780        40
32.790        27
32.800       107
32.810        53
32.820        27
32.830        40
32.840        27
32.850        40
32.860        27
32.870        27
32.880         0
32.890        53
32.900        27
32.910        27
32.920        13
32.930        13
32.940        53
32.950         0
32.960        53
32.970        27
32.980        40
32.990        13
33.000        40
33.010        40
33.020        67
33.030        13
33.040        13
33.050         0
33.060        13
33.070        80
33.080        27
33.090        40
33.100        40
33.110        53
33.120        40
33.130        27
33.140        27
33.150        40
33.160        27
33.170         0
33.180         0
33.190        27
33.200        13
33.210        13
33.220        13
33.230        13
33.240        13
33.250         0
33.260        27
33.270        27
33.280        27
33.290        13
33.300        27
33.310        27
33.320        27
33.330        13
33.340        13
33.350        67
33.360        27
33.370         0
33.380        40
33.390        27
33.400        13
33.410        40
33.420        13
33.430        13
33.440        40
33.450        53
33.460        13
33.470        13
33.480        13
33.490        13
33.500        13
33.510        13
33.520        13
33.530        67
33.540        40
33.550        13
33.560        27
33.570         0
33.580         0
33.590        13
33.600        13
33.610        40
33.620         0
33.630        27
33.640        27
33.650        27
33.660        53
33.670        27
33.680         0
33.690        27
33.700        27
33.710        27
33.720        27
33.730         0
33.740        40
33.750         0
33.760        53
33.770        27
33.780        13
33.790        40
33.800        27
33.810        40
33.820        67
33.830        13
33.840         0
33.850         0
33.860        27
33.870        40
33.880        27
33.890        13
33.900        40
33.910        53
33.920        13
33.930        27
33.940        27
33.950        13
33.960        53
33.970        40
33.980        13
33.990        27
34.000        13
34.010        27
34.020        13
34.030        53
34.040        53
34.050        67
34.060         0
34.070        27
34.080        27
34.090        27
34.100        53
34.110        53
34.120         0
34.130        27
34.140        13
34.150        13
34.160        53
34.170        27
34.180         0
34.190        13
34.200        40
34.210        13
34.220         0
34.230        40
34.240        40
34.250        27
34.260        27
34.270        13
34.280        53
34.290        27
34.300         0
34.310        27
34.320        27
34.330        27
34.340        13
34.350        40
34.360        27
34.370        40
34.380         0
34.390        40
34.400        13
34.410         0
34.420        27
34.430        53
34.440        27
34.450        27
34.460         0
34.470        27
34.480        27
34.490        67
34.500        27
34.510        13
34.520        13
34.530        40
34.540        13
34.550        27
34.560         0
34.570        13
34.580        13
34.590         0
34.600        53
34.610        53
34.620        27
34.630        27
34.640        40
34.650        40
34.660        13
34.670        27
34.680        80
34.690        27
34.700         0
34.710        13
34.720        27
34.730         0
34.740        27
34.750        13
34.760        40
34.770        13
34.780         0
34.790         0
34.800        13
34.810        27
34.820        53
34.830        13
34.840        27
34.850        40
34.860        40
34.870         0
34.880        40
34.890         0
34.900         0
34.910        13
34.920        13
34.930         0
34.940        13
34.950         0
34.960        13
34.970         0
34.980         0
34.990        27
35.000        27
35.010        27
35.020        13
35.030        13
35.040        27
35.050        13
35.060        27
35.070        13
35.080        27
35.090        27
35.100         0
35.110        13
35.120        27
35.130        53
35.140        13
35.150        13
35.160        53
35.170        27
35.180        27
35.190         0
35.200        13
35.210        13
35.220        13
35.230         0
35.240        13
35.250        13
35.260        27
35.270        27
35.280         0
35.290         0
35.300        13
35.310        27
35.320        27
35.330        13
35.340        27
35.350        40
35.360        13
35.370        27
35.380        27
35.390         0
35.400        27
35.410         0
35.420         0
35.430        13
35.440        13
35.450        53
35.460        67
35.470        27
35.480        13
35.490        13
35.500         0
35.510        27
35.520         0
35.530        40
35.540        13
35.550        13
35.560        13
35.570         0
35.580        13
35.590        13
35.600        13
35.610         0
35.620        27
35.630        13
35.640        13
35.650        27
35.660        27
35.670        53
35.680        13
35.690        53
35.700        80
35.710        27
35.720         0
35.730        27
35.740        27
35.750        40
35.760        13
35.770        13
35.780        27
35.790        80
35.800        27
35.810        27
35.820        40
35.830        13
35.840        27
35.850        53
35.860         0
35.870        40
35.880        53
35.890        40
35.900        13
35.910         0
35.920        27
35.930         0
35.940        13
35.950         0
35.960         0
35.970        13
35.980        40
35.990        27
36.000        40
36.010        40
36.020        27
36.030        40
36.040        27
36.050        53
36.060        27
36.070        13
36.080        13
36.090        67
36.100        40
36.110        80
36.120        27
36.130        13
36.140         0
36.150        13
36.160        27
36.170         0
36.180        40
36.190        13
36.200        40
36.210        13
36.220        13
36.230        40
36.240        13
36.250        13
36.260        27
36.270        40
36.280        40
36.290         0
36.300        27
36.310         0
36.320        40
36.330        27
36.340        13
36.350        13
36.360        13
36.370        13
36.380        40
36.390        40
36.400         0
36.410        13
36.420         0
36.430         0
36.440        27
36.450        13
36.460        67
36.470        27
36.480        13
36.490        13
36.500        40
36.510         0
36.520        53
36.530         0
36.540         0
36.550        27
36.560        13
36.570        13
36.580        27
36.590         0
36.600        13
36.610        13
36.620        27
36.630        13
36.640        13
36.650        40
36.660        53
36.670        13
36.680         0
36.690        27
36.700        27
36.710        13
36.720        40
36.730         0
36.740        13
36.750        13
36.760        13
36.770        40
36.780        13
36.790        27
36.800        13
36.810        40
36.820        40
36.830        27
36.840        13
36.850         0
36.860        13
36.870        27
36.880         0
36.890        27
36.900        13
36.910        40
36.920        40
36.930        27
36.940        53
36.950         0
36.960        27
36.970        27
36.980        40
36.990        53
37.000        27
37.010        40
37.020        27
37.030        13
37.040         0
37.050         0
37.060        27
37.070         0
37.080        13
37.090        67
37.100        27
37.110        27
37.120         0
37.130        53
37.140        27
37.150        13
37.160        40
37.170        27
37.180        13
37.190        27
37.200         0
37.210        13
37.220         0
37.230        13
37.240        40
37.250        13
37.260        27
37.270        13
37.280        27
37.290        13
37.300        13
37.310        40
37.320        13
37.330        13
37.340        27
37.350        53
37.360         0
37.370        40
37.380        13
37.390         0
37.400        40
37.410        27
37.420         0
37.430        13
37.440        13
37.450        40
37.460        27
37.470        80
37.480        67
37.490        27
37.500        13
37.510        13
37.520        40
37.530        40
37.540        13
37.550         0
37.560        67
37.570        13
37.580         0
37.590        13
37.600         0
37.610        27
37.620         0
37.630        27
37.640         0
37.650        27
37.660        13
37.670        13
37.680        27
37.690        67
37.700        13
37.710        27
37.720        13
37.730        53
37.740        53
37.750        13
37.760        13
37.770        27
37.780        13
37.790        13
37.800        67
37.810         0
37.820         0
37.830         0
37.840        13
37.850         0
37.860        27
37.870         0
37.880         0
37.890         0
37.900        40
37.910         0
37.920        27
37.930         0
37.940         0
37.950        80
37.960        13
37.970        13
37.980         0
37.990        13
38.000        27
38.010        13
38.020        40
38.030         0
38.040        67
38.050        13
38.060        40
38.070        13
38.080         0
38.090        13
38.100        67
38.110        13
38.120        27
38.130        13
38.140        13
38.150        13
38.160        27
38.170        13
38.180         0
38.190        13
38.200        13
38.210        27
38.220        27
38.230        67
38.240        27
38.250        27
38.260         0
38.270        27
38.280        40
38.290        27
38.300        27
38.310        27
38.320         0
38.330         0
38.340         0
38.350        27
38.360        13
38.370         0
38.380         0
38.390        27
38.400        40
38.410        13
38.420        13
38.430        40
38.440        40
38.450        27
38.460        13
38.470         0
38.480        27
38.490        13
38.500        67
38.510         0
38.520        40
38.530        13
38.540        13
38.550        27
38.560        13
38.570        27
38.580        53
38.590        53
38.600        40
38.610         0
38.620        13
38.630        40
38.640        13
38.650        27
38.660        27
38.670        40
38.680        67
38.690        13
38.700        13
38.710        40
38.720        27
38.730        27
38.740        67
38.750        53
38.760        13
38.770        53
38.780        27
38.790        27
38.800        40
38.810        40
38.820        27
38.830        53
38.840        40
38.850        53
38.860        27
38.870        67
38.880        93
38.890        40
38.900        27
38.910        53
38.920        67
38.930        40
38.940        40
38.950        13
38.960        53
38.970        40
38.980        67
38.990        27
39.000        67
39.010       120
39.020        67
39.030        93
39.040        13
39.050        27
39.060        40
39.070        53
39.080        67
39.090        40
39.100        40
39.110        40
39.120        67
39.130        53
39.140        53
39.150        13
39.160        27
39.170        40
39.180        13
39.190        40
39.200        40
39.210        40
39.220        67
39.230        13
39.240         0
39.250        53
39.260        13
39.270        13
39.280        40
39.290        13
39.300        13
39.310        67
39.320        27
39.330        27
39.340        13
39.350        27
39.360        27
39.370        13
39.380        27
39.390        27
39.400        27
39.410        13
39.420        40
39.430        13
39.440        13
39.450        27
39.460        13
39.470        27
39.480        13
39.490        40
39.500        40
39.510        13
39.520        13
39.530         0
39.540        13
39.550        40
39.560        13
39.570        80
39.580         0
39.590        27
39.600        13
39.610         0
39.620         0
39.630        27
39.640         0
39.650        67
39.660        13
39.670         0
39.680        13
39.690        40
39.700        13
39.710         0
39.720        27
39.730        13
39.740        27
39.750        13
39.760        27
39.770         0
39.780        40
39.790         0
39.800        13
39.810        40
39.820        13
39.830        13
39.840        13
39.850        13
39.860        13
39.870        40
39.880         0
39.890        13
39.900        27
39.910        27
39.920        40
39.930        13
39.940        67
39.950        40
39.960        40
39.970        27
39.980        13
39.990         0
40.000        27
40.010        53
40.020        13
40.030        13
40.040        27
40.050        67
40.060         0
40.070        40
40.080        53
40.090        53
40.100        27
40.110        27
40.120        40
40.130        13
40.140        40
40.150         0
40.160         0
40.170         0
40.180        27
40.190        13
40.200        53
40.210        13
40.220         0
40.230         0
40.240        40
40.250         0
40.260        27
40.270        27
40.280        27
40.290        27
40.300        27
40.310        40
40.320        13
40.330         0
40.340         0
40.350        40
40.360         0
40.370        27
40.380        13
40.390         0
40.400        13
40.410        53
40.420        40
40.430        27
40.440        13
40.450        27
40.460        13
40.470        27
40.480         0
40.490         0
40.500        40
40.510        13
40.520         0
40.530         0
40.540         0
40.550         0
40.560        27
40.570        27
40.580        13
40.590         0
40.600        40
40.610        13
40.620        27
40.630        27
40.640        13
40.650        27
40.660        27
40.670        13
40.680         0
40.690        27
40.700        27
40.710        27
40.720        13
40.730        13
40.740        13
40.750        13
40.760        27
40.770        40
40.780        53
40.790        13
40.800        27
40.810         0
40.820        13
40.830        13
40.840        40
40.850        40
40.860        53
40.870        53
40.880        53
40.890         0
40.900        40
40.910        27
40.920        40
40.930        13
40.940        53
40.950        53
40.960        40
40.970        27
40.980        27
40.990        13
41.000        53
41.010         0
41.020         0
41.030        27
41.040        67
41.050        27
41.060        13
41.070        53
41.080        13
41.090         0
41.100        27
41.110        27
41.120        53
41.130        13
41.140        40
41.150        40
41.160        13
41.170        13
41.180         0
41.190        27
41.200        40
41.210         0
41.220        13
41.230        27
41.240        27
41.250        27
41.260        13
41.270        13
41.280        53
41.290        40
41.300        13
41.310        13
41.320        27
41.330        27
41.340        27
41.350        27
41.360        27
41.370        27
41.380         0
41.390        13
41.400        93
41.410        40
41.420        67
41.430        13
41.440         0
41.450        13
41.460        27
41.470        40
41.480        40
41.490        13
41.500        40
41.510        13
41.520         0
41.530         0
41.540        13
41.550         0
41.560         0
41.570        53
41.580        40
41.590        13
41.600        13
41.610         0
41.620        13
41.630        53
41.640        40
41.650        27
41.660        13
41.670        27
41.680         0
41.690        40
41.700        27
41.710        13
41.720         0
41.730         0
41.740        27
41.750        53
41.760        27
41.770        27
41.780        67
41.790        27
41.800         0
41.810        13
41.820        27
41.830        27
41.840         0
41.850        27
41.860        13
41.870        13
41.880         0
41.890        53
41.900        27
41.910        40
41.920        27
41.930         0
41.940        27
41.950        67
41.960         0
41.970        13
41.980         0
41.990        27
42.000         0
42.010         0
42.020        27
42.030        27
42.040        13
42.050        40
42.060        67
42.070        13
42.080        27
42.090        27
42.100        27
42.110        80
42.120        13
42.130         0
42.140        40
42.150        40
42.160        13
42.170        93
42.180        67
42.190       133
42.200        80
42.210        67
42.220        93
42.230       120
42.240        93
42.250        40
42.260       173
42.270       160
42.280       120
42.290       213
42.300       240
42.310       187
42.320       187
42.330       147
42.340       253
42.350       173
42.360       160
42.370       160
42.380       107
42.390       107
42.400       173
42.410       120
42.420       173
42.430       213
42.440       187
42.450       107
42.460        67
42.470        93
42.480       120
42.490        53
42.500        67
42.510       107
42.520        67
42.530        40
42.540        67
42.550        80
42.560        27
42.570        40
42.580       107
42.590        27
42.600        67
42.610        53
42.620        13
42.630        27
42.640        67
42.650        27
42.660        40
42.670        27
42.680        27
42.690        27
42.700        53
42.710        53
42.720        13
42.730        13
42.740        13
42.750        13
42.760         0
42.770        13
42.780        13
42.790         0
42.800        40
42.810        40
42.820        13
42.830        13
42.840        13
42.850        13
42.860        53
42.870        13
42.880        27
42.890        13
42.900        13
42.910        40
42.920        27
42.930        40
42.940        27
42.950        13
42.960        13
42.970        27
42.980        27
42.990        13
43.000        27
43.010        67
43.020        13
43.030        13
43.040        13
43.050         0
43.060        40
43.070        27
43.080        13
43.090        40
43.100        13
43.110        27
43.120         0
43.130        53
43.140        27
43.150        13
43.160        27
43.170        80
43.180        40
43.190        27
43.200        13
43.210         0
43.220        27
43.230        27
43.240        13
43.250        27
43.260         0
43.270        40
43.280        27
43.290        13
43.300        13
43.310        67
43.320        27
43.330        27
43.340        40
43.350        27
43.360        27
43.370        40
43.380        13
43.390        27
43.400        40
43.410        53
43.420        40
43.430        13
43.440        80
43.450        13
43.460        13
43.470        27
43.480        13
43.490        67
43.500        40
43.510         0
43.520        13
43.530        13
43.540        53
43.550        67
43.560        40
43.570        13
43.580        80
43.590        80
43.600        53
43.610       107
43.620        80
43.630        53
43.640        40
43.650        67
43.660        53
43.670         0
43.680       120
43.690        27
43.700        93
43.710        67
43.720         0
43.730         0
43.740        53
43.750         0
43.760        40
43.770        53
43.780        40
43.790        13
43.800        13
43.810        13
43.820        13
43.830        13
43.840        13
43.850        13
43.860        40
43.870        27
43.880        40
43.890        40
43.900        13
43.910        13
43.920        40
43.930        27
43.940         0
43.950         0
43.960        40
43.970         0
43.980        40
43.990         0
44.000        53
44.010        13
44.020        27
44.030         0
44.040         0
44.050        27
44.060        40
44.070        27
44.080        40
44.090        13
44.100        13
44.110        13
44.120        40
44.130        40
44.140        27
44.150        67
44.160        13
44.170         0
44.180        13
44.190        53
44.200        40
44.210        40
44.220        13
44.230        53
44.240        40
44.250        80
44.260        40
44.270        93
44.280        40
44.290        40
44.300        53
44.310        27
44.320         0
44.330        13
44.340        40
44.350        27
44.360        40
44.370        40
44.380        27
44.390        40
44.400        40
44.410        40
44.420        40
44.430        13
44.440        13
44.450        27
44.460        13
44.470        80
44.480        40
44.490        13
44.500         0
44.510        13
44.520        13
44.530        40
44.540        13
44.550         0
44.560        27
44.570        40
44.580        27
44.590        13
44.600        27
44.610        27
44.620         0
44.630        53
44.640         0
44.650        27
44.660        27
44.670        27
44.680        40
44.690         0
44.700        40
44.710        13
44.720        27
44.730        27
44.740        27
44.750        67
44.760        40
44.770        13
44.780        53
44.790        53
44.800        13
44.810         0
44.820        53
44.830        13
44.840        40
44.850        13
44.860        53
44.870        27
44.880        67
44.890        13
44.900        27
44.910        27
44.920         0
44.930         0
44.940        13
44.950        13
44.960        27
44.970        13
44.980        13
44.990         0
45.000        27
45.010        40
45.020        13
45.030        27
45.040        27
45.050        13
45.060        53
45.070        27
45.080        40
45.090        40
45.100        13
45.110        13
45.120        13
45.130        27
45.140        67
45.150        40
45.160        27
45.170         0
45.180        40
45.190        13
45.200        53
45.210        27
45.220        13
45.230        27
45.240        53
45.250        27
45.260        13
45.270        27
45.280        40
45.290        40
45.300         0
45.310        13
45.320        27
45.330        13
45.340        13
45.350        13
45.360        13
45.370        27
45.380        40
45.390         0
45.400        40
45.410        13
45.420        67
45.430        13
45.440        40
45.450         0
45.460        27
45.470        40
45.480        40
45.490        67
45.500        13
45.510        13
45.520        13
45.530        13
45.540        13
45.550         0
45.560        67
45.570        67
45.580        27
45.590         0
45.600         0
45.610        53
45.620         0
45.630        67
45.640        27
45.650        67
45.660        13
45.670        13
45.680        27
45.690        27
45.700        53
45.710        40
45.720        67
45.730        40
45.740        27
45.750        67
45.760        67
45.770        40
45.780        93
45.790        27
45.800        67
45.810        53
45.820        40
45.830        93
45.840        40
45.850        40
45.860        80
45.870        53
45.880        67
45.890        93
45.900        53
45.910       107
45.920       107
45.930       133
45.940       213
45.950       253
45.960       147
45.970       213
45.980       133
45.990       120
46.000       333
46.010       280
46.020       347
46.030       280
46.040       347
46.050       213
46.060       240
46.070       426
46.080       280
46.090       347
46.100       173
46.110       253
46.120       307
46.130       333
46.140       267
46.150       267
46.160       240
46.170       253
46.180       253
46.190       280
46.200       200
46.210       227
46.220       173
46.230       160
46.240       187
46.250       240
46.260       160
46.270       133
46.280       120
46.290       120
46.300       133
46.310       120
46.320       160
46.330        53
46.340       107
46.350        53
46.360        53
46.370        67
46.380        27
46.390        67
46.400        53
46.410        67
46.420        80
46.430        80
46.440        27
46.450        40
46.460        27
46.470        40
46.480        13
46.490        13
46.500        13
46.510        80
46.520        67
46.530        93
46.540        27
46.550         0
46.560        27
46.570        27
46.580         0
46.590        67
46.600        27
46.610        40
46.620        67
46.630        40
46.640        13
46.650        40
46.660        40
46.670        27
46.680        40
46.690        13
46.700        27
46.710        67
46.720        27
46.730        67
46.740        67
46.750        80
46.760         0
46.770        53
46.780        27
46.790        40
46.800        53
46.810        53
46.820        40
46.830        67
46.840        40
46.850        27
46.860        27
46.870        40
46.880        27
46.890        93
46.900        27
46.910        40
46.920        27
46.930        67
46.940        13
46.950        40
46.960        67
46.970        13
46.980        27
46.990        40
47.000        27
47.010        13
47.020        53
47.030        40
47.040        27
47.050        27
47.060        13
47.070        53
47.080        27
47.090        13
47.100         0
47.110        40
47.120        67
47.130        80
47.140        80
47.150        93
47.160        80
47.170        80
47.180        80
47.190        93
47.200       133
47.210        53
47.220        53
47.230        40
47.240        40
47.250        40
47.260        27
47.270        40
47.280        67
47.290        27
47.300        13
47.310        53
47.320        67
47.330        27
47.340        27
47.350        40
47.360        27
47.370        27
47.380        13
47.390        13
47.400        27
47.410        27
47.420        40
47.430        40
47.440        40
47.450        53
47.460        27
47.470        53
47.480        53
47.490         0
47.500        40
47.510        67
47.520         0
47.530        13
47.540        67
47.550         0
47.560        40
47.570        13
47.580        40
47.590        80
47.600        13
47.610        53
47.620        13
47.630        13
47.640        27
47.650        27
47.660        40
47.670        27
47.680         0
47.690        27
47.700        13
47.710        13
47.720        13
47.730         0
47.740        27
47.750        67
47.760        13
47.770        13
47.780        13
47.790        27
47.800        53
47.810        40
47.820         0
47.830        40
47.840        13
47.850        40
47.860        13
47.870        27
47.880         0
47.890        40
47.900        13
47.910        40
47.920        27
47.930        27
47.940        27
47.950        40
47.960        53
47.970        27
47.980        40
47.990        67
48.000         0
48.010        13
48.020        40
48.030        67
48.040        40
48.050        27
48.060         0
48.070        13
48.080        27
48.090        13
48.100        13
48.110        13
48.120        40
48.130        13
48.140        53
48.150        27
48.160        13
48.170        27
48.180        53
48.190        40
48.200        27
48.210        13
48.220        27
48.230        40
48.240       373
48.250         0
48.260        27
48.270        40
48.280        13
48.290        13
48.300        40
48.310         0
48.320        13
48.330        93
48.340        27
48.350        27
48.360        40
48.370        27
48.380        67
48.390         0
48.400        27
48.410        67
48.420        53
48.430        27
48.440        27
48.450        40
48.460        53
48.470        80
48.480         0
48.490        67
48.500        53
48.510        93
48.520        13
48.530        40
48.540        40
48.550        13
48.560        27
48.570        27
48.580        53
48.590        27
48.600        13
48.610        40
48.620        27
48.630        40
48.640        27
48.650        53
48.660        40
48.670        13
48.680        13
48.690        13
48.700        40
48.710        27
48.720        40
48.730        27
48.740        93
48.750        27
48.760        13
48.770        40
48.780         0
48.790        40
48.800        40
48.810        40
48.820        27
48.830        13
48.840        40
48.850        67
48.860        40
48.870        80
48.880        40
48.890        80
48.900       120
48.910        93
48.920       107
48.930        53
48.940        80
48.950        67
48.960        93
48.970       120
48.980       160
48.990       200
49.000       147
49.010       120
49.020       187
49.030       147
49.040       240
49.050       107
49.060       133
49.070       133
49.080       173
49.090       147
49.100       160
49.110       320
49.120       147
49.130       200
49.140       160
49.150       187
49.160       187
49.170       200
49.180       213
49.190       120
49.200       160
49.210       173
49.220       227
49.230       147
49.240        93
49.250        80
49.260        53
49.270        93
49.280        93
49.290        27
49.300        67
49.310        67
49.320        40
49.330        40
49.340        67
49.350        40
49.360        93
49.370        27
49.380        27
49.390        27
49.400        40
49.410        40
49.420        13
49.430        27
49.440        53
49.450        40
49.460        27
49.470        27
49.480        80
49.490        40
49.500        27
49.510        27
49.520        67
49.530        13
49.540        27
49.550        40
49.560        13
49.570        27
49.580         0
49.590        67
49.600        13
49.610        13
49.620         0
49.630        53
49.640        53
49.650        27
49.660        27
49.670        27
49.680        13
49.690        53
49.700        13
49.710        27
49.720        13
49.730        13
49.740        13
49.750        27
49.760        13
49.770        13
49.780         0
49.790        13
49.800        40
49.810         0
49.820        27
49.830        40
49.840        27
49.850        27
49.860        27
49.870        27
49.880        13
49.890        27
49.900        40
49.910        27
49.920        13
49.930        40
49.940         0
49.950        27
49.960        40
49.970        27
49.980        53
49.990        13
50.000        27
50.010         0
50.020        13
50.030        13
50.040        53
50.050        27
50.060        40
50.070        40
50.080        13
50.090        27
50.100        13
50.110        13
50.120         0
50.130        40
50.140        40
50.150        53
50.160        53
50.170         0
50.180        40
50.190         0
50.200         0
50.210        27
50.220        27
50.230        13
50.240        13
50.250        27
50.260        40
50.270        27
50.280        40
50.290        40
50.300         0
50.310        27
50.320         0
50.330        40
50.340        13
50.350        40
50.360        13
50.370        53
50.380        27
50.390        13
50.400        27
50.410        67
50.420        13
50.430        13
50.440        40
50.450        27
50.460        13
50.470        40
50.480        40
50.490        40
50.500         0
50.510        27
50.520        13
50.530        13
50.540        40
50.550         0
50.560        13
50.570        40
50.580         0
50.590        27
50.600        40
50.610        53
50.620        13
50.630        27
50.640        27
50.650        27
50.660        27
50.670        80
50.680        27
50.690        13
50.700        40
50.710        67
50.720        53
50.730        27
50.740        67
50.750        53
50.760         0
50.770        53
50.780        67
50.790        40
50.800        40
50.810        53
50.820        40
50.830        67
50.840        40
50.850        27
50.860        40
50.870        67
50.880        53
50.890        40
50.900        27
50.910        53
50.920        53
50.930        13
50.940        13
50.950        53
50.960        40
50.970        40
50.980        93
50.990        53
51.000        67
51.010        40
51.020        80
51.030        53
51.040        40
51.050        27
51.060        80
51.070        27
51.080        53
51.090        40
51.100        27
51.110        53
51.120        67
51.130        53
51.140         0
51.150        80
51.160        27
51.170        93
51.180        27
51.190        80
51.200        67
51.210        67
51.220        40
51.230        80
51.240        80
51.250        40
51.260        67
51.270        93
51.280        67
51.290        53
51.300        53
51.310        27
51.320        53
51.330       120
51.340        67
51.350        40
51.360        53
51.370        80
51.380        27
51.390        93
51.400        40
51.410        27
51.420        40
51.430        40
51.440        40
51.450        67
51.460        93
51.470        27
51.480        67
51.490        40
51.500        53
51.510        67
51.520       107
51.530        93
51.540        53
51.550       107
51.560        27
51.570        53
51.580        80
51.590        67
51.600       147
51.610        80
51.620        53
51.630        80
51.640        67
51.650        80
51.660        93
51.670        80
51.680        80
51.690        67
51.700       120
51.710        93
51.720       147
51.730       107
51.740       120
51.750        93
51.760       200
51.770       160
51.780       160
51.790       107
51.800       147
51.810       280
51.820       213
51.830       200
51.840       187
51.850       280
51.860       333
51.870       253
51.880       320
51.890       307
51.900       360
51.910       280
51.920       240
51.930       347
51.940       387
51.950       426
51.960       586
51.970       440
51.980       360
51.990       453
52.000       480
52.010       280
52.020       373
52.030       280
52.040       440
52.050       133
52.060       387
52.070       293
52.080       240
52.090       293
52.100       267
52.110       280
52.120       267
52.130       173
52.140       293
52.150       293
52.160       227
52.170       187
52.180       213
52.190       173
52.200       240
52.210       173
52.220       160
52.230       160
52.240       253
52.250        53
52.260       147
52.270       147
52.280       227
52.290       147
52.300       200
52.310       200
52.320       147
52.330       253
52.340       253
52.350       280
52.360       173
52.370       320
52.380       280
52.390       227
52.400       280
52.410       267
52.420       293
52.430       307
52.440       333
52.450       480
52.460       347
52.470       453
52.480       533
52.490       813
52.500       826
52.510      1319
52.520      1706
52.530      2706
52.540      5185
52.550      8050
52.560     11089
52.570     13381
52.580     13861
52.590     12902
52.600     12275
52.610     10689
52.620      7530
52.630      5544
52.640      3545
52.650      2852
52.660      2772
52.670      3225
52.680      3798
52.690      5411
52.700      7051
52.710      8023
52.720      8223
52.730      7797
52.740      6877
52.750      6317
52.760      4438
52.770      3279
52.780      1879
52.790      1359
52.800      1266
52.810      1093
52.820       920
52.830       746
52.840      1080
52.850       720
52.860       626
52.870       600
52.880       506
52.890       400
52.900       307
52.910       360
52.920       227
52.930       253
52.940       213
52.950       147
52.960        67
52.970       107
52.980        93
52.990        53
53.000       107
53.010        13
53.020       120
53.030        67
53.040       133
53.050        93
53.060        93
53.070        93
53.080       147
53.090       107
53.100       187
53.110        93
53.120       120
53.130        67
53.140        80
53.150       107
53.160        13
53.170       147
53.180       120
53.190       107
53.200        93
53.210       187
53.220        40
53.230        80
53.240        67
53.250       133
53.260       107
53.270        67
53.280        53
53.290       120
53.300        40
53.310       147
53.320        67
53.330        67
53.340        67
53.350       133
53.360        80
53.370        53
53.380        67
53.390        93
53.400        67
53.410       107
53.420         0
53.430        93
53.440        40
53.450        67
53.460        67
53.470        80
53.480        13
53.490        40
53.500        67
53.510        40
53.520        93
53.530       107
53.540        53
53.550        27
53.560        80
53.570        67
53.580        67
53.590        13
53.600        80
53.610       120
53.620        53
53.630        80
53.640        53
53.650        80
53.660        27
53.670         0
53.680       107
53.690       120
53.700       107
53.710        40
53.720        93
53.730        93
53.740        27
53.750        53
53.760        27
53.770        67
53.780        27
53.790        53
53.800        67
53.810        67
53.820        27
53.830        80
53.840        93
53.850       120
53.860        80
53.870        80
53.880        40
53.890        80
53.900        53
53.910        53
53.920        53
53.930        67
53.940        80
53.950        93
53.960        40
53.970        80
53.980        40
53.990         0
54.000        40
54.010        40
54.020        80
54.030        13
54.040        40
54.050        67
54.060        27
54.070        13
54.080        27
54.090         0
54.100        67
54.110        53
54.120        27
54.130        53
54.140        40
54.150         0
54.160        13
54.170        67
54.180        80
54.190        27
54.200        13
54.210        40
54.220        27
54.230        80
54.240        13
54.250        67
54.260        13
54.270        53
54.280        27
54.290        67
54.300        67
54.310        67
54.320        80
54.330        27
54.340        80
54.350        80
54.360        27
54.370        80
54.380        53
54.390        67
54.400        80
54.410        67
54.420        27
54.430        53
54.440        27
54.450        67
54.460        40
54.470        40
54.480        27
54.490        40
54.500        67
54.510        53
54.520        13
54.530         0
54.540        40
54.550         0
54.560        27
54.570        67
54.580        40
54.590        27
54.600        67
54.610        40
54.620        67
54.630        27
54.640        53
54.650        53
54.660        40
54.670        40
54.680        67
54.690        67
54.700        80
54.710        40
54.720        27
54.730        53
54.740        93
54.750        67
54.760        27
54.770        80
54.780        93
54.790        53
54.800         0
54.810        40
54.820        53
54.830        40
54.840        67
54.850        27
54.860        53
54.870        93
54.880        27
54.890        67
54.900        27
54.910        53
54.920        40
54.930        93
54.940        27
54.950        27
54.960        40
54.970        53
54.980        27
54.990        80
55.000        53
55.010        53
55.020        67
55.030        53
55.040        53
55.050        53
55.060        40
55.070        80
55.080        27
55.090        13
55.100        53
55.110        93
55.120        40
55.130        40
55.140        80
55.150        53
55.160        27
55.170        67
55.180        40
55.190        27
55.200        53
55.210        13
55.220        53
55.230        27
55.240        13
55.250        80
55.260        27
55.270        53
55.280        67
55.290       120
55.300        80
55.310        67
55.320        27
55.330        13
55.340       120
55.350        27
55.360        53
55.370        27
55.380        53
55.390        53
55.400        67
55.410        53
55.420        53
55.430        67
55.440        53
55.450        40
55.460        13
55.470        27
55.480        13
55.490        27
55.500        53
55.510        67
55.520        67
55.530       133
55.540        27
55.550        27
55.560        40
55.570        27
55.580       120
55.590        53
55.600        27
55.610        93
55.620        53
55.630        53
55.640        27
55.650        13
55.660        27
55.670        27
55.680        53
55.690        53
55.700        40
55.710        40
55.720        40
55.730        27
55.740        27
55.750        67
55.760        27
55.770        40
55.780        27
55.790        40
55.800        40
55.810        67
55.820         0
55.830        27
55.840        27
55.850        67
55.860        13
55.870        40
55.880        27
55.890        80
55.900        27
55.910        53
55.920        40
55.930        67
55.940        80
55.950        27
55.960        13
55.970        40
55.980        13
55.990        40
56.000        53
56.010        13
56.020         0
56.030        67
56.040        27
56.050        67
56.060        53
56.070        27
56.080         0
56.090        40
56.100         0
56.110        13
56.120        67
56.130        13
56.140        53
56.150        40
56.160        27
56.170        67
56.180        53
56.190        53
56.200        40
56.210        27
56.220        53
56.230        67
56.240        53
56.250        93
56.260        93
56.270        93
56.280        13
56.290        53
56.300        40
56.310        53
56.320        27
56.330        13
56.340        67
56.350        27
56.360        27
56.370        40
56.380        53
56.390        40
56.400        40
56.410        80
56.420        67
56.430        13
56.440        40
56.450        27
56.460        27
56.470        53
56.480        27
56.490        13
56.500        53
56.510        40
56.520        40
56.530        40
56.540        67
56.550       107
56.560        40
56.570        40
56.580        40
56.590        27
56.600        13
56.610        13
56.620        13
56.630         0
56.640        13
56.650        40
56.660        80
56.670        40
56.680        67
56.690        40
56.700        93
56.710        40
56.720        27
56.730        80
56.740        53
56.750        40
56.760        40
56.770        27
56.780        67
56.790        40
56.800        40
56.810        13
56.820         0
56.830        27
56.840        40
56.850        27
56.860        27
56.870         0
56.880        13
56.890        93
56.900        40
56.910        13
56.920        27
56.930        40
56.940        53
56.950        13
56.960        27
56.970        53
56.980        93
56.990        67
57.000        27
57.010        40
57.020        67
57.030        13
57.040        53
57.050        27
57.060        53
57.070        53
57.080        13
57.090        40
57.100         0
57.110        27
57.120        27
57.130        40
57.140        27
57.150         0
57.160        40
57.170        53
57.180        27
57.190        40
57.200         0
57.210        27
57.220        40
57.230        27
57.240        40
57.250        40
57.260        27
57.270        40
57.280        67
57.290        53
57.300        53
57.310        40
57.320        27
57.330        40
57.340        67
57.350        40
57.360        93
57.370        27
57.380        40
57.390        53
57.400        80
57.410        27
57.420        40
57.430        53
57.440        40
57.450        13
57.460        93
57.470        53
57.480        27
57.490        27
57.500        80
57.510        13
57.520        40
57.530        40
57.540        67
57.550        53
57.560        27
57.570        53
57.580        53
57.590        53
57.600        40
57.610       107
57.620        53
57.630        53
57.640        53
57.650        27
57.660        53
57.670        27
57.680        53
57.690        40
57.700        40
57.710        27
57.720         0
57.730        53
57.740        53
57.750        67
57.760        40
57.770        27
57.780        27
57.790        27
57.800        80
57.810         0
57.820        40
57.830        27
57.840        53
57.850        27
57.860       107
57.870        27
57.880        53
57.890        13
57.900       107
57.910        13
57.920        53
57.930        40
57.940        27
57.950        13
57.960        80
57.970         0
57.980        53
57.990        13
58.000        13
58.010        40
58.020        27
58.030        80
58.040        53
58.050        40
58.060        93
58.070        53
58.080        13
58.090        53
58.100        40
58.110         0
58.120        40
58.130        67
58.140        67
58.150        53
58.160        40
58.170        67
58.180         0
58.190        27
58.200        67
58.210        13
58.220        27
58.230        27
58.240        40
58.250         0
58.260        13
58.270         0
58.280        13
58.290        27
58.300        13
58.310        40
58.320        40
58.330        53
58.340        13
58.350        40
58.360        13
58.370        13
58.380        13
58.390         0
58.400        13
58.410        40
58.420        67
58.430        67
58.440        27
58.450        40
58.460        80
58.470        13
58.480         0
58.490        27
58.500        27
58.510        40
58.520        13
58.530        53
58.540        13
58.550        53
58.560         0
58.570         0
58.580        40
58.590        27
58.600        13
58.610        13
58.620        40
58.630        67
58.640        13
58.650        53
58.660        53
58.670        40
58.680        40
58.690        27
58.700        27
58.710         0
58.720        80
58.730        27
58.740         0
58.750         0
58.760        27
58.770        27
58.780        13
58.790        40
58.800        67
58.810         0
58.820        13
58.830        40
58.840        27
58.850        27
58.860        53
58.870        80
58.880        27
58.890        27
58.900        27
58.910        40
58.920        27
58.930         0
58.940        27
58.950        13
58.960        27
58.970        13
58.980        13
58.990        27
59.000         0
59.010        53
59.020        40
59.030        93
59.040        13
59.050        13
59.060        40
59.070        53
59.080        67
59.090        27
59.100        27
59.110        13
59.120         0
59.130        27
59.140        40
59.150        53
59.160        67
59.170        13
59.180         0
59.190        13
59.200        13
59.210        27
59.220        13
59.230        53
59.240        40
59.250        13
59.260        40
59.270        27
59.280        27
59.290        53
59.300        27
59.310        27
59.320        27
59.330        53
59.340         0
59.350        27
59.360        53
59.370        67
59.380        27
59.390        13
59.400        40
59.410        40
59.420        27
59.430        53
59.440        67
59.450       120
59.460        40
59.470        80
59.480        13
59.490       133
59.500        67
59.510        27
59.520        53
59.530        67
59.540        40
59.550        53
59.560        27
59.570        67
59.580        53
59.590       120
59.600        40
59.610        80
59.620        13
59.630        40
59.640        27
59.650        27
59.660        40
59.670        13
59.680        53
59.690        67
59.700        40
59.710        80
59.720        53
59.730         0
59.740        40
59.750        67
59.760        13
59.770        27
59.780        40
59.790        40
59.800        40
59.810        93
59.820        40
59.830        13
59.840        53
59.850        27
59.860        80
59.870        27
59.880        40
59.890        27
59.900        53
59.910        40
59.920        27
59.930       133
59.940        40
59.950        53
59.960        80
59.970        27
59.980        27
59.990         0
60.000         0
