20.000        80
20.010        47
20.020        33
20.030        53
20.040        47
20.050        53
20.060        53
20.070        67
20.080        27
20.090        47
20.100        20
20.110        27
20.120        47
20.130        47
20.140        13
20.150       107
20.160        47
20.170        47
20.180        73
20.190        40
20.200        67
20.210        67
20.220        13
20.230        33
20.240        60
20.250        20
20.260        33
20.270        40
20.280        53
20.290        33
20.300        33
20.310        67
20.320        80
20.330        67
20.340        47
20.350        73
20.360        40
20.370        53
20.380        20
20.390        20
20.400        53
20.410        60
20.420        73
20.430        53
20.440        93
20.450        27
20.460        53
20.470        40
20.480        27
20.490        80
20.500        53
20.510        40
20.520        40
20.530        33
20.540        47
20.550        67
20.560        60
20.570        67
20.580        53
20.590        33
20.600        40
20.610        33
20.620        40
20.630        60
20.640        73
20.650        47
20.660        60
20.670        47
20.680        60
20.690        60
20.700        33
20.710        80
20.720        53
20.730        33
20.740        67
20.750        40
20.760        47
20.770        73
20.780        73
20.790        47
20.800        67
20.810        47
20.820        80
20.830        27
20.840        47
20.850        47
20.860        73
20.870        47
20.880        60
20.890        80
20.900        40
20.910        20
20.920        33
20.930        80
20.940        40
20.950        53
20.960        33
20.970        27
20.980        60
20.990        40
21.000        40
21.010        33
21.020        53
21.030        47
21.040        27
21.050        60
21.060        53
21.070       100
21.080        73
21.090        40
21.100        60
21.110        73
21.120        73
21.130        53
21.140        53
21.150        73
21.160       127
21.170        27
21.180        53
21.190        40
21.200        47
21.210        27
21.220        47
21.230        47
21.240        47
21.250        33
21.260        33
21.270        53
21.280        27
21.290        93
21.300        40
21.310        40
21.320        93
21.330        73
21.340        33
21.350        60
21.360        47
21.370        60
21.380        67
21.390        40
21.400        93
21.410        67
21.420        67
21.430        60
21.440        47
21.450        80
21.460        60
21.470        33
21.480        47
21.490        27
21.500        67
21.510        67
21.520        80
21.530        53
21.540        60
21.550        33
21.560        47
21.570        67
21.580        60
21.590        27
21.600        53
21.610        60
21.620        27
21.630        47
21.640        33
21.650        40
21.660        47
21.670        33
21.680        67
21.690        60
21.700        60
21.710        80
21.720        67
21.730        67
21.740        47
21.750        60
21.760        53
21.770        47
21.780        53
21.790        87
21.800        47
21.810        47
21.820        60
21.830        67
21.840        53
21.850        40
21.860        60
21.870        40
21.880        87
21.890        53
21.900        53
21.910        67
21.920        60
21.930        53
21.940        67
21.950        47
21.960        60
21.970        40
21.980        33
21.990        40
22.000        40
22.010        73
22.020        40
22.030        53
22.040        73
22.050       100
22.060        87
22.070        60
22.080        40
22.090        93
22.100        87
22.110        67
22.120        47
22.130        73
22.140        53
22.150        27
22.160        60
22.170        73
22.180        93
22.190        47
22.200        47
22.210        47
22.220        40
22.230        87
22.240        47
22.250        47
22.260        53
22.270        60
22.280        20
22.290        47
22.300        53
22.310        80
22.320        47
22.330        87
22.340        53
22.350        87
22.360        93
22.370        27
22.380        93
22.390        67
22.400        93
22.410        73
22.420        67
22.430       107
22.440        67
22.450        87
22.460        87
22.470       153
22.480        73
22.490       133
22.500       140
22.510       193
22.520       147
22.530       173
22.540       120
22.550       207
22.560       147
22.570       240
22.580       253
22.590       253
22.600       420
22.610       426
22.620       513
22.630       566
22.640       573
22.650       826
22.660       980
22.670      1153
22.680      1399
22.690      1599
22.700      1426
22.710      1473
22.720      1639
22.730      1559
22.740      1506
22.750      1453
22.760      1433
22.770      1279
22.780      1206
22.790      1106
22.800       813
22.810       733
22.820       626
22.830       493
22.840       387
22.850       273
22.860       300
22.870       160
22.880       180
22.890       220
22.900       200
22.910       120
22.920       147
22.930       133
22.940        67
22.950       140
22.960        87
22.970       100
22.980        47
22.990       107
23.000        20
23.010       100
23.020        93
23.030        40
23.040        80
23.050        53
23.060        27
23.070        40
23.080       113
23.090        87
23.100        33
23.110        80
23.120        33
23.130        73
23.140        33
23.150        67
23.160        40
23.170        87
23.180        27
23.190        53
23.200        47
23.210        33
23.220        27
23.230        87
23.240        47
23.250        60
23.260        53
23.270        87
23.280        60
23.290        40
23.300       120
23.310        67
23.320        80
23.330        40
23.340        40
23.350        80
23.360        33
23.370       113
23.380        60
23.390        60
23.400        60
23.410        40
23.420        87
23.430        67
23.440        93
23.450        73
23.460        40
23.470        47
23.480        60
23.490        53
23.500        47
23.510        53
23.520        53
23.530        67
23.540        40
23.550        80
23.560        53
23.570        80
23.580        33
23.590        80
23.600        27
23.610        47
23.620        53
23.630        47
23.640        27
23.650        60
23.660        33
23.670        87
23.680        80
23.690        13
23.700        60
23.710        60
23.720        33
23.730        73
23.740        60
23.750        47
23.760        47
23.770        47
23.780        33
23.790        47
23.800        93
23.810        93
23.820        27
23.830        53
23.840        53
23.850        53
23.860        53
23.870        67
23.880        80
23.890        60
23.900        40
23.910        53
23.920        73
23.930       107
23.940        53
23.950        27
23.960        47
23.970        73
23.980        53
23.990        60
24.000        60
24.010        47
24.020        47
24.030        53
24.040        47
24.050        33
24.060       107
24.070        47
24.080        53
24.090        27
24.100        60
24.110        13
24.120        27
24.130        60
24.140        67
24.150        60
24.160        47
24.170        33
24.180        87
24.190        40
24.200        40
24.210        73
24.220        60
24.230        73
24.240        33
24.250        33
24.260        67
24.270        33
24.280        47
24.290        27
24.300        67
24.310        47
24.320        27
24.330        53
24.340        60
24.350        73
24.360        80
24.370        27
24.380        80
24.390        47
24.400        73
24.410        73
24.420        47
24.430        47
24.440        53
24.450        73
24.460       100
24.470        87
24.480        33
24.490        80
24.500        67
24.510       107
24.520        60
24.530        20
24.540        60
24.550        47
24.560        47
24.570        53
24.580        33
24.590        73
24.600        47
24.610        80
24.620        53
24.630        80
24.640        60
24.650        40
24.660        93
24.670        47
24.680        80
24.690        60
24.700        60
24.710        33
24.720        60
24.730       107
24.740        47
24.750        27
24.760        53
24.770        60
24.780        80
24.790        60
24.800        60
24.810        47
24.820        80
24.830        80
24.840        53
24.850        33
24.860        33
24.870        47
24.880        33
24.890        60
24.900        73
24.910        80
24.920        53
24.930        40
24.940        67
24.950        60
24.960        40
24.970        73
24.980        27
24.990        67
25.000        67
25.010        27
25.020        60
25.030        60
25.040        40
25.050        53
25.060        53
25.070        73
25.080        40
25.090        40
25.100        67
25.110        40
25.120        20
25.130        80
25.140        40
25.150        53
25.160        73
25.170        67
25.180        53
25.190        53
25.200        47
25.210        67
25.220        40
25.230        47
25.240        53
25.250        60
25.260        73
25.270        60
25.280        47
25.290        53
25.300        40
25.310        47
25.320        33
25.330        33
25.340        27
25.350        60
25.360        73
25.370        53
25.380        40
25.390        73
25.400        40
25.410        53
25.420        53
25.430        40
25.440        40
25.450        47
25.460        93
25.470       100
25.480        73
25.490        87
25.500       147
25.510       127
25.520        80
25.530       133
25.540        93
25.550        93
25.560       120
25.570        53
25.580        60
25.590        53
25.600       140
25.610        93
25.620        33
25.630        47
25.640        60
25.650        53
25.660        27
25.670        47
25.680        67
25.690        67
25.700        60
25.710        67
25.720        60
25.730        73
25.740        20
25.750        40
25.760        53
25.770        60
25.780        33
25.790        60
25.800        80
25.810        40
25.820        33
25.830        80
25.840        40
25.850        27
25.860        53
25.870        53
25.880        27
25.890        27
25.900        47
25.910        33
25.920        40
25.930        53
25.940        40
25.950        47
25.960        67
25.970        27
25.980        67
25.990        47
26.000        60
26.010        47
26.020        60
26.030        53
26.040        27
26.050        40
26.060        60
26.070        40
26.080        73
26.090        47
26.100        40
26.110        47
26.120        60
26.130        60
26.140        33
26.150        47
26.160       100
26.170        40
26.180        33
26.190        33
26.200        73
26.210        47
26.220        60
26.230        53
26.240        27
26.250        40
26.260        33
26.270        53
26.280        93
26.290        67
26.300        53
26.310        53
26.320        40
26.330        20
26.340        87
26.350        73
26.360        53
26.370        60
26.380        27
26.390        47
26.400        80
26.410        53
26.420        20
26.430        80
26.440        40
26.450        40
26.460        80
26.470        13
26.480        60
26.490        33
26.500        47
26.510        33
26.520        60
26.530        87
26.540        33
26.550        33
26.560        67
26.570        47
26.580        67
26.590        47
26.600        40
26.610        67
26.620        40
26.630        80
26.640        80
26.650        47
26.660        60
26.670        47
26.680        13
26.690        47
26.700        27
26.710        40
26.720        73
26.730        60
26.740        40
26.750        47
26.760        47
26.770        20
26.780        73
26.790        33
26.800        53
26.810        33
26.820        40
26.830        47
26.840        33
26.850        20
26.860        13
26.870        40
26.880        53
26.890        47
26.900        33
26.910        47
26.920        60
26.930        20
26.940        67
26.950        33
26.960        53
26.970        47
26.980        60
26.990        33
27.000        73
27.010        60
27.020        40
27.030        33
27.040       100
27.050        73
27.060        60
27.070        20
27.080        53
27.090        20
27.100        67
27.110        33
27.120        47
27.130        47
27.140        60
27.150        27
27.160        40
27.170        27
27.180        40
27.190        67
27.200        53
27.210        40
27.220        27
27.230        67
27.240        53
27.250        53
27.260        27
27.270        47
27.280        67
27.290        67
27.300        60
27.310        53
27.320        40
27.330        60
27.340        47
27.350        40
27.360        87
27.370        67
27.380        20
27.390        40
27.400        33
27.410        40
27.420        40
27.430        27
27.440        80
27.450        47
27.460        53
27.470        33
27.480        33
27.490        40
27.500        60
27.510        20
27.520        27
27.530        60
27.540        60
27.550        40
27.560        53
27.570        53
27.580        40
27.590        53
27.600        60
27.610        67
27.620        33
27.630        60
27.640        67
27.650        53
27.660        40
27.670        60
27.680        33
27.690        53
27.700        67
27.710        27
27.720        53
27.730        47
27.740        47
27.750        60
27.760        40
27.770        73
27.780        60
27.790        60
27.800        53
27.810        47
27.820        67
27.830        80
27.840        20
27.850        20
27.860        20
27.870        27
27.880        40
27.890        47
27.900        27
27.910        40
27.920        20
27.930        40
27.940        33
27.950        47
27.960        40
27.970        80
27.980        53
27.990        53
28.000        47
28.010        53
28.020        27
28.030        20
28.040        47
28.050        53
28.060        47
28.070        20
28.080        27
28.090        33
28.100        40
28.110        53
28.120        53
28.130        67
28.140        33
28.150        27
28.160        80
28.170        20
28.180        47
28.190        60
28.200        47
28.210        60
28.220        53
28.230        33
28.240        40
28.250        27
28.260        27
28.270        60
28.280        53
28.290        47
28.300        47
28.310        53
28.320        47
28.330        27
28.340        53
28.350        40
28.360        33
28.370        40
28.380        40
28.390        27
28.400        67
28.410        27
28.420        20
28.430        27
28.440        20
28.450        47
28.460        53
28.470        80
28.480        33
28.490        60
28.500        33
28.510        67
28.520        87
28.530        53
28.540        33
28.550        33
28.560        47
28.570        47
28.580        60
28.590        53
28.600        40
28.610        33
28.620        80
28.630         7
28.640        47
28.650        60
28.660        40
28.670        20
28.680        27
28.690        33
28.700        13
28.710        33
28.720        40
28.730         7
28.740        27
28.750        33
28.760        53
28.770        87
28.780        40
28.790        33
28.800        47
28.810        40
28.820        87
28.830        93
28.840        60
28.850        33
28.860        67
28.870        60
28.880        80
28.890         7
28.900        53
28.910        13
28.920        53
28.930        60
28.940        60
28.950        47
28.960        33
28.970        33
28.980        47
28.990        53
29.000        87
29.010        67
29.020        80
29.030        80
29.040        27
29.050        47
29.060        33
29.070        73
29.080        20
29.090        47
29.100        47
29.110        53
29.120        33
29.130        40
29.140        27
29.150        27
29.160        67
29.170        60
29.180        47
29.190        33
29.200        47
29.210        33
29.220        73
29.230        60
29.240        40
29.250        13
29.260        47
29.270        33
29.280        27
29.290        47
29.300        73
29.310        40
29.320        33
29.330        47
29.340        27
29.350        53
29.360        60
29.370        53
29.380        53
29.390        60
29.400        33
29.410        27
29.420        27
29.430        13
29.440        27
29.450        33
29.460        53
29.470        53
29.480        33
29.490        87
29.500        33
29.510        47
29.520        73
29.530        27
29.540        20
29.550        33
29.560        40
29.570        40
29.580        47
29.590        33
29.600        13
29.610        47
29.620        60
29.630        20
29.640        47
29.650        47
29.660        60
29.670        27
29.680        53
29.690        40
29.700        73
29.710        67
29.720         7
29.730        40
29.740        53
29.750        47
29.760        13
29.770        53
29.780        27
29.790        40
29.800        33
29.810        47
29.820        20
29.830        47
29.840        47
29.850        33
29.860        40
29.870        73
29.880        40
29.890        47
29.900        40
29.910        67
29.920        73
29.930        47
29.940        53
29.950        40
29.960        47
29.970        27
29.980        20
29.990        47
30.000        27
30.010        47
30.020        67
30.030        20
30.040        60
30.050        60
30.060        33
30.070        27
30.080        40
30.090        47
30.100        40
30.110        33
30.120        27
30.130        13
30.140        47
30.150        67
30.160        20
30.170        33
30.180        27
30.190        33
30.200        67
30.210        40
30.220        20
30.230        27
30.240        20
30.250        47
30.260        40
30.270        53
30.280        13
30.290        80
30.300        73
30.310        20
30.320        53
30.330        27
30.340        47
30.350        40
30.360        13
30.370        27
30.380        33
30.390        27
30.400        53
30.410        40
30.420        40
30.430        33
30.440        40
30.450        40
30.460        60
30.470        33
30.480        60
30.490        33
30.500        27
30.510        40
30.520        53
30.530        53
30.540        47
30.550        53
30.560        33
30.570        53
30.580        53
30.590        40
30.600        20
30.610        27
30.620        27
30.630        20
30.640         7
30.650        47
30.660        80
30.670         7
30.680        13
30.690        47
30.700        53
30.710        53
30.720        13
30.730        73
30.740        20
30.750        33
30.760        27
30.770        53
30.780        20
30.790        33
30.800        40
30.810        33
30.820        33
30.830        73
30.840        40
30.850        53
30.860        47
30.870        47
30.880        13
30.890        27
30.900        27
30.910        53
30.920        27
30.930        20
30.940        20
30.950        40
30.960        47
30.970        60
30.980        40
30.990        33
31.000        47
31.010        27
31.020        47
31.030        27
31.040        47
31.050        47
31.060        40
31.070        47
31.080         7
31.090        67
31.100        60
31.110        33
31.120        13
31.130        20
31.140        47
31.150        40
31.160        27
31.170        33
31.180        20
31.190        33
31.200        47
31.210        20
31.220        27
31.230        33
31.240        20
31.250        33
31.260        33
31.270        20
31.280        27
31.290        53
31.300        53
31.310        27
31.320        40
31.330        33
31.340        33
31.350        40
31.360        20
31.370        27
31.380        40
31.390        47
31.400        33
31.410        47
31.420        33
31.430        33
31.440        47
31.450        47
31.460        60
31.470        40
31.480        40
31.490        40
31.500        60
31.510        47
31.520        73
31.530        53
31.540        40
31.550        13
31.560        60
31.570        27
31.580        80
31.590        67
31.600        47
31.610        27
31.620        40
31.630        67
31.640        13
31.650        60
31.660        27
31.670        20
31.680        13
31.690        40
31.700        33
31.710        40
31.720        33
31.730        13
31.740        53
31.750        20
31.760        33
31.770        47
31.780        13
31.790        53
31.800        53
31.810        47
31.820        40
31.830        33
31.840        20
31.850        27
31.860        40
31.870        33
31.880        67
31.890         7
31.900        20
31.910        27
31.920        33
31.930        40
31.940        47
31.950        33
31.960        40
31.970        27
31.980        20
31.990        47
32.000        40
32.010        20
32.020        40
32.030        53
32.040        40
32.050        47
32.060        33
32.070        13
32.080        33
32.090        33
32.100        47
32.110        40
32.120        47
32.130        67
32.140        80
32.150        33
32.160        67
32.170        60
32.180        60
32.190        40
32.200        73
32.210       100
32.220        60
32.230       120
32.240       120
32.250        87
32.260        87
32.270       140
32.280        93
32.290       120
32.300       180
32.310       200
32.320       233
32.330       233
32.340       187
32.350       327
32.360       240
32.370       347
32.380       267
32.390       273
32.400       327
32.410       260
32.420       313
32.430       287
32.440       300
32.450       267
32.460       200
32.470       193
32.480       227
32.490       233
32.500       153
32.510       140
32.520       133
32.530       127
32.540       147
32.550        60
32.560        60
32.570        27
32.580        53
32.590        67
32.600        53
32.610        73
32.620        40
32.630        40
32.640        53
32.650        33
32.660        40
32.670        27
32.680        53
32.690        73
32.700        47
32.710        53
32.720        20
32.730        53
32.740        53
32.750        33
32.760        40
32.770        60
32.780        33
32.790        27
32.800        47
32.810         7
32.820        33
32.830        33
32.840        67
32.850        13
32.860        20
32.870        80
32.880        27
32.890         7
32.900        33
32.910        20
32.920        47
32.930        47
32.940        33
32.950        27
32.960        53
32.970        27
32.980        53
32.990        40
33.000        13
33.010        33
33.020        33
33.030         7
33.040        73
33.050        40
33.060        40
33.070        33
33.080        33
33.090        20
33.100        47
33.110        13
33.120        53
33.130        27
33.140        40
33.150        27
33.160        33
33.170        20
33.180        33
33.190        33
33.200        20
33.210        33
33.220        47
33.230        13
33.240        20
33.250        13
33.260        27
33.270        33
33.280        33
33.290        27
33.300         7
33.310        20
33.320        20
33.330        73
33.340        80
33.350        27
33.360        73
33.370        47
33.380        40
33.390        40
33.400         7
33.410        67
33.420        40
33.430        33
33.440        40
33.450        47
33.460        27
33.470        33
33.480        20
33.490        60
33.500        13
33.510         7
33.520        47
33.530        40
33.540        13
33.550        40
33.560        20
33.570        33
33.580        40
33.590        47
33.600        53
33.610        27
33.620        33
33.630        13
33.640        33
33.650        53
33.660        27
33.670        27
33.680        40
33.690        33
33.700        33
33.710        13
33.720        53
33.730        47
33.740        13
33.750        20
33.760        13
33.770        40
33.780        53
33.790        20
33.800        27
33.810        27
33.820        40
33.830        40
33.840        33
33.850        40
33.860        27
33.870        40
33.880        40
33.890        40
33.900        40
33.910        33
33.920        20
33.930        33
33.940        13
33.950        33
33.960        67
33.970        40
33.980        20
33.990        47
34.000        40
34.010        53
34.020         7
34.030        27
34.040        33
34.050        20
34.060        27
34.070        20
34.080        40
34.090        13
34.100        40
34.110        53
34.120        13
34.130        20
34.140        33
34.150        53
34.160         7
34.170        20
34.180        53
34.190        40
34.200        20
34.210        33
34.220        20
34.230        47
34.240        53
34.250        13
34.260        40
34.270        40
34.280        33
34.290        33
34.300        13
34.310        33
34.320        27
34.330         7
34.340        47
34.350        27
34.360         7
34.370        13
34.380        13
34.390        47
34.400        27
34.410        33
34.420        53
34.430        27
34.440        53
34.450        13
34.460        47
34.470        53
34.480        27
34.490        27
34.500         0
34.510        27
34.520        33
34.530        40
34.540        33
34.550        53
34.560        40
34.570        33
34.580        33
34.590        53
34.600        40
34.610        27
34.620        33
34.630        27
34.640        20
34.650        33
34.660        27
34.670        33
34.680        40
34.690        47
34.700        27
34.710        40
34.720        13
34.730        40
34.740        13
34.750        27
34.760        20
34.770        13
34.780         7
34.790        33
34.800        53
34.810        67
34.820        20
34.830        53
34.840        33
34.850        20
34.860        13
34.870        67
34.880        40
34.890        27
34.900        27
34.910        33
34.920        47
34.930        33
34.940        33
34.950        53
34.960        40
34.970        87
34.980        60
34.990        53
35.000        47
35.010        53
35.020        53
35.030       100
35.040        73
35.050        73
35.060        67
35.070        60
35.080       147
35.090       107
35.100       153
35.110       140
35.120       140
35.130       153
35.140       160
35.150       153
35.160       120
35.170        87
35.180       167
35.190        73
35.200        47
35.210        87
35.220        73
35.230        73
35.240        87
35.250        53
35.260        33
35.270        67
35.280        40
35.290        47
35.300        20
35.310        13
35.320        13
35.330        33
35.340        33
35.350        20
35.360        20
35.370        20
35.380        27
35.390        53
35.400        73
35.410        47
35.420        33
35.430        33
35.440        40
35.450        27
35.460        20
35.470        13
35.480        27
35.490        20
35.500        20
35.510        40
35.520        60
35.530        13
35.540        40
35.550        20
35.560        47
35.570        47
35.580        13
35.590        13
35.600        33
35.610        40
35.620        33
35.630        33
35.640        27
35.650        60
35.660        47
35.670        13
35.680        20
35.690        27
35.700        40
35.710        40
35.720        20
35.730        40
35.740        13
35.750        20
35.760        13
35.770        53
35.780        13
35.790        27
35.800        60
35.810        40
35.820        20
35.830        53
35.840        27
35.850        20
35.860        33
35.870        33
35.880        47
35.890        33
35.900        20
35.910        27
35.920        40
35.930        20
35.940        20
35.950        27
35.960        47
35.970        67
35.980        13
35.990        40
36.000        40
36.010        33
36.020        33
36.030        33
36.040        60
36.050        13
36.060        20
36.070        20
36.080        27
36.090        27
36.100        13
36.110        47
36.120        40
36.130        33
36.140        20
36.150        40
36.160        47
36.170        20
36.180        40
36.190        27
36.200        33
36.210        27
36.220        20
36.230        27
36.240        20
36.250        13
36.260        33
36.270        13
36.280        13
36.290        33
36.300        33
36.310        13
36.320         7
36.330        13
36.340        47
36.350        27
36.360        20
36.370        33
36.380        20
36.390        47
36.400        40
36.410        27
36.420        20
36.430        20
36.440        27
36.450        20
36.460        20
36.470        47
36.480        40
36.490        13
36.500        33
36.510        33
36.520        40
36.530        53
36.540        20
36.550        33
36.560        40
36.570        27
36.580        27
36.590        27
36.600        13
36.610        27
36.620         7
36.630        27
36.640        20
36.650        27
36.660        33
36.670        27
36.680        27
36.690        20
36.700        47
36.710         7
36.720        33
36.730        27
36.740         7
36.750         7
36.760         7
36.770        20
36.780        20
36.790        47
36.800        13
36.810        40
36.820        27
36.830        13
36.840        40
36.850        60
36.860        33
36.870        20
36.880        47
36.890        27
36.900        33
36.910        40
36.920        13
36.930         7
36.940        33
36.950        13
36.960        27
36.970        27
36.980        33
36.990         7
37.000        67
37.010        27
37.020         7
37.030        47
37.040        40
37.050        20
37.060        13
37.070        47
37.080        33
37.090        13
37.100        53
37.110        27
37.120        13
37.130        20
37.140        27
37.150        27
37.160        20
37.170        40
37.180        40
37.190        27
37.200        20
37.210        20
37.220        13
37.230        13
37.240        13
37.250        20
37.260        20
37.270        27
37.280        33
37.290        13
37.300        27
37.310        27
37.320        27
37.330        27
37.340        40
37.350         0
37.360        27
37.370        33
37.380        27
37.390         7
37.400        33
37.410        20
37.420        47
37.430        27
37.440        33
37.450        40
37.460        40
37.470        33
37.480         7
37.490        13
37.500        47
37.510        33
37.520        53
37.530        40
37.540        20
37.550        20
37.560        27
37.570        47
37.580        20
37.590        20
37.600        40
37.610        53
37.620        27
37.630        20
37.640        47
37.650        27
37.660        40
37.670        33
37.680        33
37.690        47
37.700        60
37.710       100
37.720        33
37.730       180
37.740       100
37.750       107
37.760        87
37.770       107
37.780        60
37.790        67
37.800        53
37.810        67
37.820        73
37.830        80
37.840        60
37.850        60
37.860        80
37.870        60
37.880        47
37.890        33
37.900        47
37.910        53
37.920        20
37.930        20
37.940        27
37.950        27
37.960        13
37.970         7
37.980        20
37.990        40
38.000        40
38.010        33
38.020        27
38.030        13
38.040        13
38.050        40
38.060        20
38.070        13
38.080        27
38.090        33
38.100        27
38.110        40
38.120        13
38.130        13
38.140        27
38.150        13
38.160        27
38.170        47
38.180        20
38.190        20
38.200        40
38.210        20
38.220        13
38.230        20
38.240        40
38.250        13
38.260        27
38.270        20
38.280        20
38.290        20
38.300        13
38.310        20
38.320        27
38.330        33
38.340        47
38.350        20
38.360        13
38.370        13
38.380        40
38.390         0
38.400        27
38.410        27
38.420        33
38.430        33
38.440        40
38.450        40
38.460        13
38.470        27
38.480        33
38.490        40
38.500        33
38.510        20
38.520        33
38.530        40
38.540        27
38.550        13
38.560        20
38.570        33
38.580        27
38.590        27
38.600        33
38.610        27
38.620        33
38.630        53
38.640        27
38.650        20
38.660        27
38.670        33
38.680        33
38.690        13
38.700        13
38.710        67
38.720        20
38.730        13
38.740        13
38.750        33
38.760        13
38.770        40
38.780        27
38.790        27
38.800        60
38.810        40
38.820        53
38.830        47
38.840        20
38.850        27
38.860        67
38.870        13
38.880         7
38.890        20
38.900        27
38.910        27
38.920        13
38.930        40
38.940         7
38.950        40
38.960         7
38.970         7
38.980        47
38.990        40
39.000        20
39.010        20
39.020        27
39.030        33
39.040        20
39.050        60
39.060        27
39.070        47
39.080         7
39.090        20
39.100        47
39.110        40
39.120        13
39.130         0
39.140        40
39.150        13
39.160        47
39.170        27
39.180        27
39.190        40
39.200        27
39.210        27
39.220        27
39.230        33
39.240        33
39.250        27
39.260        27
39.270        33
39.280        27
39.290        13
39.300        20
39.310        33
39.320        40
39.330        40
39.340        33
39.350        27
39.360        40
39.370        33
39.380        27
39.390        20
39.400        27
39.410        27
39.420        40
39.430        67
39.440        47
39.450        27
39.460        27
39.470        33
39.480        40
39.490        33
39.500        27
39.510        13
39.520        27
39.530         0
39.540        27
39.550        27
39.560        27
39.570        40
39.580        47
39.590        53
39.600        33
39.610        27
39.620         7
39.630        60
39.640        40
39.650        40
39.660        27
39.670        33
39.680        27
39.690        40
39.700        73
39.710        33
39.720        20
39.730        93
39.740        60
39.750        53
39.760        33
39.770        80
39.780        67
39.790        67
39.800        87
39.810        73
39.820       147
39.830       133
39.840       133
39.850       207
39.860       127
39.870       180
39.880       200
39.890       180
39.900       273
39.910       260
39.920       347
39.930       433
39.940       446
39.950       473
39.960       420
39.970       500
39.980       606
39.990       513
40.000       546
40.010       620
40.020       540
40.030       413
40.040       367
40.050       353
40.060       373
40.070       387
40.080       280
40.090       347
40.100       360
40.110       193
40.120       220
40.130       213
40.140       160
40.150       187
40.160       107
40.170       100
40.180        80
40.190       113
40.200       107
40.210        53
40.220        40
40.230        47
40.240        60
40.250        27
40.260        73
40.270        40
40.280        53
40.290        13
40.300        40
40.310        33
40.320        27
40.330        40
40.340        27
40.350        40
40.360        20
40.370        40
40.380        33
40.390        13
40.400        67
40.410        20
40.420        27
40.430        27
40.440        20
40.450         7
40.460        27
40.470        27
40.480        27
40.490        33
40.500        33
40.510        40
40.520         0
40.530        67
40.540        33
40.550        13
40.560        47
40.570        40
40.580        27
40.590        33
40.600        40
40.610        27
40.620        13
40.630         7
40.640         7
40.650        47
40.660        40
40.670        40
40.680        20
40.690         7
40.700         7
40.710        27
40.720        20
40.730        40
40.740        47
40.750        27
40.760        33
40.770        53
40.780        20
40.790        33
40.800        33
40.810         7
40.820        33
40.830        20
40.840         0
40.850        27
40.860         7
40.870        20
40.880        13
40.890        47
40.900         7
40.910        13
40.920        27
40.930        40
40.940        47
40.950        60
40.960        33
40.970        13
40.980        13
40.990        20
41.000        27
41.010        47
41.020        33
41.030        20
41.040        27
41.050        53
41.060         7
41.070        33
41.080        27
41.090        40
41.100        20
41.110        27
41.120        13
41.130        27
41.140        20
41.150        13
41.160        40
41.170        20
41.180        27
41.190        47
41.200        27
41.210        27
41.220        27
41.230        47
41.240        20
41.250         7
41.260        20
41.270        13
41.280         7
41.290         7
41.300        40
41.310        27
41.320        47
41.330        27
41.340        27
41.350         7
41.360        40
41.370        40
41.380        33
41.390        53
41.400        60
41.410        67
41.420        87
41.430        20
41.440        40
41.450        33
41.460        47
41.470        67
41.480        67
41.490        47
41.500        93
41.510        40
41.520        20
41.530        53
41.540        47
41.550        73
41.560        73
41.570        80
41.580        47
41.590        87
41.600       160
41.610       160
41.620       140
41.630       127
41.640       187
41.650       147
41.660       193
41.670       140
41.680       127
41.690       153
41.700       160
41.710       113
41.720       107
41.730       220
41.740       107
41.750       173
41.760       167
41.770       173
41.780       193
41.790       133
41.800       100
41.810       133
41.820       147
41.830       100
41.840        80
41.850        73
41.860        87
41.870        80
41.880        33
41.890        73
41.900        60
41.910        20
41.920        60
41.930        87
41.940        87
41.950         7
41.960        60
41.970        67
41.980        53
41.990        40
42.000        80
42.010        60
42.020        53
42.030         7
42.040        20
42.050        53
42.060        33
42.070        53
42.080        27
42.090        53
42.100         7
42.110        47
42.120        40
42.130        20
42.140        60
42.150        27
42.160        13
42.170        33
42.180        27
42.190        33
42.200        27
42.210        13
42.220        33
42.230        40
42.240        20
42.250        27
42.260        33
42.270        27
42.280        47
42.290        27
42.300        13
42.310        13
42.320        13
42.330        27
42.340        13
42.350        13
42.360        27
42.370        27
42.380        33
42.390        40
42.400        40
42.410        20
42.420        60
42.430        53
42.440        47
42.450        13
42.460        33
42.470        33
42.480        33
42.490        13
42.500        13
42.510        20
42.520        27
42.530        27
42.540        47
42.550        20
42.560        13
42.570        47
42.580        13
42.590        27
42.600        20
42.610        20
42.620        33
42.630        20
42.640        13
42.650        20
42.660        40
42.670        53
42.680        40
42.690        27
42.700        33
42.710        13
42.720        40
42.730        47
42.740        20
42.750        20
42.760        13
42.770        33
42.780        27
42.790        33
42.800        20
42.810        13
42.820         7
42.830         7
42.840        60
42.850        27
42.860        20
42.870         7
42.880         7
42.890        40
42.900        20
42.910        27
42.920        20
42.930        27
42.940        20
42.950        20
42.960        27
42.970        20
42.980        20
42.990        20
43.000        47
43.010        33
43.020        13
43.030        40
43.040        47
43.050        13
43.060        33
43.070        27
43.080        40
43.090        53
43.100        27
43.110        53
43.120        53
43.130       107
43.140        80
43.150       113
43.160        87
43.170       127
43.180       113
43.190        87
43.200        60
43.210        93
43.220        80
43.230       187
43.240       107
43.250       167
43.260       260
43.270       213
43.280       300
43.290       320
43.300       353
43.310       393
43.320       520
43.330       526
43.340       626
43.350       593
43.360       526
43.370       413
43.380       327
43.390       240
43.400       200
43.410       207
43.420       293
43.430       340
43.440       213
43.450       273
43.460       333
43.470       240
43.480       260
43.490       140
43.500       113
43.510        80
43.520        40
43.530        60
43.540        60
43.550        47
43.560        33
43.570        60
43.580        20
43.590        53
43.600        20
43.610        47
43.620        47
43.630        27
43.640        13
43.650        33
43.660        40
43.670        33
43.680         7
43.690        60
43.700        33
43.710        20
43.720        33
43.730        20
43.740         7
43.750        13
43.760        27
43.770        20
43.780        33
43.790        13
43.800        33
43.810        67
43.820        33
43.830        27
43.840        27
43.850        40
43.860        53
43.870        13
43.880        40
43.890        13
43.900        27
43.910        33
43.920        20
43.930        40
43.940        27
43.950        27
43.960        20
43.970        27
43.980         7
43.990        40
44.000        27
44.010        20
44.020        20
44.030        40
44.040        27
44.050        20
44.060        13
44.070        20
44.080        33
44.090        33
44.100        13
44.110        20
44.120        20
44.130        13
44.140        13
44.150        33
44.160        33
44.170        27
44.180        33
44.190        27
44.200        33
44.210        13
44.220        40
44.230        40
44.240         0
44.250        13
44.260        20
44.270        27
44.280        27
44.290        13
44.300        53
44.310        20
44.320        33
44.330        20
44.340        27
44.350        40
44.360        33
44.370        40
44.380         7
44.390        27
44.400        33
44.410        20
44.420        47
44.430        33
44.440        13
44.450        60
44.460        27
44.470         7
44.480        60
44.490        27
44.500        13
44.510        20
44.520         7
44.530        20
44.540        27
44.550        20
44.560        20
44.570        40
44.580        40
44.590         7
44.600        53
44.610        53
44.620        33
44.630        20
44.640        20
44.650        53
44.660        40
44.670        40
44.680        60
44.690        60
44.700        27
44.710        27
44.720        33
44.730        47
44.740        40
44.750        27
44.760        40
44.770       113
44.780        53
44.790        33
44.800        80
44.810        53
44.820        60
44.830       107
44.840       100
44.850        80
44.860        73
44.870       100
44.880        80
44.890        87
44.900        67
44.910        73
44.920        93
44.930        93
44.940        80
44.950        93
44.960        60
44.970        73
44.980        67
44.990        93
45.000       127
45.010       120
45.020       120
45.030        87
45.040        93
45.050        93
45.060        47
45.070        73
45.080        47
45.090        60
45.100        80
45.110        67
45.120        93
45.130       107
45.140        53
45.150        47
45.160        87
45.170        80
45.180       100
45.190        93
45.200       113
45.210       113
45.220       100
45.230        93
45.240        67
45.250        80
45.260        60
45.270        73
45.280        73
45.290        67
45.300        73
45.310       113
45.320        87
45.330       120
45.340       153
45.350        93
45.360        80
45.370        67
45.380        73
45.390       120
45.400       107
45.410        80
45.420        87
45.430       100
45.440       127
45.450       113
45.460        67
45.470        60
45.480        93
45.490       180
45.500       140
45.510        93
45.520       133
45.530        40
45.540       113
45.550        80
45.560       107
45.570       153
45.580        73
45.590       120
45.600       100
45.610        80
45.620       207
45.630       127
45.640       127
45.650       107
45.660       167
45.670       160
45.680       107
45.690       127
45.700       173
45.710        87
45.720       133
45.730       107
45.740       107
45.750       160
45.760       160
45.770       100
45.780       153
45.790       127
45.800       140
45.810       160
45.820       187
45.830       173
45.840       213
45.850       160
45.860       280
45.870       193
45.880       293
45.890       213
45.900       240
45.910       233
45.920       213
45.930       220
45.940       280
45.950       200
45.960       220
45.970       280
45.980       167
45.990       333
46.000       280
46.010       280
46.020       307
46.030       320
46.040       273
46.050       340
46.060       353
46.070       420
46.080       413
46.090       367
46.100       433
46.110       420
46.120       566
46.130       580
46.140       580
46.150       693
46.160       786
46.170       726
46.180       880
46.190      1013
46.200      1100
46.210      1106
46.220      1306
46.230      1220
46.240      1539
46.250      1706
46.260      1793
46.270      1933
46.280      2026
46.290      2286
46.300      2552
46.310      2706
46.320      2726
46.330      3612
46.340      3998
46.350      4498
46.360      4591
46.370      5265
46.380      6204
46.390      6571
46.400      7584
46.410      7697
46.420      8657
46.430      9756
46.440     10143
46.450     10956
46.460     11216
46.470     12188
46.480     12535
46.490     12842
46.500     13341
46.510     14148
46.520     13628
46.530     13568
46.540     13175
46.550     13261
46.560     12722
46.570     11722
46.580     11575
46.590     10909
46.600     10349
46.610     10429
46.620     10109
46.630      9276
46.640      8303
46.650      7977
46.660      7190
46.670      6757
46.680      6297
46.690      5558
46.700      4698
46.710      4478
46.720      4072
46.730      3872
46.740      3685
46.750      2959
46.760      2572
46.770      2392
46.780      2172
46.790      1899
46.800      1659
46.810      1333
46.820      1259
46.830      1279
46.840      1026
46.850       960
46.860      1006
46.870       766
46.880       860
46.890       706
46.900       713
46.910       666
46.920       573
46.930       586
46.940       506
46.950       440
46.960       473
46.970       466
46.980       393
46.990       373
47.000       473
47.010       446
47.020       367
47.030       313
47.040       293
47.050       307
47.060       247
47.070       287
47.080       387
47.090       273
47.100       253
47.110       233
47.120       240
47.130       293
47.140       260
47.150       200
47.160       207
47.170       267
47.180       240
47.190       227
47.200       240
47.210       207
47.220       193
47.230       220
47.240       193
47.250       147
47.260       147
47.270       193
47.280       160
47.290       153
47.300       160
47.310       120
47.320       113
47.330       140
47.340       187
47.350       140
47.360       153
47.370       100
47.380       167
47.390       100
47.400       107
47.410       113
47.420       127
47.430       120
47.440        87
47.450       133
47.460       153
47.470       160
47.480       133
47.490       173
47.500       107
47.510        93
47.520       140
47.530       107
47.540        60
47.550        67
47.560       100
47.570       113
47.580        73
47.590        60
47.600        87
47.610        60
47.620        53
47.630        73
47.640        60
47.650        87
47.660       100
47.670        93
47.680        93
47.690        67
47.700       107
47.710       160
47.720        93
47.730        80
47.740        80
47.750        73
47.760        87
47.770        80
47.780       113
47.790        93
47.800        67
47.810        87
47.820        53
47.830       133
47.840        67
47.850        87
47.860       107
47.870        53
47.880        33
47.890        93
47.900        20
47.910        47
47.920        87
47.930        67
47.940        53
47.950        73
47.960        67
47.970        93
47.980        87
47.990        67
48.000        87
48.010       100
48.020        67
48.030        67
48.040        47
48.050        67
48.060        60
48.070       107
48.080        40
48.090        33
48.100        60
48.110        47
48.120        53
48.130        67
48.140        33
48.150        87
48.160        53
48.170        80
48.180        87
48.190        60
48.200        80
48.210        73
48.220        40
48.230        53
48.240        80
48.250        67
48.260        73
48.270        53
48.280        20
48.290        73
48.300       107
48.310        33
48.320        47
48.330        67
48.340        20
48.350        40
48.360        73
48.370        67
48.380        60
48.390        60
48.400        47
48.410        53
48.420        67
48.430        53
48.440        73
48.450        53
48.460        60
48.470        53
48.480        60
48.490        60
48.500        80
48.510        33
48.520        27
48.530        80
48.540        60
48.550        47
48.560        40
48.570        60
48.580        80
48.590        80
48.600        40
48.610        47
48.620        47
48.630        53
48.640        60
48.650       127
48.660        47
48.670        60
48.680        67
48.690        73
48.700       113
48.710        73
48.720        47
48.730        53
48.740        73
48.750        40
48.760        67
48.770        60
48.780        40
48.790        67
48.800        33
48.810        80
48.820        60
48.830        33
48.840        27
48.850        40
48.860        40
48.870        67
48.880        53
48.890       100
48.900        40
48.910        27
48.920        13
48.930        40
48.940        53
48.950        13
48.960        27
48.970        80
48.980        53
48.990        47
49.000        47
49.010        27
49.020        73
49.030        40
49.040        33
49.050        40
49.060        80
49.070        60
49.080        73
49.090        33
49.100        80
49.110        67
49.120        80
49.130        80
49.140        60
49.150        73
49.160        40
49.170        73
49.180        73
49.190        40
49.200        53
49.210        40
49.220        80
49.230        80
49.240        40
49.250        67
49.260        67
49.270        73
49.280        60
49.290        47
49.300        73
49.310        33
49.320        53
49.330        33
49.340        27
49.350        27
49.360        73
49.370        20
49.380        33
49.390        60
49.400       120
49.410        40
49.420        40
49.430        87
49.440        67
49.450        67
49.460        67
49.470        60
49.480        20
49.490        20
49.500        53
49.510        33
49.520        47
49.530        60
49.540        53
49.550        47
49.560        47
49.570        47
49.580        40
49.590        47
49.600        40
49.610        40
49.620        33
49.630        20
49.640        40
49.650        53
49.660        47
49.670        60
49.680        53
49.690        53
49.700        67
49.710        53
49.720        53
49.730        27
49.740        27
49.750        60
49.760        53
49.770        33
49.780        47
49.790        33
49.800        47
49.810       113
49.820        33
49.830        47
49.840        27
49.850        20
49.860        40
49.870        73
49.880        53
49.890        60
49.900        40
49.910        67
49.920        47
49.930        33
49.940        33
49.950        53
49.960        40
49.970        27
49.980        53
49.990        40
50.000        53
50.010        60
50.020        40
50.030        47
50.040        67
50.050        40
50.060        53
50.070        60
50.080        27
50.090        27
50.100        20
50.110        33
50.120        40
50.130        33
50.140        27
50.150        47
50.160        27
50.170        53
50.180        13
50.190        40
50.200        27
50.210        20
50.220        47
50.230        53
50.240        40
50.250        87
50.260        20
50.270        13
50.280        33
50.290        20
50.300        27
50.310        20
50.320        33
50.330        40
50.340         7
50.350        40
50.360        33
50.370        33
50.380        33
50.390        40
50.400        80
50.410        47
50.420        67
50.430        33
50.440        33
50.450        47
50.460        53
50.470        27
50.480        20
50.490        40
50.500        33
50.510        40
50.520        40
50.530        47
50.540        13
50.550        67
50.560        40
50.570        53
50.580        27
50.590        27
50.600        33
50.610        40
50.620        47
50.630        33
50.640        27
50.650        67
50.660        53
50.670        40
50.680        40
50.690        33
50.700        40
50.710        27
50.720        60
50.730        20
50.740        53
50.750        13
50.760        33
50.770        20
50.780        73
50.790        47
50.800        33
50.810        27
50.820        47
50.830        80
50.840        27
50.850        27
50.860        53
50.870        40
50.880        13
50.890        67
50.900        80
50.910        33
50.920        53
50.930        53
50.940        73
50.950        20
50.960        27
50.970        13
50.980        33
50.990        40
51.000        53
51.010        27
51.020        20
51.030        53
51.040        33
51.050        20
51.060        33
51.070        53
51.080        60
51.090        40
51.100        53
51.110        27
51.120        67
51.130        27
51.140        73
51.150        33
51.160        60
51.170        47
51.180        60
51.190        40
51.200        33
51.210        40
51.220        27
51.230        60
51.240        13
51.250        20
51.260        47
51.270        73
51.280        33
51.290        27
51.300        60
51.310        40
51.320        80
51.330        33
51.340        27
51.350        20
51.360        40
51.370        47
51.380        73
51.390        33
51.400        33
51.410        40
51.420        27
51.430        27
51.440        27
51.450        27
51.460        27
51.470        53
51.480        47
51.490        40
51.500        33
51.510        40
51.520        60
51.530        53
51.540        60
51.550        40
51.560        47
51.570        47
51.580        33
51.590        33
51.600        73
51.610        73
51.620        27
51.630        60
51.640        33
51.650        60
51.660        40
51.670        40
51.680        40
51.690        40
51.700        27
51.710        67
51.720        27
51.730        47
51.740        47
51.750        60
51.760        20
51.770        60
51.780        33
51.790        40
51.800         0
51.810        73
51.820        27
51.830        27
51.840        47
51.850        27
51.860        20
51.870        20
51.880        13
51.890        27
51.900        60
51.910        53
51.920        13
51.930        27
51.940        27
51.950        33
51.960        20
51.970        33
51.980        13
51.990        27
52.000        47
52.010        40
52.020        33
52.030        27
52.040        33
52.050        60
52.060        20
52.070        53
52.080        33
52.090         7
52.100        27
52.110        33
52.120        13
52.130        47
52.140        33
52.150        53
52.160        20
52.170        13
52.180        27
52.190        33
52.200        27
52.210        13
52.220        33
52.230         0
52.240        33
52.250        33
52.260        60
52.270        47
52.280        33
52.290        33
52.300        60
52.310        13
52.320        40
52.330        33
52.340        20
52.350        27
52.360        20
52.370        33
52.380        40
52.390        47
52.400        47
52.410        27
52.420        33
52.430        67
52.440        40
52.450        73
52.460        67
52.470        60
52.480        40
52.490        53
52.500        67
52.510        60
52.520        60
52.530       107
52.540       133
52.550        87
52.560       120
52.570        80
52.580        93
52.590       107
52.600        60
52.610       107
52.620        80
52.630        20
52.640        40
52.650        80
52.660        40
52.670       107
52.680        93
52.690        67
52.700        40
52.710        47
52.720        80
52.730        33
52.740        73
52.750        40
52.760        27
52.770        13
52.780        80
52.790        47
52.800        27
52.810        53
52.820        40
52.830        27
52.840         0
52.850        47
52.860        33
52.870        40
52.880        27
52.890        40
52.900        20
52.910        27
52.920        47
52.930        33
52.940        47
52.950       187
52.960        27
52.970        33
52.980        40
52.990        47
53.000        40
53.010        33
53.020        33
53.030        33
53.040        33
53.050        27
53.060        13
53.070        47
53.080        13
53.090         0
53.100        27
53.110        33
53.120        60
53.130        27
53.140        40
53.150        33
53.160        20
53.170        67
53.180        27
53.190        47
53.200        33
53.210        33
53.220        20
53.230        13
53.240        67
53.250        47
53.260        80
53.270        13
53.280        20
53.290        13
53.300        27
53.310        40
53.320        33
53.330        27
53.340        13
53.350        27
53.360        60
53.370        47
53.380        20
53.390        33
53.400        40
53.410        47
53.420        47
53.430        20
53.440        13
53.450        47
53.460        27
53.470        40
53.480        27
53.490        13
53.500        33
53.510        47
53.520        27
53.530        20
53.540        27
53.550        40
53.560        33
53.570        33
53.580        53
53.590        27
53.600        27
53.610        67
53.620        47
53.630        33
53.640        53
53.650        33
53.660        73
53.670        20
53.680        40
53.690        27
53.700        33
53.710         7
53.720        33
53.730        60
53.740        53
53.750        40
53.760        13
53.770        20
53.780        47
53.790        33
53.800        20
53.810        20
53.820        13
53.830        27
53.840        33
53.850        47
53.860         0
53.870        20
53.880         0
53.890        33
53.900        27
53.910        13
53.920        47
53.930        40
53.940        33
53.950        60
53.960        33
53.970        27
53.980        20
53.990        20
54.000        13
54.010        33
54.020        33
54.030        27
54.040         7
54.050        53
54.060        67
54.070        20
54.080        47
54.090        47
54.100        53
54.110        20
54.120        73
54.130        47
54.140        20
54.150        13
54.160        33
54.170        33
54.180        33
54.190        13
54.200        33
54.210        40
54.220        20
54.230         7
54.240        53
54.250        53
54.260        33
54.270        33
54.280         0
54.290        67
54.300        40
54.310        47
54.320        33
54.330        40
54.340        33
54.350        27
54.360        40
54.370        20
54.380        27
54.390        27
54.400         0
54.410        27
54.420        20
54.430        20
54.440        47
54.450        13
54.460        40
54.470        27
54.480        13
54.490        20
54.500        27
54.510        27
54.520        13
54.530        27
54.540        40
54.550        33
54.560        27
54.570        33
54.580        33
54.590        40
54.600        13
54.610        40
54.620        27
54.630        13
54.640        20
54.650        40
54.660        33
54.670        33
54.680        13
54.690        27
54.700        60
54.710        53
54.720        27
54.730        27
54.740        13
54.750        13
54.760        40
54.770        27
54.780        27
54.790        40
54.800        40
54.810        27
54.820        33
54.830        13
54.840        20
54.850        20
54.860        33
54.870        53
54.880        40
54.890        33
54.900         7
54.910        20
54.920        27
54.930        27
54.940        27
54.950        20
54.960         7
54.970        20
54.980        13
54.990        20
55.000        27
55.010        33
55.020        47
55.030        47
55.040        20
55.050        40
55.060         7
55.070        13
55.080         7
55.090        33
55.100        33
55.110        20
55.120        13
55.130        20
55.140        20
55.150        40
55.160        40
55.170        40
55.180        53
55.190         7
55.200        47
55.210        33
55.220        13
55.230        27
55.240        53
55.250        33
55.260        13
55.270        13
55.280        27
55.290        27
55.300        13
55.310        33
55.320        13
55.330        20
55.340        40
55.350        13
55.360        13
55.370        20
55.380        27
55.390        33
55.400        27
55.410        33
55.420        33
55.430        13
55.440         7
55.450         7
55.460         7
55.470         0
55.480        40
55.490        33
55.500        13
55.510        40
55.520        33
55.530        27
55.540        27
55.550        27
55.560        20
55.570        13
55.580        47
55.590        47
55.600        20
55.610        40
55.620        20
55.630        33
55.640         7
55.650        33
55.660        33
55.670        33
55.680        27
55.690        20
55.700        13
55.710        40
55.720        33
55.730        47
55.740        13
55.750        47
55.760         7
55.770        27
55.780        33
55.790        27
55.800         7
55.810         7
55.820        27
55.830        13
55.840         7
55.850        33
55.860        27
55.870        33
55.880        27
55.890        20
55.900        13
55.910        40
55.920         7
55.930        27
55.940        13
55.950        13
55.960         7
55.970        27
55.980        20
55.990        27
56.000        27
56.010        33
56.020        20
56.030        20
56.040         0
56.050         0
56.060        33
56.070        27
56.080        20
56.090        13
56.100        20
56.110        20
56.120        13
56.130        33
56.140        33
56.150        20
56.160        13
56.170        27
56.180         0
56.190        27
56.200        20
56.210        20
56.220        40
56.230        27
56.240        13
56.250         7
56.260        27
56.270        40
56.280        20
56.290        27
56.300        40
56.310        20
56.320        60
56.330        53
56.340        20
56.350        13
56.360        47
56.370        20
56.380        20
56.390        20
56.400        20
56.410        27
56.420        33
56.430        33
56.440        13
56.450        20
56.460        33
56.470        13
56.480        13
56.490        20
56.500        20
56.510        27
56.520         7
56.530        27
56.540         7
56.550        40
56.560        40
56.570         0
56.580        13
56.590         7
56.600        20
56.610        33
56.620        20
56.630        33
56.640        33
56.650        13
56.660        13
56.670         7
56.680        27
56.690        33
56.700        33
56.710         7
56.720        20
56.730        20
56.740        13
56.750        33
56.760        20
56.770        13
56.780        27
56.790        20
56.800        13
56.810        47
56.820        13
56.830        40
56.840        40
56.850        20
56.860        67
56.870        13
56.880        33
56.890         7
56.900        33
56.910        33
56.920        47
56.930        20
56.940         7
56.950        33
56.960        20
56.970         7
56.980        20
56.990        27
57.000        13
57.010        27
57.020        27
57.030        40
57.040        20
57.050        20
57.060        33
57.070        20
57.080        13
57.090        40
57.100        53
57.110        13
57.120        33
57.130        20
57.140        20
57.150        20
57.160         7
57.170        20
57.180        20
57.190        33
57.200        27
57.210        33
57.220         7
57.230        20
57.240        27
57.250        40
57.260        47
57.270        33
57.280        47
57.290        20
57.300        20
57.310        27
57.320        67
57.330        60
57.340        33
57.350        47
57.360        47
57.370        73
57.380        40
57.390        13
57.400        20
57.410        87
57.420        60
57.430        67
57.440        60
57.450        73
57.460        93
57.470       120
57.480       207
57.490       273
57.500       353
57.510       387
57.520       307
57.530       353
57.540       273
57.550       193
57.560       160
57.570       160
57.580        53
57.590        67
57.600       100
57.610       153
57.620       120
57.630       113
57.640       107
57.650       113
57.660       173
57.670       207
57.680       160
57.690       160
57.700       220
57.710       100
57.720       107
57.730       133
57.740        40
57.750        33
57.760        67
57.770        53
57.780        67
57.790        47
57.800        33
57.810        80
57.820        87
57.830        47
57.840        27
57.850        33
57.860        13
57.870        80
57.880        47
57.890        53
57.900        27
57.910        47
57.920        60
57.930        53
57.940        53
57.950        40
57.960        27
57.970        60
57.980        33
57.990        13
58.000        53
58.010        33
58.020        20
58.030        20
58.040        60
58.050        53
58.060        40
58.070        33
58.080        13
58.090        20
58.100        33
58.110        47
58.120        20
58.130        27
58.140        20
58.150        20
58.160        27
58.170        33
58.180        33
58.190        33
58.200        33
58.210         0
58.220        33
58.230        13
58.240        40
58.250        20
58.260        20
58.270        33
58.280        20
58.290        20
58.300        27
58.310        20
58.320        27
58.330        13
58.340        27
58.350        13
58.360        20
58.370        13
58.380        47
58.390         7
58.400        13
58.410        47
58.420        20
58.430        27
58.440        27
58.450        20
58.460         7
58.470        60
58.480         7
58.490        33
58.500        13
58.510         7
58.520        13
58.530        20
58.540        20
58.550        27
58.560        33
58.570        20
58.580         7
58.590         7
58.600        20
58.610        13
58.620        20
58.630        20
58.640        33
58.650        13
58.660        20
58.670         7
58.680        13
58.690        67
58.700        27
58.710        27
58.720        13
58.730        13
58.740        20
58.750         7
58.760        53
58.770        27
58.780        20
58.790        40
58.800        27
58.810         7
58.820        20
58.830        33
58.840         0
58.850        33
58.860        47
58.870         0
58.880        20
58.890        40
58.900        27
58.910        27
58.920         0
58.930        27
58.940        33
58.950        40
58.960         7
58.970         7
58.980        27
58.990        27
59.000         7
59.010         7
59.020        13
59.030        13
59.040        47
59.050        13
59.060        13
59.070        27
59.080         7
59.090        33
59.100        33
59.110        33
59.120         7
59.130        20
59.140         7
59.150         0
59.160        20
59.170        20
59.180        27
59.190        13
59.200        13
59.210        40
59.220        20
59.230        27
59.240         7
59.250        13
59.260        27
59.270        27
59.280         7
59.290        13
59.300         0
59.310        20
59.320        20
59.330        27
59.340        27
59.350        27
59.360        20
59.370         7
59.380        13
59.390        27
59.400        13
59.410        13
59.420        27
59.430        13
59.440         7
59.450        33
59.460        33
59.470        27
59.480        27
59.490        27
59.500        33
59.510        33
59.520        20
59.530         0
59.540        47
59.550        33
59.560        13
59.570        27
59.580        33
59.590         7
59.600         7
59.610        27
59.620        27
59.630         7
59.640        13
59.650        53
59.660         7
59.670         7
59.680        20
59.690        40
59.700        33
59.710        20
59.720        27
59.730        27
59.740        27
59.750        13
59.760         7
59.770        27
59.780        13
59.790        20
59.800        13
59.810        13
59.820        20
59.830        13
59.840         0
59.850        53
59.860        20
59.870        33
59.880         7
59.890        27
59.900        27
59.910        40
59.920        20
59.930        13
59.940        53
59.950        13
59.960        13
59.970         0
59.980         0
59.990         0
60.000         0
