20.000        27
20.010        67
20.020        60
20.030        13
20.040        33
20.050        53
20.060        53
20.070        20
20.080        40
20.090         7
20.100         7
20.110        53
20.120        47
20.130        40
20.140        53
20.150        53
20.160        27
20.170        40
20.180        20
20.190        33
20.200        33
20.210        33
20.220        20
20.230        80
20.240        33
20.250        47
20.260        13
20.270        47
20.280        47
20.290        67
20.300        53
20.310        40
20.320        53
20.330        40
20.340        33
20.350        47
20.360        27
20.370        33
20.380        53
20.390        27
20.400        33
20.410        60
20.420        47
20.430         0
20.440        27
20.450        40
20.460        80
20.470        27
20.480        33
20.490        33
20.500        33
20.510        13
20.520        13
20.530        47
20.540        40
20.550        27
20.560        53
20.570        53
20.580        27
20.590        33
20.600        33
20.610        53
20.620        33
20.630        27
20.640        60
20.650        27
20.660        40
20.670        40
20.680        47
20.690        47
20.700        27
20.710        33
20.720        40
20.730        67
20.740        33
20.750        33
20.760        27
20.770        60
20.780        33
20.790        27
20.800        27
20.810        33
20.820        27
20.830         7
20.840        53
20.850        27
20.860        33
20.870        40
20.880        40
20.890        27
20.900        40
20.910        47
20.920        47
20.930        60
20.940        20
20.950        40
20.960        67
20.970        47
20.980        60
20.990        27
21.000        40
21.010        40
21.020        40
21.030        27
21.040        53
21.050        80
21.060        73
21.070        47
21.080        33
21.090        27
21.100        20
21.110        40
21.120        20
21.130        53
21.140        33
21.150        53
21.160        53
21.170        47
21.180        27
21.190        33
21.200        93
21.210         7
21.220        53
21.230        40
21.240        27
21.250         7
21.260        20
21.270        20
21.280        47
21.290        47
21.300        13
21.310        47
21.320        20
21.330        27
21.340        47
21.350        27
21.360        20
21.370         7
21.380        53
21.390         7
21.400        53
21.410        20
21.420        40
21.430        27
21.440        33
21.450        20
21.460        47
21.470        33
21.480        33
21.490        53
21.500        27
21.510        40
21.520        27
21.530        47
21.540        20
21.550        27
21.560        20
21.570        27
21.580        60
21.590        47
21.600        40
21.610        40
21.620        20
21.630        13
21.640        13
21.650        40
21.660        27
21.670        60
21.680        53
21.690        60
21.700        27
21.710        20
21.720        40
21.730        40
21.740        20
21.750        27
21.760        47
21.770        40
21.780        33
21.790        40
21.800        27
21.810        27
21.820        20
21.830        40
21.840        40
21.850         7
21.860        33
21.870        47
21.880        20
21.890        40
21.900        47
21.910        40
21.920        33
21.930        20
21.940        60
21.950        33
21.960        20
21.970        60
21.980        80
21.990        60
22.000        40
22.010        40
22.020        27
22.030        20
22.040        27
22.050        47
22.060        27
22.070        27
22.080        47
22.090        33
22.100        13
22.110        20
22.120        40
22.130        40
22.140        53
22.150        87
22.160        40
22.170        27
22.180        67
22.190        53
22.200        33
22.210        33
22.220        33
22.230        60
22.240        67
22.250        47
22.260        53
22.270        60
22.280        87
22.290        87
22.300        53
22.310        87
22.320        80
22.330        53
22.340       100
22.350       113
22.360        60
22.370       113
22.380       113
22.390       167
22.400       113
22.410       173
22.420       140
22.430       153
22.440       167
22.450       173
22.460       253
22.470       253
22.480       260
22.490       320
22.500       267
22.510       280
22.520       227
22.530       293
22.540       367
22.550       260
22.560       247
22.570       220
22.580       233
22.590       113
22.600       193
22.610       140
22.620       227
22.630       167
22.640       160
22.650       107
22.660       173
22.670        80
22.680       200
22.690        93
22.700        67
22.710       113
22.720        80
22.730        80
22.740       127
22.750        87
22.760       147
22.770       120
22.780        93
22.790       113
22.800        80
22.810        93
22.820        87
22.830        73
22.840       133
22.850       100
22.860       120
22.870       107
22.880        80
22.890        87
22.900       100
22.910       107
22.920       133
22.930        93
22.940       100
22.950        93
22.960        73
22.970        93
22.980        33
22.990        33
23.000        60
23.010        80
23.020        47
23.030        33
23.040        67
23.050        73
23.060        47
23.070        73
23.080        73
23.090        53
23.100        73
23.110        53
23.120        20
23.130        33
23.140        53
23.150        33
23.160        47
23.170        47
23.180        20
23.190        27
23.200        33
23.210        47
23.220        40
23.230        27
23.240        27
23.250        47
23.260        60
23.270        33
23.280        27
23.290        33
23.300        33
23.310        33
23.320        60
23.330        20
23.340        13
23.350        60
23.360        53
23.370         7
23.380        40
23.390        40
23.400        27
23.410        47
23.420        40
23.430        53
23.440        27
23.450        53
23.460        40
23.470         7
23.480        53
23.490        53
23.500        47
23.510        47
23.520        13
23.530        67
23.540        53
23.550        33
23.560        27
23.570        20
23.580        13
23.590        33
23.600        53
23.610        47
23.620        67
23.630        33
23.640        33
23.650        67
23.660        60
23.670        40
23.680        33
23.690        33
23.700        27
23.710        27
23.720        53
23.730        13
23.740        20
23.750        33
23.760        33
23.770        13
23.780        33
23.790        33
23.800        40
23.810        60
23.820        27
23.830        13
23.840        20
23.850        20
23.860        47
23.870        20
23.880        60
23.890        20
23.900        73
23.910        13
23.920        47
23.930        33
23.940        40
23.950        60
23.960        13
23.970        47
23.980        27
23.990        47
24.000        20
24.010        33
24.020        33
24.030        20
24.040        60
24.050        40
24.060        40
24.070        33
24.080        20
24.090        27
24.100        27
24.110        27
24.120        93
24.130        47
24.140        53
24.150        53
24.160        27
24.170        27
24.180        20
24.190        40
24.200        33
24.210         7
24.220        40
24.230        47
24.240        20
24.250        47
24.260        47
24.270        60
24.280        73
24.290         7
24.300        27
24.310        33
24.320        20
24.330        60
24.340        47
24.350        40
24.360        33
24.370        13
24.380        33
24.390        13
24.400        67
24.410        33
24.420        40
24.430        13
24.440        20
24.450        20
24.460        53
24.470        27
24.480        60
24.490        27
24.500        47
24.510         7
24.520        53
24.530        47
24.540        47
24.550        33
24.560        27
24.570        27
24.580        40
24.590        40
24.600        33
24.610        60
24.620        27
24.630        53
24.640        27
24.650        33
24.660        27
24.670        13
24.680        33
24.690        53
24.700        47
24.710        53
24.720        47
24.730        47
24.740        20
24.750        53
24.760        73
24.770        60
24.780        40
24.790        20
24.800        27
24.810        47
24.820       140
24.830        27
24.840        40
24.850        73
24.860        27
24.870        27
24.880        40
24.890        73
24.900        47
24.910        73
24.920        20
24.930        33
24.940        13
24.950        13
24.960        60
24.970        13
24.980        27
24.990        40
25.000        40
25.010        33
25.020        13
25.030        73
25.040        27
25.050         0
25.060        13
25.070        20
25.080        13
25.090        33
25.100        13
25.110        33
25.120        33
25.130        47
25.140        20
25.150        40
25.160        67
25.170        40
25.180        20
25.190        33
25.200        47
25.210        20
25.220         7
25.230        27
25.240        20
25.250        20
25.260        13
25.270        20
25.280        60
25.290        33
25.300        53
25.310         7
25.320        33
25.330        53
25.340        33
25.350        13
25.360        13
25.370        40
25.380        47
25.390        53
25.400        33
25.410        40
25.420        40
25.430        47
25.440        47
25.450        67
25.460        80
25.470        33
25.480       120
25.490        93
25.500        60
25.510        53
25.520        67
25.530        87
25.540       113
25.550        67
25.560       100
25.570       140
25.580        67
25.590        93
25.600        73
25.610        67
25.620        47
25.630        87
25.640        53
25.650        73
25.660       127
25.670        87
25.680        33
25.690        53
25.700        40
25.710        93
25.720        53
25.730        33
25.740        80
25.750        53
25.760        67
25.770        67
25.780        60
25.790        53
25.800       127
25.810        80
25.820        67
25.830        80
25.840        87
25.850        73
25.860       100
25.870        47
25.880        53
25.890        73
25.900        87
25.910        47
25.920        20
25.930        40
25.940        33
25.950        20
25.960        27
25.970         0
25.980        20
25.990        27
26.000        20
26.010        33
26.020        40
26.030        27
26.040        53
26.050        40
26.060        33
26.070        33
26.080        53
26.090        27
26.100        47
26.110        13
26.120        33
26.130        20
26.140        40
26.150        33
26.160        20
26.170        27
26.180        20
26.190        33
26.200        60
26.210        40
26.220        53
26.230        20
26.240        20
26.250        33
26.260        40
26.270        47
26.280        13
26.290        20
26.300        20
26.310         0
26.320        13
26.330        40
26.340        33
26.350        47
26.360        40
26.370        40
26.380        67
26.390        33
26.400        33
26.410        33
26.420        27
26.430        27
26.440         7
26.450        20
26.460        53
26.470        33
26.480        40
26.490        60
26.500        33
26.510        20
26.520        33
26.530        40
26.540        60
26.550        27
26.560        40
26.570        20
26.580        20
26.590        40
26.600        33
26.610        13
26.620        13
26.630        20
26.640        33
26.650        47
26.660        27
26.670         7
26.680        33
26.690        13
26.700        40
26.710        40
26.720        33
26.730        33
26.740        60
26.750        53
26.760        20
26.770        27
26.780        33
26.790        67
26.800        47
26.810        67
26.820        20
26.830        20
26.840        27
26.850        40
26.860        13
26.870        20
26.880        53
26.890        40
26.900        60
26.910        33
26.920        20
26.930        27
26.940        27
26.950        20
26.960        40
26.970        27
26.980        67
26.990         7
27.000        13
27.010        40
27.020        33
27.030        27
27.040        60
27.050        20
27.060        40
27.070        47
27.080        27
27.090        47
27.100        40
27.110        20
27.120        33
27.130        47
27.140        40
27.150        40
27.160        20
27.170        20
27.180        27
27.190        27
27.200        33
27.210        47
27.220        40
27.230        33
27.240        33
27.250        13
27.260        20
27.270        20
27.280        20
27.290        47
27.300        47
27.310        40
27.320        33
27.330        40
27.340        53
27.350        27
27.360        27
27.370        33
27.380        40
27.390        20
27.400        20
27.410        40
27.420        33
27.430         7
27.440        20
27.450        40
27.460        47
27.470        53
27.480        53
27.490        60
27.500        13
27.510        40
27.520        20
27.530        47
27.540        20
27.550        60
27.560        47
27.570        20
27.580        47
27.590        33
27.600        60
27.610        80
27.620        33
27.630        60
27.640        80
27.650        20
27.660        87
27.670        60
27.680        20
27.690        73
27.700       100
27.710        40
27.720        33
27.730        60
27.740        33
27.750        67
27.760        60
27.770        40
27.780        67
27.790        33
27.800        73
27.810        47
27.820        40
27.830        47
27.840        13
27.850        60
27.860        40
27.870        13
27.880        20
27.890        47
27.900        40
27.910        33
27.920        27
27.930        53
27.940        13
27.950        40
27.960        33
27.970        20
27.980        27
27.990        33
28.000        33
28.010        33
28.020        33
28.030        60
28.040        60
28.050        33
28.060        73
28.070        60
28.080        73
28.090        47
28.100        20
28.110        27
28.120        93
28.130        53
28.140        47
28.150        60
28.160        60
28.170        67
28.180        47
28.190        40
28.200        73
28.210        60
28.220        13
28.230        53
28.240        53
28.250        40
28.260        47
28.270        27
28.280        80
28.290       133
28.300        93
28.310        80
28.320        87
28.330        47
28.340        53
28.350        67
28.360        47
28.370        40
28.380        80
28.390        33
28.400        27
28.410        73
28.420        47
28.430        27
28.440        60
28.450        47
28.460        33
28.470        40
28.480        33
28.490        47
28.500        47
28.510        47
28.520        47
28.530        47
28.540        33
28.550        47
28.560        20
28.570        20
28.580        47
28.590        40
28.600        60
28.610        27
28.620        13
28.630        47
28.640        20
28.650        33
28.660        27
28.670        60
28.680        60
28.690        27
28.700         7
28.710        13
28.720        40
28.730        20
28.740        20
28.750        40
28.760        47
28.770        40
28.780        27
28.790        27
28.800        40
28.810        53
28.820        47
28.830        33
28.840        13
28.850        27
28.860        20
28.870        33
28.880        13
28.890        13
28.900        27
28.910        47
28.920        33
28.930        40
28.940        27
28.950        67
28.960        33
28.970        47
28.980         7
28.990        47
29.000        47
29.010        60
29.020        47
29.030        60
29.040        47
29.050        53
29.060        20
29.070        40
29.080        33
29.090        13
29.100        67
29.110        67
29.120        33
29.130        27
29.140        33
29.150        33
29.160        67
29.170        40
29.180        40
29.190        53
29.200        47
29.210        27
29.220        47
29.230        47
29.240        40
29.250        33
29.260        33
29.270        20
29.280        47
29.290        33
29.300        47
29.310        60
29.320        60
29.330        27
29.340        27
29.350        33
29.360        47
29.370        40
29.380        33
29.390        47
29.400        60
29.410        53
29.420        40
29.430        67
29.440        87
29.450        40
29.460        67
29.470       100
29.480        80
29.490        80
29.500       100
29.510        47
29.520        87
29.530       120
29.540       100
29.550       120
29.560        93
29.570       100
29.580        87
29.590       127
29.600       100
29.610        93
29.620        73
29.630        60
29.640        53
29.650       127
29.660       100
29.670        47
29.680        33
29.690        47
29.700        33
29.710        60
29.720        27
29.730        27
29.740        40
29.750        53
29.760        33
29.770        40
29.780        47
29.790        27
29.800        33
29.810        33
29.820        33
29.830        47
29.840        20
29.850        40
29.860        27
29.870        27
29.880         7
29.890        27
29.900        27
29.910        27
29.920         0
29.930        13
29.940        47
29.950         7
29.960        27
29.970        33
29.980        47
29.990        27
30.000        13
30.010         0
30.020        27
30.030         0
30.040        27
30.050        47
30.060        33
30.070        27
30.080        33
30.090        20
30.100        20
30.110        40
30.120        33
30.130        13
30.140        20
30.150        33
30.160        13
30.170        40
30.180        60
30.190        13
30.200        47
30.210        20
30.220         7
30.230        13
30.240        73
30.250        33
30.260        40
30.270        27
30.280        33
30.290        27
30.300        40
30.310        60
30.320        47
30.330        47
30.340        47
30.350        33
30.360        40
30.370        40
30.380        47
30.390        40
30.400        40
30.410        60
30.420        60
30.430        47
30.440        33
30.450        53
30.460        47
30.470        60
30.480        73
30.490        47
30.500        60
30.510        60
30.520        33
30.530        80
30.540        53
30.550        67
30.560        47
30.570        47
30.580        40
30.590        53
30.600        47
30.610        20
30.620        20
30.630        20
30.640        47
30.650        53
30.660        13
30.670        33
30.680        20
30.690         7
30.700        27
30.710        40
30.720        13
30.730        47
30.740        13
30.750        47
30.760        40
30.770        27
30.780        13
30.790        20
30.800        20
30.810        20
30.820        40
30.830        27
30.840        27
30.850        33
30.860        13
30.870        20
30.880        13
30.890        33
30.900        47
30.910        27
30.920        20
30.930        13
30.940        20
30.950        47
30.960        27
30.970        13
30.980        33
30.990        13
31.000        20
31.010        20
31.020        33
31.030        27
31.040        13
31.050         7
31.060        20
31.070        20
31.080         7
31.090        33
31.100         0
31.110        40
31.120        53
31.130        27
31.140        27
31.150        27
31.160        33
31.170        20
31.180        20
31.190        33
31.200        20
31.210        27
31.220        13
31.230        40
31.240        27
31.250        20
31.260        13
31.270        13
31.280        40
31.290        13
31.300        47
31.310        27
31.320        47
31.330        20
31.340        27
31.350        20
31.360         7
31.370        20
31.380        13
31.390        20
31.400        20
31.410        33
31.420        13
31.430        27
31.440        20
31.450        13
31.460        13
31.470        27
31.480        27
31.490        40
31.500        33
31.510        20
31.520        13
31.530        13
31.540        33
31.550        20
31.560         0
31.570         0
31.580         7
31.590        13
31.600         7
31.610        13
31.620        47
31.630        53
31.640        47
31.650        27
31.660        47
31.670        47
31.680         7
31.690        20
31.700        20
31.710        13
31.720        27
31.730        13
31.740        27
31.750        20
31.760        33
31.770        40
31.780         0
31.790        47
31.800         7
31.810        33
31.820        47
31.830        47
31.840        47
31.850         0
31.860        27
31.870        47
31.880        27
31.890        33
31.900        67
31.910        60
31.920        60
31.930        93
31.940        33
31.950        27
31.960        47
31.970        47
31.980        40
31.990        67
32.000        73
32.010        27
32.020        53
32.030        60
32.040        73
32.050        73
32.060       100
32.070        73
32.080       100
32.090       120
32.100       153
32.110        73
32.120        93
32.130       100
32.140        53
32.150        53
32.160       107
32.170        60
32.180       100
32.190        80
32.200        53
32.210        73
32.220       100
32.230        53
32.240        67
32.250        27
32.260        53
32.270        87
32.280        60
32.290        27
32.300        33
32.310        27
32.320        53
32.330        40
32.340        53
32.350        20
32.360        27
32.370        13
32.380        27
32.390        27
32.400        40
32.410        27
32.420        27
32.430        27
32.440        13
32.450        33
32.460        33
32.470        47
32.480         7
32.490        13
32.500        13
32.510        27
32.520        13
32.530        33
32.540        13
32.550        13
32.560        20
32.570        27
32.580        40
32.590        13
32.600        27
32.610        13
32.620        33
32.630        20
32.640        20
32.650        20
32.660        47
32.670        40
32.680        13
32.690        13
32.700        47
32.710        33
32.720        27
32.730        47
32.740        73
32.750        33
32.760        13
32.770        27
32.780        27
32.790        47
32.800         7
32.810        13
32.820        13
32.830         7
32.840        27
32.850         0
32.860        20
32.870        20
32.880        20
32.890        20
32.900        20
32.910         7
32.920         0
32.930        27
32.940        13
32.950        33
32.960        13
32.970        27
32.980        13
32.990         0
33.000        20
33.010        47
33.020        13
33.030         7
33.040        13
33.050        20
33.060        20
33.070        20
33.080        13
33.090        13
33.100        33
33.110         0
33.120        40
33.130        13
33.140        13
33.150        13
33.160        20
33.170        13
33.180         7
33.190        53
33.200        13
33.210         7
33.220        27
33.230         0
33.240        33
33.250        33
33.260        33
33.270        20
33.280        47
33.290        40
33.300        33
33.310        13
33.320        27
33.330        13
33.340        33
33.350        33
33.360        13
33.370        13
33.380        33
33.390        27
33.400        27
33.410        33
33.420        20
33.430        40
33.440        13
33.450        20
33.460        20
33.470        13
33.480        20
33.490         7
33.500         7
33.510        13
33.520        13
33.530        13
33.540        40
33.550         7
33.560        20
33.570        27
33.580        20
33.590         0
33.600         7
33.610         7
33.620        13
33.630         7
33.640        20
33.650         7
33.660        20
33.670        40
33.680        13
33.690        33
33.700        13
33.710         7
33.720        13
33.730        27
33.740         7
33.750        33
33.760         7
33.770        40
33.780        33
33.790        13
33.800        20
33.810        13
33.820        27
33.830        20
33.840        33
33.850         7
33.860        13
33.870        20
33.880        13
33.890        33
33.900        20
33.910        27
33.920        20
33.930        13
33.940         7
33.950        27
33.960        27
33.970        33
33.980        40
33.990        27
34.000        33
34.010        40
34.020        20
34.030        13
34.040        20
34.050        20
34.060        33
34.070        47
34.080        13
34.090        33
34.100        13
34.110        27
34.120        20
34.130        20
34.140        27
34.150        20
34.160        47
34.170        27
34.180        33
34.190         7
34.200        20
34.210        27
34.220        20
34.230        40
34.240        20
34.250         7
34.260        13
34.270        27
34.280         7
34.290        20
34.300        13
34.310        27
34.320        20
34.330        13
34.340        27
34.350        40
34.360        13
34.370        13
34.380        53
34.390        13
34.400        20
34.410        47
34.420        33
34.430        87
34.440        47
34.450        47
34.460        67
34.470        33
34.480        33
34.490        13
34.500        47
34.510        60
34.520        27
34.530        40
34.540        33
34.550         7
34.560        33
34.570        27
34.580        33
34.590        33
34.600        33
34.610        27
34.620        13
34.630        13
34.640        40
34.650        47
34.660        27
34.670        33
34.680        27
34.690        33
34.700        20
34.710        33
34.720        20
34.730        27
34.740        13
34.750        47
34.760        40
34.770        27
34.780        20
34.790         7
34.800        33
34.810        27
34.820        40
34.830        13
34.840        27
34.850        40
34.860        47
34.870        27
34.880         7
34.890        20
34.900        27
34.910        13
34.920        27
34.930        67
34.940        33
34.950        60
34.960        67
34.970        33
34.980        67
34.990        47
35.000        80
35.010        67
35.020        93
35.030        80
35.040        93
35.050        60
35.060        87
35.070       153
35.080       160
35.090       120
35.100       213
35.110       240
35.120       240
35.130       227
35.140       220
35.150       253
35.160       200
35.170       153
35.180       127
35.190       140
35.200        93
35.210        87
35.220       107
35.230       120
35.240       193
35.250        33
35.260       120
35.270        67
35.280        53
35.290        13
35.300        20
35.310        27
35.320        40
35.330        27
35.340        40
35.350         7
35.360         7
35.370        33
35.380        27
35.390        47
35.400        47
35.410        20
35.420         7
35.430         7
35.440        40
35.450         7
35.460         7
35.470        27
35.480        13
35.490         7
35.500        33
35.510        33
35.520        13
35.530        20
35.540        13
35.550        20
35.560        27
35.570        13
35.580        20
35.590         0
35.600        33
35.610        27
35.620        27
35.630        33
35.640        33
35.650        13
35.660        27
35.670        33
35.680         7
35.690        13
35.700        27
35.710        27
35.720        27
35.730        47
35.740        33
35.750        27
35.760        20
35.770        13
35.780        20
35.790        33
35.800        40
35.810        20
35.820        20
35.830        47
35.840        40
35.850        40
35.860         0
35.870        13
35.880        20
35.890        53
35.900         7
35.910        13
35.920        40
35.930        20
35.940        20
35.950         7
35.960        33
35.970        20
35.980        20
35.990        20
36.000        20
36.010        40
36.020        33
36.030        20
36.040        13
36.050         0
36.060         7
36.070        27
36.080        13
36.090        33
36.100        27
36.110        20
36.120         0
36.130        20
36.140        20
36.150        27
36.160        33
36.170        13
36.180        20
36.190        13
36.200        20
36.210        13
36.220        33
36.230        27
36.240        13
36.250        20
36.260        13
36.270        13
36.280        13
36.290        27
36.300        13
36.310        33
36.320        27
36.330        27
36.340        27
36.350        33
36.360        13
36.370        20
36.380        13
36.390        20
36.400        27
36.410        27
36.420        13
36.430        47
36.440        27
36.450        53
36.460        20
36.470        13
36.480        33
36.490        20
36.500        20
36.510         0
36.520        20
36.530        47
36.540        40
36.550        20
36.560         7
36.570        13
36.580        20
36.590         0
36.600        20
36.610        33
36.620        20
36.630         7
36.640         7
36.650        13
36.660        40
36.670         0
36.680        13
36.690        27
36.700         7
36.710        40
36.720        27
36.730        20
36.740        33
36.750        40
36.760        40
36.770        20
36.780        20
36.790        20
36.800        40
36.810        27
36.820        33
36.830         7
36.840         7
36.850        13
36.860         7
36.870        47
36.880        40
36.890        47
36.900        33
36.910        20
36.920        33
36.930        53
36.940        27
36.950        33
36.960        27
36.970        47
36.980        20
36.990        47
37.000        47
37.010        20
37.020        40
37.030        27
37.040        33
37.050        13
37.060        40
37.070        20
37.080        20
37.090        20
37.100         7
37.110         7
37.120        20
37.130        20
37.140        27
37.150         0
37.160        33
37.170        33
37.180        27
37.190        40
37.200        13
37.210        27
37.220        40
37.230         7
37.240         7
37.250         7
37.260         7
37.270         7
37.280        13
37.290         7
37.300        13
37.310        33
37.320        27
37.330        13
37.340        20
37.350        20
37.360         0
37.370        13
37.380        47
37.390        13
37.400         0
37.410        27
37.420        20
37.430        27
37.440        27
37.450        13
37.460        27
37.470        13
37.480         7
37.490        20
37.500        27
37.510        20
37.520        13
37.530        20
37.540        13
37.550        27
37.560         7
37.570        13
37.580         7
37.590        20
37.600        33
37.610        33
37.620        33
37.630        20
37.640        13
37.650        33
37.660        33
37.670        53
37.680        13
37.690        27
37.700        47
37.710        60
37.720        27
37.730        33
37.740        27
37.750        40
37.760        73
37.770        47
37.780        20
37.790        47
37.800        60
37.810        40
37.820        13
37.830        20
37.840        33
37.850        60
37.860        20
37.870        27
37.880        20
37.890        27
37.900        53
37.910        60
37.920        27
37.930        13
37.940        13
37.950        27
37.960        27
37.970        13
37.980        27
37.990        13
38.000        27
38.010        33
38.020        53
38.030         0
38.040        27
38.050        27
38.060         0
38.070         7
38.080        13
38.090         7
38.100        20
38.110         7
38.120        33
38.130        27
38.140        20
38.150        13
38.160         7
38.170        27
38.180        33
38.190         7
38.200        27
38.210        27
38.220        27
38.230        27
38.240         7
38.250        13
38.260        13
38.270        13
38.280        20
38.290        13
38.300        27
38.310        33
38.320        20
38.330        27
38.340        20
38.350         7
38.360        33
38.370        40
38.380        13
38.390        33
38.400         7
38.410         7
38.420        47
38.430        33
38.440        13
38.450        13
38.460        20
38.470        20
38.480        40
38.490        53
38.500        40
38.510        33
38.520        27
38.530         0
38.540        20
38.550        40
38.560        27
38.570        27
38.580        27
38.590        33
38.600         7
38.610        20
38.620        13
38.630        27
38.640        27
38.650        20
38.660        27
38.670        33
38.680        20
38.690        13
38.700        47
38.710         0
38.720        13
38.730         7
38.740        13
38.750        27
38.760        13
38.770         7
38.780        27
38.790        20
38.800        53
38.810        20
38.820        27
38.830        27
38.840        27
38.850         7
38.860        33
38.870        40
38.880        13
38.890        47
38.900        40
38.910        20
38.920        13
38.930        27
38.940         7
38.950        27
38.960        40
38.970        40
38.980        20
38.990        13
39.000        27
39.010        33
39.020        40
39.030        20
39.040        13
39.050         7
39.060        27
39.070         0
39.080        13
39.090        20
39.100         7
39.110        20
39.120        27
39.130         0
39.140        20
39.150        20
39.160        33
39.170        13
39.180        33
39.190        33
39.200        40
39.210        20
39.220        40
39.230         0
39.240        13
39.250        53
39.260        20
39.270        27
39.280        13
39.290        33
39.300         7
39.310        47
39.320        27
39.330        13
39.340         0
39.350         7
39.360        27
39.370        13
39.380        40
39.390        13
39.400        20
39.410        27
39.420        27
39.430        40
39.440        20
39.450        13
39.460        13
39.470        27
39.480         7
39.490        40
39.500        27
39.510        33
39.520        20
39.530         7
39.540        20
39.550         7
39.560         7
39.570        20
39.580        20
39.590        20
39.600        33
39.610        13
39.620         0
39.630         0
39.640         7
39.650        13
39.660        27
39.670        27
39.680         7
39.690        20
39.700         0
39.710        27
39.720        67
39.730        47
39.740        20
39.750        13
39.760        27
39.770        13
39.780        27
39.790        20
39.800         7
39.810        20
39.820        33
39.830        20
39.840        27
39.850        20
39.860         7
39.870         7
39.880         7
39.890         7
39.900        40
39.910        20
39.920        47
39.930        27
39.940        20
39.950        33
39.960        27
39.970        20
39.980        40
39.990        13
40.000        13
40.010         7
40.020        13
40.030        20
40.040        13
40.050        27
40.060        27
40.070         7
40.080         7
40.090        20
40.100         7
40.110        33
40.120        40
40.130        20
40.140        20
40.150        27
40.160        27
40.170        33
40.180        13
40.190        13
40.200        33
40.210        20
40.220        27
40.230        27
40.240        33
40.250        20
40.260        33
40.270        20
40.280        20
40.290        33
40.300        20
40.310        20
40.320        13
40.330        20
40.340        40
40.350        47
40.360        33
40.370        27
40.380        20
40.390        20
40.400        20
40.410        33
40.420        20
40.430         7
40.440        13
40.450        33
40.460         7
40.470        20
40.480        13
40.490        20
40.500        13
40.510        27
40.520         0
40.530        27
40.540        53
40.550        13
40.560        27
40.570        27
40.580        47
40.590        40
40.600        20
40.610        27
40.620        47
40.630        40
40.640        20
40.650        33
40.660        20
40.670        13
40.680        13
40.690        33
40.700        13
40.710        27
40.720        20
40.730        60
40.740        27
40.750        13
40.760         7
40.770        20
40.780        20
40.790         7
40.800        20
40.810        13
40.820        20
40.830        13
40.840        40
40.850        53
40.860         7
40.870        33
40.880        27
40.890         7
40.900         0
40.910        13
40.920        13
40.930        13
40.940        27
40.950        40
40.960        27
40.970        13
40.980         0
40.990        27
41.000         7
41.010         7
41.020        33
41.030         7
41.040        27
41.050        67
41.060        20
41.070        20
41.080        20
41.090        40
41.100        13
41.110        27
41.120        27
41.130        20
41.140        20
41.150        20
41.160        20
41.170        13
41.180         0
41.190         7
41.200        13
41.210         0
41.220         7
41.230        20
41.240        33
41.250        40
41.260         7
41.270        20
41.280        20
41.290        20
41.300        33
41.310        33
41.320        13
41.330        33
41.340        13
41.350         7
41.360        20
41.370        20
41.380        13
41.390        20
41.400        27
41.410        20
41.420        27
41.430        27
41.440        33
41.450        33
41.460        33
41.470        27
41.480        33
41.490        33
41.500        20
41.510        40
41.520        27
41.530        33
41.540        13
41.550        33
41.560        20
41.570        53
41.580        40
41.590        67
41.600        53
41.610        47
41.620        80
41.630        80
41.640        33
41.650       113
41.660        80
41.670       160
41.680       107
41.690       100
41.700       113
41.710       113
41.720       100
41.730        80
41.740        80
41.750       120
41.760        47
41.770        80
41.780       127
41.790        93
41.800        47
41.810        53
41.820        73
41.830        40
41.840        47
41.850        67
41.860        53
41.870        13
41.880        40
41.890        20
41.900        47
41.910        33
41.920        27
41.930         7
41.940        33
41.950        13
41.960        40
41.970         7
41.980        33
41.990         7
42.000        40
42.010        20
42.020        20
42.030         7
42.040        20
42.050        27
42.060        33
42.070        13
42.080        13
42.090        13
42.100        27
42.110         0
42.120        33
42.130        47
42.140        20
42.150        33
42.160        20
42.170        20
42.180        33
42.190         7
42.200        20
42.210        20
42.220        13
42.230        13
42.240        60
42.250        60
42.260        60
42.270        40
42.280         7
42.290        27
42.300        27
42.310        27
42.320        20
42.330        60
42.340        20
42.350        53
42.360        33
42.370        33
42.380        60
42.390        33
42.400        13
42.410        27
42.420        33
42.430        20
42.440        40
42.450        27
42.460        33
42.470        13
42.480        33
42.490        53
42.500        13
42.510         0
42.520         7
42.530         7
42.540        20
42.550        33
42.560        13
42.570        20
42.580         0
42.590        33
42.600        27
42.610        20
42.620         7
42.630        20
42.640        27
42.650         7
42.660        27
42.670         7
42.680        33
42.690        20
42.700        13
42.710        33
42.720        20
42.730        27
42.740        40
42.750        20
42.760        27
42.770        27
42.780        13
42.790        27
42.800        13
42.810        13
42.820        27
42.830        27
42.840        20
42.850        27
42.860        33
42.870         7
42.880        27
42.890        27
42.900        20
42.910        27
42.920        27
42.930         7
42.940        33
42.950         7
42.960        27
42.970         7
42.980         7
42.990         7
43.000        13
43.010         7
43.020        27
43.030        27
43.040        40
43.050        20
43.060        20
43.070        20
43.080        53
43.090        33
43.100        27
43.110        13
43.120        20
43.130        33
43.140        20
43.150        27
43.160        33
43.170        33
43.180        20
43.190        40
43.200        27
43.210        33
43.220        40
43.230        40
43.240        40
43.250        53
43.260        67
43.270       100
43.280        67
43.290       100
43.300        80
43.310        33
43.320        73
43.330       140
43.340       200
43.350       140
43.360       153
43.370       133
43.380       147
43.390       140
43.400       180
43.410        93
43.420        93
43.430        87
43.440       100
43.450       100
43.460        47
43.470        93
43.480       140
43.490       113
43.500        60
43.510        80
43.520        87
43.530        60
43.540        33
43.550        13
43.560        33
43.570        20
43.580        13
43.590        20
43.600        47
43.610        40
43.620        53
43.630        20
43.640         0
43.650        20
43.660        27
43.670        27
43.680        33
43.690        27
43.700        27
43.710        20
43.720        13
43.730        13
43.740        27
43.750         7
43.760         7
43.770        27
43.780        20
43.790        47
43.800        20
43.810        20
43.820        13
43.830        20
43.840        27
43.850        27
43.860        20
43.870        20
43.880         0
43.890        40
43.900        27
43.910        13
43.920        20
43.930        27
43.940        33
43.950         7
43.960         7
43.970        13
43.980        27
43.990        13
44.000         7
44.010        20
44.020        33
44.030        20
44.040        20
44.050        27
44.060        27
44.070        33
44.080        33
44.090         7
44.100        27
44.110         7
44.120        33
44.130        20
44.140        20
44.150         0
44.160        20
44.170        40
44.180        13
44.190        27
44.200        33
44.210        20
44.220        40
44.230        33
44.240        20
44.250        53
44.260        33
44.270         0
44.280        27
44.290        13
44.300        27
44.310        20
44.320        27
44.330        33
44.340        20
44.350        27
44.360        13
44.370        27
44.380         0
44.390        13
44.400        47
44.410         7
44.420        13
44.430        20
44.440        27
44.450        27
44.460        13
44.470        20
44.480        20
44.490        47
44.500        20
44.510         7
44.520        13
44.530        13
44.540        13
44.550        27
44.560         7
44.570         7
44.580        13
44.590        20
44.600        33
44.610        33
44.620        20
44.630        20
44.640        40
44.650        13
44.660        13
44.670        13
44.680         7
44.690        33
44.700        20
44.710        13
44.720        27
44.730        13
44.740        27
44.750         0
44.760        27
44.770        13
44.780        20
44.790        33
44.800        27
44.810        40
44.820        47
44.830        53
44.840         7
44.850        33
44.860        40
44.870         7
44.880        27
44.890        33
44.900        20
44.910        13
44.920        27
44.930         0
44.940        20
44.950        27
44.960        27
44.970        27
44.980        47
44.990        40
45.000         0
45.010         7
45.020        33
45.030        13
45.040        40
45.050        13
45.060        40
45.070        20
45.080        20
45.090        20
45.100        13
45.110         7
45.120        27
45.130        27
45.140        13
45.150        13
45.160        13
45.170        20
45.180        47
45.190        20
45.200        13
45.210        27
45.220        13
45.230         7
45.240        20
45.250        27
45.260        13
45.270        27
45.280        20
45.290        27
45.300         0
45.310         0
45.320        13
45.330        20
45.340        27
45.350        20
45.360        13
45.370         7
45.380        13
45.390        33
45.400        13
45.410        13
45.420        20
45.430        13
45.440        13
45.450        20
45.460         7
45.470        33
45.480        33
45.490         7
45.500        33
45.510         0
45.520        40
45.530        20
45.540        20
45.550        20
45.560        27
45.570        33
45.580        40
45.590        13
45.600        13
45.610        33
45.620        40
45.630        13
45.640         7
45.650        20
45.660        53
45.670        33
45.680        13
45.690        13
45.700        33
45.710        47
45.720        27
45.730        20
45.740        13
45.750        27
45.760        47
45.770        33
45.780        33
45.790        33
45.800        47
45.810        67
45.820        47
45.830        20
45.840       120
45.850        73
45.860        40
45.870        80
45.880        73
45.890        73
45.900       107
45.910       153
45.920       127
45.930       153
45.940        67
45.950       133
45.960       107
45.970       120
45.980       173
45.990       167
46.000        87
46.010       153
46.020       140
46.030       147
46.040       133
46.050       120
46.060        93
46.070       107
46.080       107
46.090       133
46.100       113
46.110       107
46.120       127
46.130       140
46.140       100
46.150        60
46.160        67
46.170       100
46.180        93
46.190        93
46.200        87
46.210        80
46.220        87
46.230        67
46.240        80
46.250        87
46.260        87
46.270        27
46.280        60
46.290        53
46.300        73
46.310        53
46.320        60
46.330        33
46.340        40
46.350        80
46.360        33
46.370        60
46.380        40
46.390        33
46.400        33
46.410        53
46.420        67
46.430        53
46.440        67
46.450        27
46.460        27
46.470        53
46.480        47
46.490        67
46.500        40
46.510        40
46.520        20
46.530        53
46.540        80
46.550        33
46.560        27
46.570        67
46.580        67
46.590        33
46.600        73
46.610        60
46.620        33
46.630        47
46.640        40
46.650        47
46.660        33
46.670        67
46.680        67
46.690        60
46.700        60
46.710        53
46.720        60
46.730        80
46.740        60
46.750        67
46.760        67
46.770        67
46.780        33
46.790        60
46.800        80
46.810        73
46.820        93
46.830        47
46.840        33
46.850        27
46.860        60
46.870        20
46.880        33
46.890        67
46.900        40
46.910        53
46.920        73
46.930        53
46.940        33
46.950        60
46.960        67
46.970        60
46.980        47
46.990        60
47.000        40
47.010        33
47.020        40
47.030        60
47.040        53
47.050        20
47.060        33
47.070        27
47.080        13
47.090        33
47.100        20
47.110        40
47.120        20
47.130        33
47.140        20
47.150        67
47.160        20
47.170        47
47.180        33
47.190        20
47.200        40
47.210        20
47.220        20
47.230        33
47.240        20
47.250        33
47.260        27
47.270        13
47.280         7
47.290        13
47.300         7
47.310        27
47.320        33
47.330         7
47.340        40
47.350        20
47.360        13
47.370        27
47.380        13
47.390        33
47.400        40
47.410        13
47.420        27
47.430         7
47.440        13
47.450        13
47.460        13
47.470        53
47.480        27
47.490        27
47.500         7
47.510        40
47.520        20
47.530         7
47.540        33
47.550        13
47.560        13
47.570         7
47.580        27
47.590         7
47.600         7
47.610        13
47.620        33
47.630        13
47.640        27
47.650        27
47.660         0
47.670        13
47.680        27
47.690        40
47.700        13
47.710         0
47.720        27
47.730        20
47.740        13
47.750        27
47.760        27
47.770        20
47.780        20
47.790        20
47.800        27
47.810         7
47.820        33
47.830         7
47.840        20
47.850        13
47.860        13
47.870         7
47.880        33
47.890        13
47.900        20
47.910        13
47.920        40
47.930        27
47.940        33
47.950         0
47.960        20
47.970        27
47.980        13
47.990        27
48.000        40
48.010        13
48.020        27
48.030        13
48.040        13
48.050        40
48.060        40
48.070        20
48.080        40
48.090        13
48.100        13
48.110        27
48.120        20
48.130        13
48.140        53
48.150         7
48.160        27
48.170        13
48.180        20
48.190        20
48.200        40
48.210        33
48.220        20
48.230        13
48.240        13
48.250        20
48.260         7
48.270        20
48.280        47
48.290        13
48.300        33
48.310        33
48.320        27
48.330        20
48.340        33
48.350        13
48.360        33
48.370        20
48.380         7
48.390        20
48.400        13
48.410        13
48.420        33
48.430        33
48.440        13
48.450        13
48.460        40
48.470        27
48.480        13
48.490        33
48.500        40
48.510        13
48.520        20
48.530        20
48.540        40
48.550         0
48.560         7
48.570         0
48.580        47
48.590         7
48.600        13
48.610         7
48.620        27
48.630        20
48.640        27
48.650        13
48.660         0
48.670         7
48.680         7
48.690        40
48.700        33
48.710         0
48.720        13
48.730        47
48.740        33
48.750         7
48.760        27
48.770        20
48.780        27
48.790         7
48.800        13
48.810         7
48.820        20
48.830        27
48.840        33
48.850         0
48.860        20
48.870        20
48.880         7
48.890        27
48.900        40
48.910         0
48.920        33
48.930        33
48.940        40
48.950        40
48.960         7
48.970        40
48.980        33
48.990        27
49.000        33
49.010        33
49.020        20
49.030        40
49.040        20
49.050        73
49.060        13
49.070        33
49.080        27
49.090        33
49.100        40
49.110        33
49.120        13
49.130        33
49.140        53
49.150        53
49.160        20
49.170        27
49.180        47
49.190        27
49.200        53
49.210        47
49.220        13
49.230        40
49.240        27
49.250        27
49.260        33
49.270         0
49.280        27
49.290        20
49.300         7
49.310        47
49.320        33
49.330        40
49.340        33
49.350        27
49.360        13
49.370         7
49.380        13
49.390        33
49.400        20
49.410        33
49.420        27
49.430         7
49.440         7
49.450        20
49.460        27
49.470        47
49.480        13
49.490        27
49.500        40
49.510         7
49.520        13
49.530        20
49.540         7
49.550         7
49.560        40
49.570         7
49.580         7
49.590        27
49.600         0
49.610        40
49.620         7
49.630        13
49.640        33
49.650        27
49.660        27
49.670         0
49.680         0
49.690        40
49.700        20
49.710        13
49.720        13
49.730        20
49.740        13
49.750        27
49.760        27
49.770        27
49.780        20
49.790        13
49.800        20
49.810        20
49.820        13
49.830        20
49.840        33
49.850        53
49.860        33
49.870         7
49.880        13
49.890         0
49.900        33
49.910        13
49.920         7
49.930        27
49.940        20
49.950        27
49.960        13
49.970        47
49.980        13
49.990        27
50.000         7
50.010        33
50.020        33
50.030        27
50.040         7
50.050        40
50.060        27
50.070        20
50.080        13
50.090        27
50.100        20
50.110        53
50.120        27
50.130        13
50.140        13
50.150        20
50.160         7
50.170        27
50.180         7
50.190        20
50.200         0
50.210         7
50.220        27
50.230        13
50.240        13
50.250        13
50.260        20
50.270        27
50.280        13
50.290        13
50.300        13
50.310        27
50.320         7
50.330        20
50.340        13
50.350         7
50.360        13
50.370        20
50.380        33
50.390        13
50.400        33
50.410        27
50.420        13
50.430        13
50.440        27
50.450        13
50.460        20
50.470        13
50.480        20
50.490        13
50.500        33
50.510        13
50.520        53
50.530        27
50.540        13
50.550        13
50.560         7
50.570        20
50.580         0
50.590        13
50.600        20
50.610         7
50.620        13
50.630        27
50.640        33
50.650        20
50.660        13
50.670        13
50.680        20
50.690         7
50.700        20
50.710        13
50.720        20
50.730        20
50.740        20
50.750        33
50.760        13
50.770        40
50.780        33
50.790        27
50.800         0
50.810        13
50.820         7
50.830        13
50.840        33
50.850        13
50.860        13
50.870        20
50.880        20
50.890        33
50.900         7
50.910         7
50.920        13
50.930        20
50.940        40
50.950        20
50.960        13
50.970         7
50.980        20
50.990        27
51.000        13
51.010         7
51.020         7
51.030        27
51.040        13
51.050        27
51.060        13
51.070         0
51.080        13
51.090         7
51.100         7
51.110         7
51.120        13
51.130        27
51.140        20
51.150         7
51.160        33
51.170         7
51.180        13
51.190         7
51.200        40
51.210        27
51.220        20
51.230        20
51.240        33
51.250        20
51.260        13
51.270        20
51.280        13
51.290        47
51.300        27
51.310        13
51.320        27
51.330         7
51.340        33
51.350        13
51.360         7
51.370         0
51.380        13
51.390        27
51.400        27
51.410        13
51.420        27
51.430        33
51.440        20
51.450        13
51.460        33
51.470        13
51.480         7
51.490        20
51.500        13
51.510        27
51.520        13
51.530         7
51.540        33
51.550         7
51.560        20
51.570        47
51.580        60
51.590        13
51.600        13
51.610        60
51.620        40
51.630        33
51.640        47
51.650        20
51.660        40
51.670        27
51.680        40
51.690        33
51.700        33
51.710        27
51.720        13
51.730        20
51.740        33
51.750        13
51.760        53
51.770        27
51.780        27
51.790        13
51.800        20
51.810        53
51.820        40
51.830        47
51.840        47
51.850        33
51.860        40
51.870        27
51.880        20
51.890        47
51.900        40
51.910        33
51.920        33
51.930        53
51.940        47
51.950         0
51.960        33
51.970        47
51.980        60
51.990        33
52.000        33
52.010        33
52.020        33
52.030        27
52.040        33
52.050        40
52.060        47
52.070        13
52.080        20
52.090        13
52.100         0
52.110        20
52.120        13
52.130        20
52.140        20
52.150        20
52.160        53
52.170        33
52.180        40
52.190        33
52.200         7
52.210        27
52.220        40
52.230        13
52.240        13
52.250        20
52.260        33
52.270        53
52.280        47
52.290        53
52.300        13
52.310        27
52.320        13
52.330        13
52.340        20
52.350        27
52.360        20
52.370        20
52.380        53
52.390        27
52.400        27
52.410         0
52.420        13
52.430         7
52.440        33
52.450        40
52.460        27
52.470        93
52.480        67
52.490        60
52.500        53
52.510       113
52.520       120
52.530       113
52.540       107
52.550       160
52.560       147
52.570       180
52.580       147
52.590       220
52.600       213
52.610       153
52.620       107
52.630        67
52.640        87
52.650        87
52.660        40
52.670        93
52.680        53
52.690        87
52.700       113
52.710        67
52.720       113
52.730       127
52.740       120
52.750        27
52.760        40
52.770        47
52.780        73
52.790        27
52.800        20
52.810        60
52.820        40
52.830        20
52.840        27
52.850        20
52.860        33
52.870        27
52.880        33
52.890        13
52.900        27
52.910         7
52.920        13
52.930        33
52.940        13
52.950        13
52.960        20
52.970        20
52.980        13
52.990        13
53.000         7
53.010         7
53.020        20
53.030         7
53.040         0
53.050        27
53.060         7
53.070        27
53.080        13
53.090        20
53.100         7
53.110        33
53.120        13
53.130         7
53.140         0
53.150        13
53.160        13
53.170        20
53.180        20
53.190         0
53.200        20
53.210        13
53.220        20
53.230        27
53.240        20
53.250        20
53.260        20
53.270        27
53.280        47
53.290         7
53.300        20
53.310         7
53.320        13
53.330        27
53.340        13
53.350        20
53.360        20
53.370        13
53.380        33
53.390        27
53.400        20
53.410        33
53.420        27
53.430         0
53.440        13
53.450        13
53.460        33
53.470        13
53.480        13
53.490         7
53.500        20
53.510        20
53.520        13
53.530        13
53.540        33
53.550        27
53.560        33
53.570        20
53.580        27
53.590        13
53.600        13
53.610        13
53.620        53
53.630        20
53.640         7
53.650        13
53.660         7
53.670        27
53.680        13
53.690         7
53.700        13
53.710         7
53.720        13
53.730         0
53.740        40
53.750        33
53.760        33
53.770         0
53.780        13
53.790        20
53.800        20
53.810        27
53.820        27
53.830        20
53.840         7
53.850        27
53.860        27
53.870        13
53.880         7
53.890        13
53.900        13
53.910         7
53.920         7
53.930         7
53.940        20
53.950        33
53.960        13
53.970        20
53.980         7
53.990         7
54.000         0
54.010        20
54.020         7
54.030        27
54.040        27
54.050        13
54.060        33
54.070         7
54.080        20
54.090        20
54.100         7
54.110        13
54.120         7
54.130        13
54.140        13
54.150         7
54.160        13
54.170        13
54.180        27
54.190        13
54.200        13
54.210        13
54.220        13
54.230         7
54.240        20
54.250         0
54.260        20
54.270        20
54.280        27
54.290        27
54.300         7
54.310         0
54.320        13
54.330         0
54.340         0
54.350        27
54.360        20
54.370         0
54.380        33
54.390        13
54.400        20
54.410         7
54.420        20
54.430         0
54.440         7
54.450        20
54.460        13
54.470        20
54.480        33
54.490        13
54.500        27
54.510         7
54.520         0
54.530         7
54.540        40
54.550         0
54.560        13
54.570        20
54.580        20
54.590        33
54.600        27
54.610         7
54.620        13
54.630        13
54.640        13
54.650         7
54.660        27
54.670        20
54.680         0
54.690         7
54.700        20
54.710        13
54.720         7
54.730        53
54.740        20
54.750         0
54.760        27
54.770         7
54.780        13
54.790         7
54.800        13
54.810        13
54.820        20
54.830        40
54.840        47
54.850         7
54.860         0
54.870        27
54.880         0
54.890        27
54.900         0
54.910         7
54.920        13
54.930        13
54.940        20
54.950         7
54.960        20
54.970        13
54.980        13
54.990        27
55.000        40
55.010        13
55.020        13
55.030        13
55.040        13
55.050         7
55.060         7
55.070        13
55.080        33
55.090         7
55.100        20
55.110        13
55.120        20
55.130         7
55.140        13
55.150        27
55.160         7
55.170        20
55.180        20
55.190         7
55.200         0
55.210        13
55.220        13
55.230        13
55.240         7
55.250        27
55.260        13
55.270        13
55.280        20
55.290        20
55.300        20
55.310        27
55.320        13
55.330        13
55.340        33
55.350         7
55.360        13
55.370         0
55.380        13
55.390        13
55.400        40
55.410         0
55.420        13
55.430        20
55.440        13
55.450        27
55.460        20
55.470        27
55.480        53
55.490        13
55.500        13
55.510        27
55.520        20
55.530         7
55.540        20
55.550        33
55.560        13
55.570        20
55.580        13
55.590        27
55.600        20
55.610        40
55.620        27
55.630        27
55.640        47
55.650        33
55.660        27
55.670        40
55.680        20
55.690        33
55.700        47
55.710        27
55.720        40
55.730        60
55.740        20
55.750        33
55.760        20
55.770        27
55.780        27
55.790        20
55.800        33
55.810        40
55.820        20
55.830        60
55.840        20
55.850        33
55.860        33
55.870        33
55.880        27
55.890        27
55.900        33
55.910        27
55.920        13
55.930        13
55.940        13
55.950        27
55.960         7
55.970        33
55.980        40
55.990        20
56.000        27
56.010         7
56.020        20
56.030        20
56.040        27
56.050        13
56.060         7
56.070         0
56.080        13
56.090        13
56.100        13
56.110        27
56.120        20
56.130        13
56.140        27
56.150        40
56.160        47
56.170        20
56.180        20
56.190        13
56.200        20
56.210        27
56.220        33
56.230        13
56.240        13
56.250        33
56.260        20
56.270        40
56.280        40
56.290        20
56.300        40
56.310        33
56.320        13
56.330        27
56.340        33
56.350        47
56.360        53
56.370        40
56.380        40
56.390        40
56.400        27
56.410        27
56.420        27
56.430        20
56.440        27
56.450        13
56.460        27
56.470        13
56.480        47
56.490         0
56.500        20
56.510        20
56.520        20
56.530        27
56.540        13
56.550        13
56.560        13
56.570        13
56.580        33
56.590        20
56.600        47
56.610         7
56.620        13
56.630        20
56.640        33
56.650        13
56.660         7
56.670         0
56.680        47
56.690        20
56.700        20
56.710        40
56.720         7
56.730         7
56.740        20
56.750         0
56.760        40
56.770        20
56.780         7
56.790        13
56.800        27
56.810        13
56.820        13
56.830        13
56.840         0
56.850        40
56.860         0
56.870        27
56.880        13
56.890        20
56.900        20
56.910        40
56.920        20
56.930        33
56.940        20
56.950        40
56.960         0
56.970        27
56.980        20
56.990         7
57.000        13
57.010        13
57.020        20
57.030         7
57.040         7
57.050        20
57.060         0
57.070         7
57.080         0
57.090        33
57.100        20
57.110        27
57.120        13
57.130        13
57.140        20
57.150        20
57.160        20
57.170         7
57.180        27
57.190        13
57.200        20
57.210        40
57.220         7
57.230        33
57.240        27
57.250        33
57.260        60
57.270        20
57.280        60
57.290        73
57.300        13
57.310        47
57.320        27
57.330        47
57.340        60
57.350        53
57.360        20
57.370        40
57.380        53
57.390        33
57.400        47
57.410        53
57.420        53
57.430        80
57.440        67
57.450       107
57.460       193
57.470       127
57.480       140
57.490       293
57.500       420
57.510       400
57.520       533
57.530       600
57.540       633
57.550       420
57.560       486
57.570       393
57.580       320
57.590       207
57.600       180
57.610       200
57.620       153
57.630       140
57.640       147
57.650       227
57.660       227
57.670       227
57.680       293
57.690       347
57.700       233
57.710       267
57.720       307
57.730       267
57.740       160
57.750       127
57.760        67
57.770        53
57.780        53
57.790        67
57.800        27
57.810        33
57.820        27
57.830        20
57.840        27
57.850        20
57.860        27
57.870        27
57.880        13
57.890        20
57.900        33
57.910        27
57.920        33
57.930        33
57.940        20
57.950        27
57.960        13
57.970        20
57.980        13
57.990        13
58.000         7
58.010        33
58.020        20
58.030        40
58.040        13
58.050        20
58.060        33
58.070        20
58.080        13
58.090        20
58.100        47
58.110        13
58.120        13
58.130         7
58.140        13
58.150        20
58.160        33
58.170        13
58.180        13
58.190        13
58.200         7
58.210        20
58.220        20
58.230        27
58.240         7
58.250         0
58.260         0
58.270        47
58.280        27
58.290         7
58.300        20
58.310        20
58.320        20
58.330        20
58.340        33
58.350         7
58.360        40
58.370        33
58.380        33
58.390         0
58.400        33
58.410        20
58.420         7
58.430        13
58.440        27
58.450         7
58.460        13
58.470         7
58.480        13
58.490        40
58.500        13
58.510        13
58.520        13
58.530         7
58.540        27
58.550        13
58.560        33
58.570         7
58.580        40
58.590        20
58.600        20
58.610        27
58.620        20
58.630         7
58.640         0
58.650         7
58.660        27
58.670         7
58.680         7
58.690        13
58.700        13
58.710         7
58.720         0
58.730         7
58.740        13
58.750        13
58.760         7
58.770        33
58.780        20
58.790        33
58.800         7
58.810        20
58.820        13
58.830        27
58.840         0
58.850        20
58.860        27
58.870        20
58.880        13
58.890        13
58.900         0
58.910        20
58.920        27
58.930         7
58.940         7
58.950        13
58.960        20
58.970        20
58.980         0
58.990        13
59.000        13
59.010        20
59.020         7
59.030         0
59.040         7
59.050        13
59.060         0
59.070         7
59.080         7
59.090         0
59.100         0
59.110        27
59.120        20
59.130        27
59.140         7
59.150         0
59.160        13
59.170         7
59.180         7
59.190        13
59.200         7
59.210        33
59.220        13
59.230        13
59.240        13
59.250        13
59.260        20
59.270         7
59.280        13
59.290        33
59.300         0
59.310        13
59.320        47
59.330        20
59.340        27
59.350        33
59.360         0
59.370        13
59.380        27
59.390        13
59.400        33
59.410         7
59.420        20
59.430         7
59.440        20
59.450        13
59.460        20
59.470        27
59.480        13
59.490         0
59.500        33
59.510         0
59.520        13
59.530         0
59.540        53
59.550        20
59.560        20
59.570        27
59.580         0
59.590        20
59.600        27
59.610        33
59.620        33
59.630        13
59.640        13
59.650        20
59.660         7
59.670        13
59.680        20
59.690        53
59.700         0
59.710         7
59.720        40
59.730         7
59.740        27
59.750        20
59.760        20
59.770         7
59.780        33
59.790        47
59.800        13
59.810        40
59.820        33
59.830        20
59.840         7
59.850        13
59.860        27
59.870        47
59.880        27
59.890        27
59.900        27
59.910        27
59.920        27
59.930        27
59.940         7
59.950        20
59.960        13
59.970        13
59.980        27
59.990        13
60.000        13
