20.000        13
20.010        13
20.020        27
20.030        33
20.040        40
20.050        53
20.060        40
20.070        33
20.080         0
20.090        33
20.100        20
20.110        40
20.120        60
20.130        33
20.140        27
20.150        33
20.160        40
20.170        20
20.180        40
20.190        67
20.200        33
20.210        40
20.220        40
20.230         7
20.240        20
20.250        27
20.260        27
20.270        47
20.280        53
20.290        47
20.300        47
20.310        60
20.320        20
20.330        33
20.340        53
20.350        27
20.360        47
20.370        53
20.380        53
20.390        33
20.400        40
20.410        27
20.420        33
20.430        33
20.440        53
20.450        53
20.460        47
20.470        13
20.480        40
20.490        33
20.500        27
20.510        60
20.520        27
20.530        47
20.540        47
20.550         7
20.560        13
20.570        27
20.580        40
20.590        67
20.600        40
20.610        53
20.620        53
20.630        33
20.640        33
20.650        27
20.660        33
20.670        13
20.680        53
20.690         7
20.700        47
20.710        60
20.720        40
20.730        33
20.740        27
20.750        60
20.760         7
20.770        60
20.780        73
20.790        27
20.800        20
20.810        20
20.820        13
20.830        33
20.840        27
20.850        67
20.860        33
20.870        60
20.880        53
20.890        20
20.900        33
20.910        33
20.920        40
20.930        47
20.940        33
20.950        40
20.960        20
20.970        33
20.980        40
20.990        40
21.000        47
21.010        40
21.020        33
21.030         7
21.040        47
21.050        40
21.060        33
21.070        40
21.080        27
21.090        53
21.100        20
21.110        33
21.120        60
21.130        27
21.140        20
21.150        33
21.160        40
21.170        53
21.180        13
21.190        27
21.200        33
21.210        33
21.220        27
21.230        40
21.240        33
21.250        40
21.260        33
21.270        80
21.280        40
21.290        13
21.300        33
21.310        47
21.320        67
21.330        33
21.340        53
21.350        53
21.360        53
21.370        13
21.380        27
21.390        27
21.400        20
21.410        47
21.420        47
21.430        27
21.440        40
21.450        73
21.460        40
21.470        33
21.480        13
21.490        13
21.500        27
21.510        47
21.520         7
21.530        47
21.540        40
21.550        33
21.560        40
21.570        47
21.580        27
21.590        33
21.600        13
21.610        40
21.620        20
21.630        27
21.640        27
21.650        60
21.660        47
21.670        20
21.680        13
21.690        33
21.700        53
21.710        40
21.720        20
21.730        20
21.740        53
21.750        27
21.760        13
21.770        33
21.780        27
21.790        33
21.800        27
21.810        33
21.820        47
21.830        47
21.840        47
21.850        33
21.860        27
21.870        80
21.880        27
21.890        20
21.900        20
21.910        47
21.920        13
21.930        53
21.940        87
21.950        33
21.960        47
21.970        27
21.980        13
21.990        20
22.000        40
22.010       100
22.020        13
22.030        13
22.040        27
22.050        27
22.060         7
22.070        40
22.080        33
22.090        47
22.100        40
22.110        33
22.120        33
22.130        40
22.140        13
22.150        67
22.160        13
22.170        47
22.180        53
22.190        13
22.200        27
22.210        73
22.220        27
22.230        47
22.240        27
22.250        33
22.260        27
22.270        40
22.280        60
22.290        40
22.300        40
22.310        33
22.320        40
22.330         7
22.340        40
22.350        13
22.360        27
22.370        27
22.380        20
22.390        40
22.400        40
22.410         7
22.420        40
22.430        33
22.440        40
22.450        27
22.460        27
22.470        53
22.480        40
22.490        33
22.500        40
22.510        33
22.520        53
22.530        13
22.540        20
22.550        27
22.560        13
22.570        33
22.580        40
22.590        60
22.600        60
22.610        33
22.620        53
22.630        67
22.640        53
22.650        33
22.660        27
22.670        60
22.680        60
22.690        27
22.700        20
22.710        47
22.720        47
22.730         7
22.740        33
22.750        27
22.760        33
22.770        20
22.780        33
22.790        53
22.800       100
22.810        27
22.820        40
22.830        27
22.840        60
22.850        47
22.860        27
22.870        20
22.880        33
22.890        33
22.900        40
22.910        13
22.920        20
22.930        60
22.940        47
22.950        73
22.960        33
22.970        13
22.980        33
22.990        40
23.000         7
23.010        40
23.020        20
23.030        27
23.040        27
23.050        33
23.060        27
23.070        33
23.080        53
23.090        20
23.100        53
23.110         7
23.120        27
23.130        33
23.140        20
23.150        47
23.160        60
23.170        40
23.180        40
23.190         7
23.200        27
23.210        53
23.220         7
23.230        33
23.240        27
23.250        47
23.260        33
23.270        53
23.280        47
23.290        33
23.300        47
23.310        33
23.320        33
23.330        40
23.340        53
23.350        27
23.360        27
23.370        13
23.380        27
23.390         7
23.400        20
23.410        20
23.420        27
23.430        27
23.440        33
23.450        20
23.460        40
23.470        27
23.480        33
23.490        27
23.500        33
23.510        33
23.520        60
23.530        13
23.540        13
23.550        27
23.560        27
23.570        33
23.580        27
23.590        20
23.600        13
23.610        20
23.620        40
23.630        47
23.640        33
23.650        20
23.660        40
23.670        47
23.680        33
23.690        33
23.700         7
23.710        40
23.720         7
23.730        27
23.740        27
23.750        20
23.760         7
23.770        67
23.780        53
23.790        40
23.800        20
23.810        27
23.820        33
23.830        53
23.840        53
23.850        40
23.860        47
23.870        53
23.880        60
23.890        47
23.900        27
23.910        47
23.920        20
23.930        33
23.940        27
23.950        33
23.960        27
23.970        13
23.980        33
23.990        40
24.000         7
24.010        20
24.020        33
24.030        33
24.040        47
24.050        20
24.060        60
24.070        33
24.080        27
24.090        13
24.100        27
24.110        13
24.120        33
24.130        27
24.140        47
24.150        13
24.160        13
24.170        27
24.180        33
24.190         7
24.200         7
24.210        33
24.220        27
24.230         7
24.240        60
24.250        13
24.260        40
24.270        33
24.280        33
24.290        33
24.300        40
24.310        13
24.320        33
24.330        20
24.340        27
24.350        33
24.360        27
24.370        13
24.380        13
24.390        40
24.400        27
24.410        40
24.420        33
24.430        20
24.440        47
24.450        27
24.460        20
24.470        20
24.480        33
24.490        40
24.500         7
24.510        33
24.520        33
24.530        60
24.540        20
24.550        20
24.560        20
24.570        27
24.580        40
24.590        67
24.600        13
24.610        27
24.620        13
24.630        47
24.640        20
24.650        20
24.660        20
24.670        13
24.680        27
24.690        53
24.700        33
24.710        40
24.720        40
24.730        40
24.740        27
24.750        40
24.760        60
24.770        40
24.780        33
24.790        20
24.800        20
24.810        40
24.820        13
24.830        33
24.840         7
24.850        47
24.860        27
24.870        40
24.880        53
24.890        20
24.900        20
24.910        13
24.920        33
24.930        27
24.940        33
24.950        33
24.960         7
24.970        40
24.980        20
24.990        33
25.000        53
25.010        33
25.020        20
25.030        27
25.040        47
25.050        20
25.060        20
25.070        73
25.080        27
25.090        27
25.100        53
25.110        40
25.120        40
25.130        40
25.140        20
25.150        20
25.160        40
25.170        40
25.180        33
25.190        33
25.200         0
25.210        20
25.220        33
25.230        33
25.240        40
25.250        53
25.260        47
25.270        20
25.280        33
25.290        47
25.300        27
25.310        47
25.320        47
25.330        20
25.340        27
25.350        40
25.360        33
25.370        33
25.380        53
25.390        33
25.400        13
25.410        27
25.420        27
25.430         7
25.440        47
25.450         7
25.460        20
25.470        20
25.480        27
25.490        20
25.500        40
25.510        20
25.520        27
25.530        33
25.540        27
25.550        47
25.560        67
25.570        53
25.580        87
25.590        60
25.600        47
25.610        67
25.620        73
25.630        40
25.640        40
25.650        93
25.660        87
25.670        80
25.680        87
25.690        53
25.700        40
25.710        27
25.720        40
25.730        47
25.740        67
25.750        33
25.760        53
25.770        20
25.780        33
25.790        27
25.800        27
25.810        13
25.820        40
25.830        33
25.840        53
25.850        53
25.860        13
25.870        27
25.880        33
25.890        47
25.900        33
25.910        13
25.920        27
25.930        40
25.940        47
25.950        33
25.960        33
25.970        40
25.980        20
25.990        13
26.000        53
26.010        33
26.020        20
26.030        27
26.040        20
26.050        27
26.060        20
26.070        33
26.080        13
26.090        13
26.100        27
26.110        20
26.120        20
26.130        20
26.140        33
26.150        20
26.160        33
26.170        47
26.180        60
26.190        20
26.200        13
26.210         7
26.220        33
26.230         7
26.240        40
26.250        33
26.260        40
26.270        13
26.280        27
26.290        27
26.300        60
26.310        27
26.320        27
26.330        33
26.340        20
26.350        13
26.360        47
26.370        33
26.380        47
26.390        33
26.400        13
26.410        40
26.420        33
26.430        47
26.440        20
26.450         7
26.460         0
26.470         7
26.480        20
26.490        13
26.500        20
26.510        40
26.520        20
26.530        33
26.540        13
26.550        13
26.560        13
26.570        20
26.580         7
26.590        33
26.600        33
26.610         7
26.620        27
26.630        13
26.640         7
26.650        20
26.660        20
26.670        20
26.680        27
26.690        33
26.700        40
26.710        27
26.720        33
26.730        20
26.740        13
26.750         0
26.760        33
26.770        33
26.780        40
26.790        27
26.800        33
26.810        20
26.820        20
26.830        27
26.840        27
26.850        27
26.860        20
26.870        33
26.880        27
26.890        27
26.900        27
26.910        33
26.920        20
26.930        20
26.940         7
26.950        20
26.960        20
26.970        33
26.980        27
26.990         7
27.000        20
27.010        20
27.020        20
27.030        20
27.040        40
27.050        20
27.060        27
27.070        60
27.080        33
27.090         7
27.100        20
27.110        13
27.120        47
27.130        47
27.140         7
27.150        33
27.160        33
27.170        20
27.180        27
27.190        33
27.200        13
27.210        33
27.220        13
27.230        33
27.240        20
27.250        20
27.260         0
27.270        27
27.280        27
27.290         7
27.300        33
27.310        27
27.320        20
27.330        33
27.340        20
27.350        20
27.360        20
27.370        40
27.380        47
27.390        33
27.400        27
27.410         7
27.420        27
27.430        13
27.440        40
27.450        40
27.460        13
27.470         7
27.480        47
27.490        27
27.500         7
27.510        33
27.520        20
27.530        20
27.540        40
27.550        20
27.560        13
27.570        40
27.580        27
27.590        13
27.600        13
27.610        33
27.620        33
27.630        20
27.640        20
27.650        20
27.660        27
27.670        27
27.680        40
27.690        53
27.700        20
27.710        40
27.720        33
27.730        27
27.740        27
27.750        53
27.760        73
27.770        33
27.780        40
27.790        33
27.800        27
27.810        20
27.820        33
27.830        53
27.840        40
27.850        13
27.860        47
27.870        40
27.880        13
27.890        27
27.900        27
27.910         7
27.920        20
27.930        27
27.940        27
27.950        13
27.960        53
27.970        27
27.980        33
27.990        40
28.000        20
28.010        20
28.020         7
28.030        40
28.040        13
28.050        33
28.060        40
28.070        27
28.080        33
28.090        13
28.100        27
28.110        13
28.120         7
28.130        13
28.140        53
28.150        20
28.160        20
28.170        20
28.180        20
28.190        20
28.200        40
28.210        13
28.220        20
28.230         7
28.240         0
28.250        20
28.260        40
28.270        27
28.280         7
28.290         7
28.300        20
28.310        20
28.320        33
28.330        40
28.340        13
28.350        27
28.360        13
28.370        20
28.380        27
28.390        13
28.400        33
28.410         7
28.420        20
28.430        27
28.440        13
28.450         0
28.460        20
28.470        27
28.480        20
28.490        33
28.500        27
28.510        33
28.520        20
28.530        20
28.540        13
28.550        13
28.560        20
28.570        27
28.580        13
28.590        33
28.600        27
28.610        20
28.620        27
28.630         7
28.640        40
28.650        33
28.660        20
28.670        20
28.680        20
28.690        47
28.700        20
28.710        33
28.720        13
28.730        33
28.740        20
28.750        33
28.760         0
28.770        27
28.780        40
28.790        33
28.800        13
28.810        27
28.820        47
28.830        27
28.840        20
28.850         7
28.860        33
28.870        13
28.880        13
28.890        33
28.900        20
28.910        33
28.920        33
28.930        20
28.940        40
28.950        13
28.960        13
28.970        40
28.980        13
28.990        40
29.000        27
29.010         7
29.020        33
29.030        20
29.040        47
29.050        53
29.060        27
29.070        13
29.080        13
29.090        20
29.100        27
29.110        13
29.120         7
29.130        33
29.140        40
29.150        13
29.160        20
29.170        20
29.180        27
29.190        33
29.200        27
29.210        27
29.220        27
29.230        47
29.240        33
29.250        27
29.260        27
29.270        47
29.280        20
29.290        40
29.300        60
29.310        40
29.320        27
29.330        40
29.340        40
29.350        60
29.360        33
29.370        93
29.380        87
29.390        20
29.400        40
29.410        40
29.420        40
29.430        67
29.440        27
29.450        47
29.460        13
29.470        47
29.480        47
29.490        27
29.500        67
29.510        80
29.520        53
29.530        47
29.540        33
29.550        20
29.560        20
29.570        40
29.580        27
29.590        40
29.600        53
29.610        60
29.620        47
29.630        40
29.640        27
29.650        33
29.660        53
29.670        53
29.680        40
29.690        53
29.700        27
29.710        53
29.720        40
29.730        13
29.740        27
29.750        40
29.760        40
29.770        53
29.780        33
29.790        13
29.800        27
29.810        27
29.820        47
29.830        33
29.840        20
29.850        40
29.860        33
29.870         0
29.880        13
29.890         7
29.900        27
29.910        20
29.920        27
29.930        20
29.940         7
29.950        13
29.960        20
29.970        27
29.980         7
29.990        13
30.000        13
30.010        20
30.020         0
30.030        13
30.040         0
30.050         7
30.060        20
30.070        27
30.080        20
30.090        13
30.100        27
30.110        33
30.120         0
30.130         7
30.140        20
30.150        33
30.160        13
30.170        20
30.180        27
30.190        20
30.200        13
30.210        40
30.220         7
30.230        13
30.240        20
30.250        33
30.260        27
30.270        33
30.280        40
30.290        13
30.300         7
30.310        20
30.320        33
30.330        47
30.340        40
30.350        27
30.360        13
30.370         7
30.380        20
30.390        13
30.400        13
30.410        27
30.420        27
30.430        27
30.440        27
30.450        13
30.460        20
30.470        13
30.480         7
30.490        27
30.500        40
30.510         0
30.520        33
30.530        33
30.540        20
30.550        53
30.560        13
30.570        20
30.580        33
30.590        13
30.600        27
30.610        20
30.620         7
30.630        20
30.640        20
30.650        20
30.660        27
30.670        27
30.680        27
30.690        40
30.700        20
30.710        33
30.720        27
30.730        27
30.740        13
30.750        13
30.760         7
30.770         0
30.780         7
30.790        20
30.800        27
30.810         7
30.820        33
30.830        13
30.840        27
30.850         7
30.860         7
30.870        20
30.880        47
30.890         7
30.900        13
30.910         7
30.920        27
30.930        27
30.940         7
30.950        13
30.960         7
30.970        13
30.980        27
30.990        27
31.000         7
31.010        27
31.020        20
31.030         7
31.040        20
31.050        20
31.060        33
31.070         7
31.080        13
31.090         7
31.100        13
31.110        20
31.120         7
31.130         0
31.140        20
31.150        33
31.160        40
31.170        47
31.180        40
31.190        27
31.200         0
31.210         0
31.220        20
31.230        27
31.240        13
31.250        13
31.260        13
31.270        13
31.280         0
31.290        20
31.300        13
31.310         0
31.320        20
31.330         0
31.340        20
31.350        13
31.360         7
31.370        27
31.380        40
31.390        20
31.400         7
31.410         0
31.420        20
31.430        13
31.440        27
31.450        20
31.460         0
31.470         0
31.480        13
31.490        27
31.500        27
31.510        33
31.520        33
31.530        13
31.540        20
31.550        20
31.560        20
31.570         0
31.580         7
31.590         0
31.600        27
31.610        20
31.620        20
31.630        33
31.640        13
31.650        13
31.660         7
31.670        40
31.680        20
31.690        27
31.700         7
31.710         7
31.720        20
31.730        13
31.740        20
31.750        33
31.760        40
31.770         7
31.780        20
31.790        13
31.800         0
31.810        20
31.820         0
31.830        20
31.840        33
31.850        20
31.860         0
31.870        20
31.880        47
31.890        20
31.900        13
31.910        20
31.920         7
31.930        13
31.940         7
31.950        20
31.960        20
31.970        20
31.980        13
31.990        33
32.000        13
32.010        33
32.020        20
32.030        40
32.040        13
32.050        33
32.060         7
32.070        27
32.080        40
32.090        33
32.100        27
32.110        40
32.120        20
32.130        47
32.140        33
32.150        40
32.160        20
32.170        40
32.180        13
32.190        40
32.200        20
32.210        53
32.220        40
32.230        40
32.240        33
32.250        20
32.260        33
32.270        33
32.280        20
32.290        47
32.300        40
32.310        27
32.320        20
32.330        20
32.340        33
32.350        47
32.360        20
32.370        27
32.380        33
32.390        20
32.400         7
32.410        40
32.420        13
32.430        20
32.440         0
32.450        20
32.460        13
32.470        13
32.480        13
32.490        13
32.500        13
32.510         7
32.520        27
32.530        40
32.540        20
32.550        13
32.560         7
32.570         7
32.580        27
32.590        20
32.600         0
32.610         7
32.620        20
32.630        40
32.640        13
32.650        20
32.660        13
32.670        20
32.680        20
32.690        13
32.700         7
32.710         0
32.720        20
32.730         7
32.740        20
32.750         0
32.760        27
32.770         7
32.780        33
32.790        20
32.800         7
32.810         7
32.820        20
32.830        13
32.840        13
32.850        27
32.860        13
32.870         7
32.880        20
32.890        27
32.900        20
32.910         7
32.920        27
32.930         7
32.940        27
32.950         0
32.960        27
32.970        27
32.980        13
32.990         0
33.000        20
33.010         7
33.020        27
33.030        27
33.040         7
33.050        13
33.060         7
33.070        13
33.080        20
33.090        20
33.100        27
33.110        20
33.120        27
33.130        27
33.140        20
33.150        33
33.160        13
33.170        33
33.180        27
33.190         0
33.200         7
33.210        13
33.220        20
33.230        13
33.240        27
33.250         7
33.260        20
33.270        13
33.280        20
33.290         0
33.300        33
33.310        20
33.320         7
33.330        27
33.340         7
33.350        13
33.360        27
33.370        13
33.380        20
33.390        27
33.400         0
33.410        20
33.420        20
33.430         0
33.440         7
33.450         7
33.460        27
33.470        20
33.480        13
33.490        20
33.500         7
33.510        13
33.520        33
33.530        13
33.540        13
33.550         7
33.560        27
33.570        13
33.580        27
33.590         7
33.600        13
33.610        13
33.620        27
33.630        13
33.640         7
33.650        20
33.660        20
33.670        27
33.680        33
33.690        20
33.700         0
33.710        33
33.720        40
33.730        13
33.740         7
33.750         7
33.760         7
33.770        13
33.780        13
33.790        27
33.800        13
33.810        13
33.820         7
33.830         7
33.840        47
33.850        13
33.860        20
33.870        27
33.880        13
33.890        20
33.900        20
33.910        33
33.920        13
33.930        20
33.940        13
33.950        27
33.960        27
33.970        13
33.980        33
33.990        13
34.000        13
34.010        27
34.020        33
34.030        13
34.040        13
34.050        20
34.060        33
34.070         7
34.080        33
34.090         7
34.100        13
34.110        33
34.120         7
34.130        13
34.140        27
34.150        33
34.160        20
34.170         7
34.180         7
34.190         7
34.200        27
34.210         7
34.220        27
34.230        47
34.240         7
34.250        13
34.260         7
34.270        27
34.280        27
34.290        20
34.300         7
34.310         7
34.320         7
34.330         7
34.340         7
34.350        20
34.360        20
34.370        13
34.380         7
34.390        20
34.400        27
34.410        40
34.420        20
34.430        33
34.440         0
34.450        20
34.460        27
34.470         7
34.480        27
34.490        20
34.500        20
34.510         7
34.520        13
34.530        20
34.540         0
34.550        13
34.560        13
34.570        27
34.580        40
34.590         0
34.600        33
34.610         7
34.620         7
34.630        20
34.640         7
34.650         7
34.660        27
34.670        33
34.680        33
34.690        13
34.700         7
34.710        13
34.720        13
34.730        20
34.740        20
34.750        13
34.760         0
34.770        13
34.780         7
34.790        20
34.800        13
34.810        27
34.820         0
34.830         7
34.840        20
34.850        20
34.860        13
34.870        13
34.880        20
34.890        20
34.900         0
34.910        33
34.920        27
34.930        20
34.940         7
34.950         0
34.960        13
34.970        27
34.980         7
34.990        27
35.000        27
35.010         7
35.020        27
35.030        33
35.040        13
35.050        13
35.060        27
35.070        20
35.080        27
35.090        40
35.100         7
35.110        13
35.120         7
35.130        13
35.140        20
35.150        20
35.160         7
35.170        13
35.180        13
35.190         0
35.200        20
35.210        27
35.220        27
35.230        13
35.240        13
35.250        20
35.260        20
35.270        33
35.280         7
35.290        33
35.300        13
35.310         7
35.320        20
35.330        13
35.340        27
35.350        20
35.360         0
35.370        20
35.380        13
35.390         7
35.400        20
35.410        13
35.420        33
35.430        13
35.440         7
35.450         7
35.460         7
35.470        27
35.480         7
35.490        27
35.500        33
35.510        13
35.520        13
35.530        20
35.540        13
35.550        27
35.560         0
35.570        20
35.580         7
35.590         7
35.600        13
35.610        20
35.620        20
35.630        40
35.640         7
35.650        20
35.660        20
35.670        13
35.680        13
35.690         7
35.700        13
35.710        27
35.720        33
35.730        13
35.740         7
35.750         7
35.760         7
35.770        13
35.780         7
35.790         7
35.800         7
35.810        13
35.820        20
35.830        53
35.840        20
35.850        40
35.860        20
35.870         7
35.880         7
35.890        13
35.900        47
35.910         7
35.920        20
35.930         7
35.940        20
35.950        40
35.960        27
35.970        60
35.980        33
35.990        13
36.000        20
36.010        33
36.020        27
36.030        13
36.040        27
36.050        13
36.060        13
36.070        40
36.080        13
36.090         7
36.100        33
36.110         7
36.120        13
36.130        13
36.140         7
36.150         7
36.160        27
36.170         7
36.180         7
36.190        33
36.200        27
36.210         0
36.220        33
36.230         7
36.240         0
36.250        13
36.260         0
36.270        20
36.280         0
36.290        13
36.300         7
36.310        20
36.320        33
36.330        13
36.340        40
36.350        13
36.360        13
36.370        40
36.380        13
36.390        13
36.400        13
36.410        13
36.420         0
36.430        20
36.440        20
36.450        20
36.460        13
36.470        13
36.480         7
36.490        20
36.500        20
36.510        33
36.520        27
36.530        13
36.540         7
36.550        20
36.560        27
36.570        27
36.580         0
36.590        13
36.600        20
36.610         7
36.620        13
36.630        13
36.640        13
36.650        20
36.660        27
36.670        20
36.680        20
36.690        20
36.700        20
36.710        27
36.720         0
36.730        27
36.740        13
36.750        20
36.760        20
36.770        13
36.780        67
36.790         0
36.800        27
36.810        13
36.820         7
36.830         0
36.840        13
36.850        27
36.860        27
36.870        27
36.880         7
36.890        13
36.900         0
36.910        13
36.920         0
36.930        20
36.940        27
36.950         7
36.960        33
36.970        13
36.980        27
36.990         0
37.000        13
37.010        47
37.020        33
37.030        27
37.040        20
37.050        13
37.060         0
37.070        20
37.080        13
37.090        13
37.100        13
37.110         0
37.120        20
37.130        20
37.140         7
37.150        40
37.160        27
37.170        20
37.180         7
37.190         7
37.200        13
37.210        13
37.220        13
37.230         7
37.240        13
37.250         7
37.260         0
37.270        40
37.280        20
37.290        13
37.300        13
37.310         7
37.320         7
37.330        20
37.340         7
37.350        20
37.360        47
37.370        27
37.380         7
37.390        20
37.400         7
37.410        33
37.420         7
37.430         7
37.440         7
37.450        13
37.460        27
37.470        20
37.480         0
37.490         7
37.500        13
37.510        20
37.520        27
37.530         0
37.540        20
37.550         7
37.560        13
37.570         7
37.580        27
37.590        20
37.600        20
37.610        20
37.620        13
37.630        20
37.640        20
37.650        20
37.660         7
37.670        13
37.680         7
37.690         0
37.700         7
37.710        13
37.720        13
37.730         0
37.740        20
37.750         0
37.760         7
37.770         7
37.780        13
37.790         7
37.800        33
37.810         7
37.820        47
37.830        27
37.840        20
37.850        13
37.860        33
37.870        47
37.880        13
37.890        20
37.900        20
37.910        20
37.920        33
37.930        27
37.940        13
37.950        13
37.960        27
37.970        13
37.980        33
37.990         0
38.000         0
38.010        20
38.020        27
38.030         7
38.040         7
38.050         7
38.060        13
38.070         7
38.080        33
38.090        27
38.100        20
38.110        33
38.120        13
38.130        27
38.140         7
38.150        13
38.160         0
38.170        13
38.180         7
38.190        33
38.200         7
38.210        40
38.220         0
38.230        27
38.240         7
38.250        20
38.260        13
38.270        33
38.280        33
38.290         7
38.300        20
38.310        20
38.320         7
38.330        13
38.340        20
38.350        40
38.360        27
38.370        13
38.380        27
38.390        27
38.400        27
38.410        13
38.420        27
38.430        27
38.440        20
38.450        13
38.460         7
38.470         7
38.480        20
38.490        13
38.500        20
38.510        33
38.520        13
38.530         7
38.540         7
38.550        40
38.560        20
38.570         7
38.580        13
38.590        20
38.600        27
38.610         7
38.620        33
38.630        20
38.640         7
38.650        20
38.660        20
38.670        20
38.680        33
38.690        13
38.700         7
38.710         0
38.720        13
38.730        13
38.740        13
38.750        27
38.760        13
38.770        20
38.780        53
38.790         7
38.800        27
38.810        27
38.820         0
38.830        33
38.840         7
38.850        27
38.860         7
38.870        13
38.880        67
38.890        33
38.900        13
38.910         7
38.920         7
38.930        20
38.940        13
38.950        20
38.960        20
38.970        13
38.980        13
38.990        20
39.000        27
39.010        20
39.020        13
39.030        20
39.040        20
39.050        33
39.060        20
39.070        27
39.080        13
39.090        13
39.100        13
39.110        27
39.120        47
39.130         7
39.140        27
39.150         0
39.160        20
39.170        33
39.180        20
39.190        40
39.200        20
39.210        27
39.220        20
39.230        27
39.240        20
39.250         0
39.260         7
39.270        20
39.280         7
39.290        27
39.300        20
39.310        20
39.320        13
39.330        13
39.340        40
39.350        53
39.360        20
39.370        20
39.380        13
39.390        13
39.400        40
39.410        33
39.420        20
39.430        40
39.440        13
39.450         7
39.460        27
39.470         0
39.480        27
39.490         7
39.500        27
39.510        40
39.520        33
39.530        20
39.540         7
39.550        40
39.560        27
39.570        13
39.580        13
39.590         7
39.600         7
39.610        20
39.620         7
39.630        13
39.640        20
39.650        20
39.660        20
39.670        13
39.680        13
39.690        13
39.700        20
39.710         7
39.720         7
39.730        27
39.740        13
39.750         7
39.760        13
39.770        13
39.780        20
39.790        13
39.800         7
39.810        13
39.820         7
39.830        27
39.840        27
39.850        33
39.860        20
39.870         7
39.880         7
39.890         7
39.900        27
39.910         0
39.920         7
39.930        20
39.940        13
39.950        40
39.960        13
39.970         7
39.980         7
39.990         7
40.000        20
40.010        13
40.020         7
40.030        20
40.040        33
40.050         7
40.060        47
40.070        33
40.080        20
40.090        27
40.100        13
40.110         7
40.120        20
40.130        13
40.140        13
40.150         7
40.160         0
40.170         7
40.180         0
40.190        20
40.200         0
40.210        20
40.220        20
40.230        13
40.240         7
40.250        20
40.260        20
40.270         7
40.280        40
40.290        27
40.300        13
40.310         7
40.320         0
40.330        40
40.340        13
40.350        40
40.360        27
40.370        13
40.380        20
40.390         0
40.400        20
40.410        27
40.420         7
40.430         7
40.440        27
40.450        20
40.460        13
40.470        13
40.480         7
40.490        27
40.500        20
40.510         7
40.520        13
40.530        20
40.540         7
40.550         0
40.560        13
40.570        13
40.580        13
40.590        20
40.600         7
40.610         0
40.620         0
40.630        27
40.640         7
40.650        13
40.660        20
40.670         7
40.680         0
40.690        20
40.700         7
40.710        27
40.720        13
40.730        13
40.740        13
40.750         7
40.760        27
40.770        27
40.780        20
40.790         7
40.800        20
40.810        20
40.820        27
40.830        20
40.840         7
40.850        13
40.860         0
40.870        13
40.880        20
40.890        13
40.900        13
40.910        27
40.920        20
40.930        20
40.940        13
40.950        13
40.960        40
40.970        13
40.980        20
40.990        20
41.000        13
41.010         7
41.020        20
41.030        40
41.040        13
41.050        13
41.060        13
41.070        20
41.080        13
41.090        13
41.100        27
41.110        33
41.120        27
41.130        20
41.140        40
41.150        33
41.160         0
41.170        20
41.180        20
41.190         0
41.200        27
41.210         7
41.220         7
41.230        27
41.240         0
41.250        20
41.260        20
41.270        40
41.280         7
41.290        13
41.300        20
41.310        20
41.320        13
41.330        20
41.340        13
41.350         0
41.360        13
41.370        13
41.380        33
41.390        33
41.400        40
41.410        13
41.420        20
41.430        27
41.440        13
41.450        13
41.460         7
41.470         7
41.480        13
41.490        20
41.500        20
41.510         0
41.520         0
41.530        13
41.540         7
41.550         7
41.560        27
41.570        20
41.580        13
41.590        13
41.600         7
41.610        20
41.620        13
41.630        13
41.640        13
41.650         7
41.660        20
41.670        13
41.680        27
41.690        13
41.700        33
41.710        13
41.720        20
41.730        13
41.740        13
41.750        13
41.760         7
41.770        47
41.780        20
41.790        27
41.800        13
41.810        27
41.820        27
41.830         7
41.840        27
41.850         7
41.860         7
41.870        20
41.880         7
41.890         7
41.900        20
41.910        27
41.920        27
41.930        27
41.940        33
41.950        13
41.960         7
41.970        27
41.980        20
41.990        13
42.000        13
42.010        33
42.020         0
42.030        13
42.040        13
42.050        20
42.060         7
42.070        13
42.080        13
42.090        13
42.100        27
42.110         0
42.120        20
42.130        20
42.140        20
42.150        13
42.160        20
42.170         7
42.180        13
42.190        13
42.200        20
42.210        13
42.220        13
42.230        13
42.240        13
42.250         7
42.260         7
42.270        20
42.280         7
42.290        20
42.300        20
42.310        13
42.320         7
42.330        13
42.340         7
42.350        20
42.360        13
42.370        27
42.380        20
42.390         7
42.400         7
42.410        27
42.420        20
42.430        27
42.440         7
42.450        27
42.460         0
42.470         7
42.480         0
42.490        13
42.500        13
42.510        20
42.520        20
42.530        20
42.540        27
42.550        20
42.560         0
42.570         7
42.580        13
42.590        13
42.600        20
42.610        33
42.620        13
42.630        13
42.640        27
42.650        27
42.660        13
42.670        20
42.680        40
42.690        20
42.700        13
42.710         0
42.720        20
42.730         7
42.740        33
42.750        20
42.760        40
42.770         0
42.780        20
42.790        20
42.800        20
42.810        27
42.820         7
42.830         7
42.840         7
42.850         0
42.860        27
42.870        27
42.880        13
42.890        13
42.900        40
42.910        13
42.920         0
42.930        40
42.940         7
42.950         7
42.960        27
42.970        13
42.980        13
42.990        20
43.000        27
43.010        13
43.020        40
43.030        27
43.040         7
43.050        13
43.060        67
43.070         0
43.080        20
43.090        20
43.100        27
43.110        13
43.120        27
43.130        13
43.140        27
43.150        20
43.160        33
43.170        13
43.180        27
43.190        13
43.200         0
43.210        27
43.220        27
43.230        27
43.240        33
43.250        20
43.260         7
43.270        13
43.280         7
43.290        20
43.300         7
43.310        13
43.320        33
43.330        13
43.340        33
43.350        13
43.360        20
43.370        27
43.380         0
43.390        20
43.400        13
43.410         0
43.420        20
43.430         7
43.440         7
43.450        13
43.460         7
43.470        13
43.480        33
43.490        20
43.500        20
43.510        20
43.520        20
43.530        27
43.540         7
43.550         7
43.560        20
43.570        20
43.580        20
43.590        20
43.600        27
43.610         7
43.620         0
43.630        20
43.640        13
43.650        40
43.660        33
43.670        40
43.680         0
43.690        20
43.700         7
43.710        27
43.720         0
43.730         7
43.740        20
43.750         0
43.760        33
43.770        20
43.780        13
43.790        13
43.800        13
43.810        27
43.820        27
43.830        13
43.840        33
43.850        13
43.860        20
43.870         7
43.880        20
43.890         0
43.900         7
43.910        20
43.920        13
43.930         7
43.940         7
43.950        20
43.960         7
43.970        27
43.980         7
43.990        13
44.000         7
44.010         0
44.020        33
44.030        13
44.040         7
44.050         7
44.060        13
44.070        20
44.080        20
44.090        27
44.100        13
44.110        13
44.120         7
44.130         7
44.140         7
44.150         7
44.160         0
44.170        27
44.180        20
44.190         7
44.200        13
44.210        40
44.220        33
44.230        13
44.240        20
44.250        33
44.260         7
44.270        13
44.280         7
44.290        33
44.300        27
44.310        20
44.320         7
44.330         7
44.340        33
44.350        27
44.360         7
44.370        20
44.380         0
44.390        13
44.400        13
44.410        13
44.420        20
44.430        13
44.440         7
44.450        33
44.460        27
44.470        13
44.480        20
44.490        13
44.500        13
44.510        13
44.520        47
44.530        20
44.540         0
44.550        13
44.560        13
44.570        53
44.580        20
44.590        20
44.600         7
44.610        20
44.620        40
44.630        13
44.640        13
44.650         0
44.660        13
44.670        13
44.680        13
44.690        33
44.700         7
44.710         0
44.720         0
44.730        20
44.740         7
44.750        20
44.760        20
44.770        33
44.780        13
44.790        20
44.800         7
44.810        20
44.820        53
44.830         7
44.840         7
44.850         0
44.860         7
44.870         7
44.880         7
44.890        20
44.900        27
44.910         7
44.920        13
44.930         7
44.940         0
44.950        20
44.960        13
44.970        13
44.980        27
44.990        13
45.000        13
45.010         7
45.020         7
45.030        20
45.040        33
45.050        13
45.060         0
45.070         7
45.080        27
45.090        13
45.100         0
45.110        33
45.120        33
45.130        13
45.140        20
45.150        13
45.160         0
45.170         0
45.180        13
45.190        13
45.200        13
45.210        13
45.220        13
45.230        27
45.240        13
45.250        13
45.260        13
45.270        13
45.280         0
45.290        13
45.300         7
45.310         0
45.320        13
45.330        13
45.340         0
45.350        20
45.360         7
45.370        13
45.380         7
45.390        13
45.400         7
45.410        27
45.420         7
45.430        33
45.440        20
45.450        53
45.460        27
45.470        40
45.480         7
45.490         7
45.500        20
45.510        20
45.520        20
45.530        13
45.540         0
45.550         7
45.560        13
45.570        47
45.580        27
45.590        13
45.600         7
45.610        20
45.620         7
45.630         7
45.640        27
45.650        27
45.660        13
45.670        20
45.680         7
45.690        13
45.700        20
45.710        13
45.720        13
45.730        47
45.740        20
45.750         7
45.760        27
45.770        13
45.780        20
45.790         7
45.800         7
45.810         0
45.820        27
45.830         7
45.840        13
45.850        27
45.860         7
45.870        20
45.880        27
45.890        40
45.900         7
45.910         0
45.920         7
45.930         7
45.940        33
45.950         0
45.960        40
45.970        20
45.980        13
45.990        33
46.000        13
46.010        27
46.020        20
46.030         7
46.040         7
46.050        27
46.060        40
46.070        13
46.080        13
46.090        20
46.100        27
46.110        27
46.120        27
46.130        27
46.140         7
46.150        27
46.160        13
46.170        13
46.180        27
46.190        47
46.200        20
46.210        27
46.220        20
46.230        33
46.240        13
46.250        27
46.260        13
46.270        40
46.280        33
46.290        27
46.300        13
46.310        20
46.320        27
46.330        27
46.340         0
46.350        27
46.360        13
46.370        20
46.380        27
46.390        40
46.400        20
46.410        33
46.420        27
46.430        33
46.440         7
46.450        33
46.460        20
46.470        27
46.480        20
46.490        13
46.500        60
46.510        13
46.520        40
46.530        13
46.540        27
46.550         0
46.560        13
46.570        20
46.580        27
46.590        20
46.600        13
46.610        13
46.620         7
46.630        20
46.640         0
46.650        27
46.660        20
46.670         7
46.680         7
46.690         7
46.700        13
46.710         7
46.720        13
46.730        20
46.740         0
46.750        47
46.760        13
46.770        13
46.780        13
46.790        13
46.800        20
46.810        53
46.820         7
46.830        13
46.840        33
46.850         7
46.860        20
46.870        20
46.880         7
46.890        20
46.900        20
46.910         0
46.920         0
46.930        40
46.940         7
46.950        13
46.960        13
46.970        27
46.980        20
46.990        27
47.000         7
47.010        20
47.020        13
47.030        20
47.040        27
47.050        27
47.060        40
47.070         7
47.080        20
47.090         7
47.100        20
47.110         7
47.120        27
47.130        27
47.140        13
47.150         7
47.160         7
47.170        13
47.180        27
47.190        13
47.200         0
47.210        13
47.220        27
47.230        13
47.240        40
47.250        20
47.260        20
47.270        20
47.280        13
47.290        20
47.300        20
47.310         7
47.320         7
47.330        27
47.340        20
47.350        27
47.360         0
47.370        20
47.380         7
47.390        27
47.400        27
47.410        13
47.420         7
47.430        20
47.440        20
47.450        47
47.460        20
47.470        20
47.480        20
47.490        33
47.500         7
47.510        13
47.520         7
47.530        20
47.540        33
47.550        20
47.560         7
47.570         7
47.580        27
47.590        13
47.600        40
47.610        27
47.620         7
47.630        13
47.640        13
47.650         7
47.660        33
47.670        27
47.680        13
47.690         7
47.700        20
47.710        20
47.720         7
47.730        20
47.740         0
47.750         7
47.760        20
47.770        13
47.780         0
47.790         7
47.800        27
47.810        13
47.820         7
47.830        33
47.840        40
47.850        13
47.860        13
47.870        13
47.880        13
47.890         0
47.900        20
47.910        13
47.920        27
47.930        20
47.940        27
47.950        13
47.960         7
47.970        40
47.980        20
47.990        13
48.000        20
48.010        20
48.020        13
48.030         7
48.040        20
48.050        20
48.060        13
48.070        20
48.080        27
48.090         7
48.100        13
48.110         7
48.120        20
48.130        13
48.140        20
48.150        20
48.160        20
48.170         7
48.180         7
48.190        13
48.200        20
48.210        40
48.220        13
48.230        13
48.240        13
48.250         7
48.260        20
48.270         7
48.280         7
48.290         7
48.300        20
48.310        27
48.320        20
48.330        40
48.340        40
48.350        27
48.360         0
48.370        13
48.380        20
48.390         0
48.400        20
48.410        67
48.420        20
48.430        27
48.440         0
48.450        27
48.460        13
48.470        13
48.480         7
48.490        27
48.500        40
48.510        20
48.520        47
48.530         7
48.540        13
48.550        13
48.560        20
48.570        20
48.580         0
48.590         7
48.600        13
48.610         7
48.620        27
48.630        47
48.640        20
48.650        20
48.660        13
48.670        27
48.680        20
48.690        13
48.700         0
48.710         0
48.720        13
48.730        20
48.740        27
48.750         7
48.760        20
48.770        20
48.780        13
48.790        20
48.800         7
48.810         0
48.820        33
48.830        13
48.840        13
48.850        20
48.860        20
48.870         7
48.880         7
48.890        13
48.900        20
48.910        27
48.920        20
48.930        20
48.940         0
48.950        20
48.960        40
48.970        13
48.980        47
48.990        20
49.000        20
49.010         7
49.020         7
49.030        20
49.040        13
49.050         7
49.060        27
49.070        40
49.080        20
49.090        13
49.100         7
49.110        20
49.120         0
49.130         0
49.140        13
49.150        33
49.160        53
49.170        33
49.180        13
49.190        40
49.200        13
49.210         0
49.220        27
49.230        20
49.240         0
49.250        13
49.260         7
49.270        20
49.280        27
49.290        27
49.300        20
49.310        33
49.320        27
49.330        33
49.340         7
49.350        27
49.360         7
49.370         0
49.380        27
49.390        13
49.400        13
49.410        13
49.420         7
49.430        13
49.440        20
49.450        27
49.460        27
49.470        27
49.480        20
49.490        13
49.500        13
49.510        40
49.520        40
49.530         7
49.540         7
49.550        20
49.560         7
49.570        20
49.580        20
49.590        33
49.600        13
49.610         7
49.620        13
49.630         7
49.640        27
49.650        13
49.660         7
49.670        27
49.680        13
49.690        33
49.700        40
49.710        13
49.720        20
49.730        27
49.740        20
49.750        13
49.760        13
49.770        13
49.780         7
49.790        13
49.800        20
49.810         7
49.820        27
49.830        13
49.840         7
49.850        13
49.860        20
49.870        20
49.880         7
49.890        13
49.900        27
49.910        13
49.920         7
49.930         0
49.940        13
49.950        20
49.960        27
49.970        20
49.980         7
49.990        13
50.000        13
50.010        13
50.020        27
50.030        40
50.040        20
50.050        20
50.060         7
50.070        20
50.080         7
50.090        20
50.100        20
50.110         0
50.120        33
50.130        20
50.140        13
50.150        13
50.160        13
50.170        13
50.180         7
50.190        27
50.200        27
50.210        13
50.220         7
50.230         7
50.240        20
50.250        13
50.260        13
50.270        27
50.280         0
50.290         7
50.300        13
50.310        13
50.320        20
50.330         7
50.340        33
50.350        13
50.360         7
50.370        27
50.380         7
50.390        33
50.400        33
50.410         7
50.420        73
50.430        20
50.440        40
50.450        13
50.460        40
50.470         7
50.480        13
50.490        20
50.500        47
50.510         7
50.520        27
50.530        20
50.540        20
50.550        33
50.560        20
50.570        20
50.580        33
50.590        20
50.600         7
50.610        20
50.620        13
50.630        20
50.640        20
50.650        27
50.660        13
50.670         0
50.680        13
50.690        13
50.700        13
50.710        33
50.720        20
50.730        33
50.740        13
50.750        13
50.760        20
50.770         0
50.780        20
50.790        13
50.800        20
50.810        13
50.820        27
50.830         0
50.840        27
50.850         7
50.860         7
50.870        40
50.880        27
50.890        20
50.900        13
50.910        33
50.920        40
50.930         7
50.940        13
50.950        13
50.960         7
50.970        27
50.980        40
50.990        20
51.000        33
51.010        27
51.020        27
51.030        47
51.040        27
51.050         7
51.060        27
51.070        27
51.080        47
51.090        20
51.100        13
51.110         7
51.120        47
51.130        47
51.140        20
51.150         7
51.160        33
51.170        33
51.180        40
51.190        33
51.200        20
51.210        40
51.220        27
51.230        27
51.240        20
51.250        20
51.260        40
51.270        20
51.280        33
51.290        40
51.300         7
51.310        27
51.320        20
51.330        13
51.340        13
51.350        53
51.360        20
51.370         7
51.380         7
51.390         7
51.400         0
51.410        20
51.420        27
51.430        33
51.440         7
51.450        27
51.460        13
51.470        13
51.480        33
51.490        13
51.500        27
51.510         7
51.520        20
51.530        33
51.540        67
51.550        13
51.560        33
51.570        20
51.580        27
51.590        33
51.600         7
51.610        53
51.620        27
51.630         7
51.640        40
51.650        33
51.660         7
51.670        33
51.680        27
51.690        13
51.700        27
51.710        20
51.720        47
51.730        47
51.740        13
51.750        27
51.760        27
51.770        27
51.780        53
51.790         0
51.800        47
51.810        33
51.820        27
51.830        20
51.840        33
51.850        20
51.860        60
51.870        33
51.880        33
51.890        13
51.900        20
51.910        27
51.920        13
51.930        27
51.940        27
51.950        47
51.960        40
51.970         7
51.980        33
51.990        33
52.000        27
52.010        27
52.020        27
52.030        47
52.040        20
52.050        13
52.060        40
52.070        20
52.080        47
52.090        40
52.100         7
52.110        13
52.120        40
52.130        13
52.140        20
52.150        27
52.160        53
52.170        13
52.180        27
52.190        60
52.200        20
52.210        53
52.220        20
52.230        27
52.240        20
52.250        27
52.260        47
52.270        27
52.280        27
52.290        47
52.300        27
52.310        53
52.320        33
52.330        53
52.340        47
52.350        67
52.360        33
52.370        53
52.380        67
52.390        33
52.400        27
52.410        40
52.420        73
52.430        60
52.440        73
52.450        40
52.460       100
52.470        33
52.480       100
52.490       100
52.500        87
52.510        67
52.520        67
52.530        47
52.540       153
52.550        93
52.560       167
52.570       120
52.580       140
52.590       127
52.600       153
52.610        67
52.620       133
52.630        87
52.640       100
52.650        87
52.660       133
52.670       113
52.680        73
52.690        80
52.700       107
52.710        93
52.720        87
52.730       133
52.740        53
52.750        93
52.760        47
52.770        87
52.780        53
52.790        87
52.800        53
52.810        27
52.820       107
52.830        33
52.840        53
52.850        40
52.860        33
52.870        27
52.880        53
52.890        33
52.900        47
52.910        33
52.920        33
52.930        67
52.940        33
52.950        53
52.960        33
52.970        27
52.980        33
52.990        47
53.000        27
53.010        33
53.020        20
53.030        40
53.040        47
53.050        47
53.060        67
53.070        27
53.080        13
53.090        33
53.100        60
53.110        33
53.120        20
53.130        27
53.140        40
53.150        20
53.160        20
53.170        47
53.180        20
53.190        13
53.200        40
53.210        40
53.220        20
53.230        33
53.240        53
53.250        20
53.260        40
53.270        20
53.280         7
53.290        27
53.300        33
53.310         7
53.320        20
53.330        27
53.340        33
53.350        40
53.360         7
53.370        27
53.380        27
53.390        20
53.400        27
53.410        27
53.420        20
53.430        20
53.440        47
53.450        27
53.460        33
53.470        40
53.480        60
53.490         7
53.500        40
53.510        13
53.520        47
53.530        13
53.540        20
53.550         7
53.560        13
53.570        27
53.580        13
53.590        40
53.600         7
53.610        40
53.620        27
53.630        20
53.640         7
53.650        53
53.660        27
53.670        53
53.680        27
53.690        33
53.700        27
53.710        20
53.720         7
53.730        27
53.740        20
53.750         0
53.760        27
53.770        27
53.780        20
53.790        13
53.800        33
53.810        13
53.820         7
53.830        33
53.840        20
53.850        13
53.860        27
53.870        27
53.880        13
53.890        20
53.900        20
53.910        27
53.920         7
53.930        33
53.940        20
53.950        27
53.960        33
53.970        20
53.980        33
53.990         7
54.000        13
54.010         0
54.020        20
54.030        27
54.040        13
54.050        33
54.060        33
54.070        13
54.080        13
54.090         7
54.100         7
54.110        20
54.120        20
54.130         7
54.140        33
54.150        20
54.160        40
54.170         7
54.180        20
54.190        33
54.200        13
54.210         0
54.220        33
54.230        13
54.240        13
54.250        33
54.260         7
54.270        33
54.280         0
54.290        33
54.300        20
54.310         7
54.320        40
54.330         7
54.340         7
54.350        13
54.360        33
54.370        20
54.380        20
54.390        33
54.400        33
54.410        13
54.420        27
54.430        13
54.440        47
54.450        27
54.460        27
54.470         0
54.480         7
54.490        13
54.500        13
54.510        13
54.520        13
54.530        33
54.540        27
54.550        33
54.560         7
54.570         7
54.580         7
54.590        20
54.600        13
54.610        20
54.620         0
54.630        27
54.640        13
54.650         7
54.660        13
54.670         7
54.680        13
54.690        60
54.700         7
54.710        33
54.720        27
54.730        27
54.740         7
54.750        13
54.760         7
54.770        13
54.780        20
54.790        27
54.800        27
54.810        33
54.820        13
54.830        20
54.840        27
54.850        20
54.860         7
54.870        13
54.880        20
54.890        27
54.900         7
54.910        27
54.920        20
54.930        40
54.940        33
54.950         7
54.960        13
54.970        20
54.980        13
54.990        20
55.000        13
55.010        20
55.020        40
55.030        20
55.040         7
55.050        13
55.060         7
55.070        33
55.080        20
55.090        20
55.100        20
55.110         7
55.120        33
55.130         0
55.140        20
55.150        20
55.160         7
55.170        20
55.180        13
55.190        20
55.200         7
55.210        33
55.220         7
55.230         0
55.240         7
55.250        13
55.260        13
55.270        27
55.280        20
55.290        33
55.300         7
55.310         7
55.320        13
55.330        20
55.340        40
55.350        20
55.360        33
55.370        27
55.380        20
55.390        13
55.400        13
55.410        13
55.420        20
55.430         7
55.440        13
55.450         7
55.460        27
55.470        20
55.480        13
55.490        20
55.500         7
55.510        13
55.520        33
55.530         7
55.540         0
55.550         7
55.560        20
55.570        27
55.580        27
55.590        20
55.600        13
55.610        20
55.620        20
55.630        27
55.640        33
55.650        27
55.660        13
55.670         7
55.680         0
55.690        40
55.700        13
55.710        13
55.720        13
55.730        20
55.740         7
55.750         7
55.760        27
55.770        33
55.780        20
55.790        13
55.800        13
55.810        27
55.820        33
55.830        13
55.840        27
55.850        20
55.860        27
55.870        33
55.880        27
55.890        13
55.900        20
55.910        13
55.920        13
55.930        33
55.940        33
55.950        27
55.960        13
55.970        20
55.980         0
55.990        27
56.000         7
56.010        13
56.020         7
56.030        13
56.040        20
56.050        47
56.060         7
56.070        13
56.080        20
56.090         0
56.100        13
56.110        20
56.120        13
56.130        20
56.140        27
56.150         7
56.160         0
56.170        13
56.180        13
56.190         7
56.200         7
56.210         7
56.220        20
56.230         7
56.240        27
56.250        27
56.260        20
56.270        20
56.280        13
56.290         7
56.300        13
56.310         0
56.320         7
56.330         0
56.340        27
56.350        20
56.360        13
56.370         7
56.380        27
56.390         0
56.400        27
56.410        13
56.420        13
56.430        27
56.440        20
56.450        20
56.460         7
56.470        20
56.480        13
56.490        20
56.500        33
56.510         7
56.520         7
56.530        20
56.540        20
56.550        20
56.560        13
56.570        13
56.580         7
56.590         7
56.600        33
56.610        13
56.620         0
56.630         7
56.640        13
56.650        20
56.660        20
56.670         7
56.680         0
56.690         7
56.700        13
56.710         7
56.720         7
56.730        20
56.740        27
56.750         0
56.760         0
56.770        27
56.780         7
56.790         7
56.800        40
56.810        13
56.820        27
56.830        27
56.840        13
56.850         7
56.860        27
56.870         7
56.880         7
56.890        20
56.900        20
56.910        33
56.920        13
56.930         0
56.940        27
56.950        20
56.960        27
56.970        20
56.980        13
56.990         7
57.000        27
57.010        53
57.020        27
57.030         7
57.040        20
57.050        13
57.060        13
57.070        20
57.080        20
57.090        20
57.100        27
57.110        33
57.120        20
57.130        33
57.140        27
57.150         7
57.160         7
57.170        27
57.180        20
57.190        13
57.200        13
57.210         0
57.220        27
57.230        27
57.240         7
57.250         0
57.260        13
57.270        27
57.280        13
57.290        40
57.300        27
57.310        20
57.320        33
57.330        20
57.340        27
57.350         7
57.360        13
57.370        13
57.380        20
57.390        47
57.400        33
57.410        53
57.420        13
57.430        20
57.440        13
57.450        47
57.460        40
57.470        27
57.480        20
57.490         7
57.500         7
57.510        20
57.520         7
57.530         0
57.540         0
57.550        47
57.560        53
57.570         7
57.580        27
57.590         7
57.600        13
57.610        13
57.620        20
57.630         7
57.640        13
57.650        20
57.660        20
57.670        20
57.680         0
57.690         0
57.700        20
57.710         0
57.720        13
57.730        20
57.740        13
57.750         7
57.760        13
57.770         7
57.780        40
57.790         7
57.800        27
57.810        13
57.820         0
57.830         7
57.840         0
57.850        13
57.860        27
57.870        13
57.880        13
57.890        20
57.900        20
57.910         0
57.920        20
57.930        20
57.940        20
57.950        13
57.960        20
57.970         7
57.980        20
57.990         7
58.000         7
58.010         7
58.020         7
58.030        13
58.040        20
58.050         7
58.060        20
58.070         7
58.080         7
58.090        13
58.100        13
58.110        13
58.120        13
58.130        20
58.140        13
58.150         7
58.160        33
58.170        20
58.180         7
58.190         7
58.200        13
58.210        20
58.220        20
58.230        20
58.240        20
58.250        27
58.260         7
58.270        13
58.280        13
58.290        13
58.300        13
58.310        20
58.320         0
58.330        20
58.340        20
58.350         7
58.360        20
58.370        13
58.380        27
58.390        27
58.400        27
58.410         7
58.420         7
58.430         7
58.440         0
58.450        20
58.460         7
58.470        13
58.480        33
58.490        27
58.500         7
58.510         0
58.520         0
58.530        13
58.540        20
58.550        13
58.560         0
58.570         7
58.580         0
58.590        20
58.600        13
58.610         7
58.620        13
58.630        20
58.640        27
58.650        40
58.660         7
58.670         7
58.680         7
58.690        20
58.700         0
58.710         7
58.720        40
58.730         7
58.740        13
58.750         7
58.760        20
58.770        20
58.780        13
58.790         7
58.800         7
58.810        13
58.820         7
58.830        13
58.840        13
58.850         7
58.860        13
58.870        13
58.880        27
58.890        13
58.900         7
58.910        13
58.920        33
58.930         7
58.940         7
58.950         7
58.960        13
58.970         7
58.980        13
58.990         7
59.000        27
59.010        13
59.020         7
59.030        13
59.040        13
59.050        33
59.060         7
59.070        13
59.080         0
59.090         0
59.100        13
59.110        27
59.120         7
59.130        20
59.140        20
59.150        13
59.160         7
59.170        13
59.180        27
59.190        13
59.200         7
59.210        20
59.220        27
59.230        27
59.240         7
59.250        20
59.260         7
59.270        13
59.280        13
59.290        20
59.300         0
59.310        13
59.320         7
59.330        47
59.340        13
59.350        20
59.360         7
59.370         7
59.380        20
59.390        27
59.400        20
59.410         7
59.420        13
59.430         7
59.440        13
59.450        20
59.460        20
59.470         7
59.480        13
59.490        20
59.500        13
59.510         0
59.520        20
59.530        20
59.540         0
59.550        13
59.560        20
59.570         0
59.580        33
59.590        13
59.600         7
59.610        13
59.620         0
59.630         0
59.640         7
59.650         0
59.660        27
59.670        13
59.680        13
59.690        13
59.700         7
59.710         7
59.720        20
59.730        20
59.740        13
59.750        20
59.760        13
59.770        27
59.780        20
59.790        13
59.800        13
59.810        20
59.820        13
59.830         7
59.840        13
59.850         7
59.860         7
59.870         7
59.880        27
59.890        27
59.900         7
59.910         7
59.920         7
59.930         7
59.940        27
59.950        20
59.960        13
59.970         7
59.980        27
59.990        20
60.000         0
