20.000        47
20.010       107
20.020        27
20.030        53
20.040        53
20.050        40
20.060        27
20.070        33
20.080        53
20.090        60
20.100        53
20.110        47
20.120        47
20.130        40
20.140        33
20.150        33
20.160        53
20.170        60
20.180        60
20.190        53
20.200        47
20.210        87
20.220        67
20.230        93
20.240        40
20.250        60
20.260        47
20.270        13
20.280        47
20.290        60
20.300        80
20.310        33
20.320        53
20.330        67
20.340        33
20.350        60
20.360        53
20.370        33
20.380        47
20.390        87
20.400        27
20.410        53
20.420        60
20.430        60
20.440        13
20.450        33
20.460        20
20.470        27
20.480        53
20.490        73
20.500        33
20.510        33
20.520        53
20.530        47
20.540        53
20.550        53
20.560        47
20.570        47
20.580        73
20.590        47
20.600        60
20.610        33
20.620        20
20.630        40
20.640        27
20.650        53
20.660        53
20.670        73
20.680        87
20.690        33
20.700        27
20.710        13
20.720        53
20.730        27
20.740        47
20.750        20
20.760        13
20.770        47
20.780        47
20.790        53
20.800        60
20.810        27
20.820        33
20.830        40
20.840        13
20.850        40
20.860        33
20.870        60
20.880        60
20.890        73
20.900        80
20.910        60
20.920        13
20.930        40
20.940        27
20.950        40
20.960        20
20.970        27
20.980        47
20.990        73
21.000        40
21.010        33
21.020        33
21.030        40
21.040        60
21.050        47
21.060        33
21.070        27
21.080        33
21.090        47
21.100        67
21.110        47
21.120        33
21.130        47
21.140        20
21.150        13
21.160        33
21.170        20
21.180        73
21.190        67
21.200        80
21.210        33
21.220        53
21.230        40
21.240        33
21.250        33
21.260        53
21.270        47
21.280        33
21.290        40
21.300        40
21.310         7
21.320        47
21.330        40
21.340        33
21.350        67
21.360        40
21.370        60
21.380        53
21.390        33
21.400        20
21.410        40
21.420        47
21.430        27
21.440        47
21.450        40
21.460        27
21.470        60
21.480        73
21.490        40
21.500        33
21.510        53
21.520        40
21.530        40
21.540        40
21.550        73
21.560        33
21.570        13
21.580        33
21.590        40
21.600        60
21.610        40
21.620        33
21.630        27
21.640        53
21.650        40
21.660        33
21.670        53
21.680        33
21.690        13
21.700        60
21.710        53
21.720        47
21.730        27
21.740        40
21.750        33
21.760        47
21.770        53
21.780        33
21.790        40
21.800        40
21.810        33
21.820        33
21.830        47
21.840        40
21.850        33
21.860        40
21.870        67
21.880        73
21.890        53
21.900        27
21.910        67
21.920        87
21.930        40
21.940        27
21.950        53
21.960        33
21.970        60
21.980        40
21.990        53
22.000        47
22.010        40
22.020        93
22.030        53
22.040        47
22.050        33
22.060        60
22.070        60
22.080        73
22.090        47
22.100        53
22.110        53
22.120        80
22.130        13
22.140        60
22.150        40
22.160        93
22.170        73
22.180        80
22.190        73
22.200       113
22.210        73
22.220        87
22.230        73
22.240        47
22.250        87
22.260        80
22.270        93
22.280       100
22.290        93
22.300        60
22.310       120
22.320       120
22.330       153
22.340       127
22.350       107
22.360       133
22.370       140
22.380       100
22.390       213
22.400       127
22.410       200
22.420       267
22.430       267
22.440       307
22.450       213
22.460       207
22.470       273
22.480       340
22.490       393
22.500       287
22.510       307
22.520       407
22.530       327
22.540       440
22.550       426
22.560       433
22.570       327
22.580       446
22.590       480
22.600       486
22.610       440
22.620       493
22.630       586
22.640       367
22.650       433
22.660       393
22.670       460
22.680       446
22.690       446
22.700       380
22.710       327
22.720       307
22.730       247
22.740       293
22.750       320
22.760       227
22.770       247
22.780       233
22.790       280
22.800       173
22.810       193
22.820       207
22.830       127
22.840       207
22.850       140
22.860       147
22.870       153
22.880       153
22.890       133
22.900       147
22.910        87
22.920       120
22.930        93
22.940       120
22.950       127
22.960       167
22.970       127
22.980       113
22.990        93
23.000       120
23.010        93
23.020        87
23.030        93
23.040       100
23.050        53
23.060        73
23.070        93
23.080        80
23.090       100
23.100        87
23.110        40
23.120        33
23.130        73
23.140        53
23.150        60
23.160       100
23.170        47
23.180        53
23.190        33
23.200        20
23.210        53
23.220        80
23.230        47
23.240        67
23.250        73
23.260        87
23.270        60
23.280        47
23.290       100
23.300        40
23.310        67
23.320        67
23.330        40
23.340        60
23.350        27
23.360        33
23.370        60
23.380        20
23.390        60
23.400        27
23.410        40
23.420        87
23.430        53
23.440        27
23.450        60
23.460        80
23.470        27
23.480        53
23.490        40
23.500        67
23.510        60
23.520        53
23.530        53
23.540        27
23.550        73
23.560        33
23.570        67
23.580        47
23.590        60
23.600        53
23.610        60
23.620        27
23.630        60
23.640        73
23.650        47
23.660        47
23.670        47
23.680        47
23.690        53
23.700        73
23.710        33
23.720        27
23.730        47
23.740        33
23.750        40
23.760        73
23.770        87
23.780        73
23.790        33
23.800        53
23.810        47
23.820        40
23.830        40
23.840        33
23.850        53
23.860        67
23.870        60
23.880        20
23.890        27
23.900        80
23.910        27
23.920        40
23.930        67
23.940        80
23.950        47
23.960        67
23.970        33
23.980        20
23.990        67
24.000        67
24.010        27
24.020        13
24.030        33
24.040        40
24.050        73
24.060        60
24.070        47
24.080        20
24.090        80
24.100        27
24.110        67
24.120        40
24.130        87
24.140        27
24.150        67
24.160        27
24.170        47
24.180        47
24.190        40
24.200        40
24.210        40
24.220        47
24.230        47
24.240        27
24.250        53
24.260        73
24.270        67
24.280        67
24.290        53
24.300       100
24.310        60
24.320        53
24.330        60
24.340        67
24.350        40
24.360        47
24.370        47
24.380        67
24.390        33
24.400        20
24.410        67
24.420        73
24.430        47
24.440        53
24.450        33
24.460        47
24.470        13
24.480        27
24.490        60
24.500        47
24.510        47
24.520        60
24.530        60
24.540        40
24.550        40
24.560        73
24.570        33
24.580        27
24.590        40
24.600        33
24.610        73
24.620        60
24.630        27
24.640        20
24.650        27
24.660        47
24.670        20
24.680        53
24.690        33
24.700        33
24.710        60
24.720        33
24.730        27
24.740        40
24.750        60
24.760        27
24.770        73
24.780        60
24.790        73
24.800        60
24.810        27
24.820        60
24.830        60
24.840        60
24.850        53
24.860        80
24.870        33
24.880        73
24.890        60
24.900        40
24.910        33
24.920        67
24.930        40
24.940        33
24.950        33
24.960        80
24.970        67
24.980        53
24.990        40
25.000        13
25.010        47
25.020        73
25.030        33
25.040        60
25.050        67
25.060        33
25.070        33
25.080        60
25.090        40
25.100        20
25.110        33
25.120        40
25.130        40
25.140        80
25.150        47
25.160        53
25.170        67
25.180        27
25.190        47
25.200        47
25.210        40
25.220        40
25.230        67
25.240        53
25.250        33
25.260        33
25.270        33
25.280        20
25.290        40
25.300        33
25.310        40
25.320        60
25.330        47
25.340        93
25.350        60
25.360        67
25.370        20
25.380        60
25.390        87
25.400        60
25.410        93
25.420        33
25.430        67
25.440       100
25.450       127
25.460        67
25.470       107
25.480        73
25.490       193
25.500       193
25.510       227
25.520       260
25.530       180
25.540       247
25.550       153
25.560       260
25.570       120
25.580       140
25.590       100
25.600        73
25.610        87
25.620        93
25.630        80
25.640        80
25.650        47
25.660        27
25.670        53
25.680        27
25.690        47
25.700        33
25.710        47
25.720        33
25.730        40
25.740        53
25.750        40
25.760        33
25.770        33
25.780        47
25.790        53
25.800        33
25.810        47
25.820        20
25.830        47
25.840        60
25.850        13
25.860        53
25.870        27
25.880        47
25.890        40
25.900        53
25.910        53
25.920        47
25.930        33
25.940        33
25.950        67
25.960        33
25.970        60
25.980        33
25.990        40
26.000        40
26.010        47
26.020        20
26.030        53
26.040        47
26.050        20
26.060        47
26.070        27
26.080        33
26.090        27
26.100        47
26.110        47
26.120        53
26.130        13
26.140        20
26.150        20
26.160        53
26.170        27
26.180        73
26.190        40
26.200        47
26.210        40
26.220        53
26.230        27
26.240        33
26.250        40
26.260        27
26.270        40
26.280        53
26.290        67
26.300        47
26.310        40
26.320        53
26.330        40
26.340        67
26.350        40
26.360        40
26.370        67
26.380        27
26.390        40
26.400        27
26.410        20
26.420        40
26.430        20
26.440        47
26.450        33
26.460        40
26.470        40
26.480        40
26.490        33
26.500        13
26.510        47
26.520        47
26.530        27
26.540        47
26.550         7
26.560        33
26.570        33
26.580        33
26.590        40
26.600        33
26.610        33
26.620        47
26.630        13
26.640        60
26.650        73
26.660        20
26.670        33
26.680        40
26.690        67
26.700        53
26.710        27
26.720        27
26.730        40
26.740        20
26.750        53
26.760        33
26.770        87
26.780        27
26.790        27
26.800        13
26.810        27
26.820        40
26.830        33
26.840        60
26.850        60
26.860        47
26.870        27
26.880        33
26.890        20
26.900        33
26.910        20
26.920        33
26.930        40
26.940        73
26.950        60
26.960        27
26.970        80
26.980        20
26.990        20
27.000        53
27.010        33
27.020        33
27.030        47
27.040        40
27.050        53
27.060        20
27.070        33
27.080        53
27.090        40
27.100        20
27.110        40
27.120        40
27.130        33
27.140        20
27.150         7
27.160        47
27.170        20
27.180        60
27.190        53
27.200        40
27.210        47
27.220        60
27.230        40
27.240        20
27.250        53
27.260        93
27.270        33
27.280        47
27.290        27
27.300        33
27.310        60
27.320        27
27.330        40
27.340        53
27.350        33
27.360        27
27.370        40
27.380        27
27.390        33
27.400        33
27.410        40
27.420        27
27.430        53
27.440        27
27.450        67
27.460        20
27.470        13
27.480        53
27.490        47
27.500        27
27.510        33
27.520        20
27.530        53
27.540        40
27.550        40
27.560        27
27.570        13
27.580        27
27.590        33
27.600        53
27.610        40
27.620        27
27.630        53
27.640        20
27.650        53
27.660        40
27.670         7
27.680        20
27.690        27
27.700        33
27.710        20
27.720        33
27.730        60
27.740        53
27.750        53
27.760        60
27.770        20
27.780        47
27.790        33
27.800        60
27.810        73
27.820         7
27.830        40
27.840        40
27.850        40
27.860        60
27.870        47
27.880        40
27.890        40
27.900        40
27.910        40
27.920        33
27.930        33
27.940        20
27.950        13
27.960        53
27.970        40
27.980        13
27.990        33
28.000        33
28.010        40
28.020        27
28.030        20
28.040        20
28.050        27
28.060        33
28.070        40
28.080        27
28.090        60
28.100        20
28.110        40
28.120        27
28.130        40
28.140        27
28.150        33
28.160        73
28.170         7
28.180        40
28.190        40
28.200        33
28.210        53
28.220        27
28.230        33
28.240        27
28.250        53
28.260        27
28.270        60
28.280        20
28.290        47
28.300        53
28.310        27
28.320        47
28.330        40
28.340        40
28.350        33
28.360        40
28.370        33
28.380        40
28.390         7
28.400        33
28.410        20
28.420         0
28.430        20
28.440        33
28.450        40
28.460        47
28.470        33
28.480         7
28.490        53
28.500        53
28.510        33
28.520        60
28.530        27
28.540        60
28.550        47
28.560        47
28.570        27
28.580        27
28.590        47
28.600         7
28.610        20
28.620        13
28.630        47
28.640         7
28.650        13
28.660        53
28.670        20
28.680        20
28.690        27
28.700        53
28.710        20
28.720        60
28.730        20
28.740        33
28.750        47
28.760        33
28.770        20
28.780        53
28.790        40
28.800        60
28.810        40
28.820        47
28.830        33
28.840        33
28.850        27
28.860        27
28.870        47
28.880        27
28.890        47
28.900        47
28.910        40
28.920        40
28.930        47
28.940        33
28.950        47
28.960        53
28.970        27
28.980        27
28.990        40
29.000        27
29.010        20
29.020        20
29.030        47
29.040        33
29.050        27
29.060        53
29.070        27
29.080        27
29.090        27
29.100        27
29.110        40
29.120        20
29.130        80
29.140        27
29.150        47
29.160        27
29.170        27
29.180        40
29.190        27
29.200        13
29.210        40
29.220        33
29.230        40
29.240        47
29.250        27
29.260        13
29.270        33
29.280        33
29.290        27
29.300        33
29.310        33
29.320        40
29.330        27
29.340        13
29.350        60
29.360        60
29.370        33
29.380        73
29.390        40
29.400        40
29.410        27
29.420        33
29.430        33
29.440        20
29.450        40
29.460        33
29.470        13
29.480         7
29.490        67
29.500        13
29.510        53
29.520        53
29.530        33
29.540        20
29.550        20
29.560        27
29.570        33
29.580        27
29.590        33
29.600        33
29.610        40
29.620        13
29.630        27
29.640        33
29.650         7
29.660        53
29.670        47
29.680        40
29.690        27
29.700        20
29.710        33
29.720        27
29.730        27
29.740        20
29.750        53
29.760        27
29.770        47
29.780        40
29.790        53
29.800         7
29.810        20
29.820        53
29.830        20
29.840        33
29.850        33
29.860        13
29.870         7
29.880        27
29.890        40
29.900        33
29.910        47
29.920        40
29.930        20
29.940        13
29.950        20
29.960        20
29.970        40
29.980        20
29.990        60
30.000        40
30.010        33
30.020        33
30.030        40
30.040        20
30.050        27
30.060        27
30.070        33
30.080        73
30.090        27
30.100        13
30.110        27
30.120        53
30.130        20
30.140         7
30.150        27
30.160        27
30.170        20
30.180        33
30.190         7
30.200        53
30.210        27
30.220        13
30.230        20
30.240        33
30.250        47
30.260        27
30.270        27
30.280        27
30.290        20
30.300        13
30.310        40
30.320        27
30.330        20
30.340        40
30.350        40
30.360        13
30.370        33
30.380        60
30.390        27
30.400        40
30.410        33
30.420        20
30.430        27
30.440        60
30.450        33
30.460        27
30.470        27
30.480        53
30.490        33
30.500        33
30.510        33
30.520        27
30.530        27
30.540        27
30.550        13
30.560        40
30.570        13
30.580        33
30.590        27
30.600        13
30.610        47
30.620        47
30.630        47
30.640        20
30.650        33
30.660        40
30.670        53
30.680        27
30.690        33
30.700        20
30.710        33
30.720        40
30.730        33
30.740        40
30.750        20
30.760        27
30.770        33
30.780         7
30.790        67
30.800        40
30.810        47
30.820        27
30.830        27
30.840        47
30.850        40
30.860        53
30.870        47
30.880        33
30.890        20
30.900        40
30.910        13
30.920        33
30.930        20
30.940        40
30.950        20
30.960        33
30.970        33
30.980        53
30.990        33
31.000        40
31.010        27
31.020        33
31.030        53
31.040        87
31.050        40
31.060        27
31.070        40
31.080         7
31.090        47
31.100        33
31.110        20
31.120        40
31.130        13
31.140        27
31.150        33
31.160        53
31.170        20
31.180        13
31.190        27
31.200        40
31.210        20
31.220        27
31.230        33
31.240        47
31.250        33
31.260        27
31.270        47
31.280        33
31.290        47
31.300        40
31.310        33
31.320        40
31.330        27
31.340        33
31.350        47
31.360        47
31.370        40
31.380        27
31.390        47
31.400        20
31.410        13
31.420        47
31.430        27
31.440        33
31.450        27
31.460        20
31.470        27
31.480        20
31.490        27
31.500        33
31.510        27
31.520        40
31.530        40
31.540        40
31.550        40
31.560        40
31.570        20
31.580         0
31.590        13
31.600        27
31.610        47
31.620        27
31.630         7
31.640        27
31.650        47
31.660        13
31.670        20
31.680        27
31.690        20
31.700        33
31.710        33
31.720        40
31.730        20
31.740        67
31.750        47
31.760        27
31.770        60
31.780        20
31.790        53
31.800        27
31.810        53
31.820        47
31.830        40
31.840        53
31.850        60
31.860        33
31.870        27
31.880        27
31.890        33
31.900        27
31.910        40
31.920        27
31.930        33
31.940        33
31.950        40
31.960        47
31.970        53
31.980        47
31.990        60
32.000        47
32.010        40
32.020        60
32.030        80
32.040        47
32.050        73
32.060        47
32.070        80
32.080        33
32.090        53
32.100        33
32.110        53
32.120       100
32.130       147
32.140        93
32.150        73
32.160        87
32.170        93
32.180       120
32.190        73
32.200       107
32.210       153
32.220       140
32.230       147
32.240       173
32.250       147
32.260       180
32.270       147
32.280       113
32.290       167
32.300       193
32.310       200
32.320       220
32.330       127
32.340       193
32.350       140
32.360       193
32.370       207
32.380       133
32.390       133
32.400       187
32.410       220
32.420       180
32.430       147
32.440       113
32.450       147
32.460       187
32.470       187
32.480       153
32.490        80
32.500        80
32.510        93
32.520       113
32.530        87
32.540        73
32.550        60
32.560        80
32.570        80
32.580        47
32.590        73
32.600       127
32.610        73
32.620        87
32.630        80
32.640        60
32.650        53
32.660        27
32.670        20
32.680        80
32.690        33
32.700        20
32.710        20
32.720        40
32.730        67
32.740        53
32.750        33
32.760        27
32.770        73
32.780        60
32.790        13
32.800        47
32.810        47
32.820        20
32.830        40
32.840         7
32.850        27
32.860        53
32.870        40
32.880        20
32.890        53
32.900        47
32.910        33
32.920        47
32.930        47
32.940        40
32.950        13
32.960         7
32.970        67
32.980        40
32.990        13
33.000        13
33.010        27
33.020        33
33.030        40
33.040        40
33.050        20
33.060        47
33.070        20
33.080        20
33.090        27
33.100         0
33.110        27
33.120        13
33.130        47
33.140        13
33.150        33
33.160        80
33.170        13
33.180        13
33.190        40
33.200        13
33.210        27
33.220        20
33.230        40
33.240        27
33.250        20
33.260        20
33.270        40
33.280        13
33.290        20
33.300        33
33.310        20
33.320        27
33.330        33
33.340        33
33.350        40
33.360        27
33.370        40
33.380        40
33.390        40
33.400         7
33.410        20
33.420        27
33.430        33
33.440        33
33.450        40
33.460        33
33.470        33
33.480        47
33.490        60
33.500        27
33.510        40
33.520        47
33.530        53
33.540        33
33.550        27
33.560        20
33.570         7
33.580        13
33.590         7
33.600        40
33.610        60
33.620        20
33.630        33
33.640        27
33.650        13
33.660        27
33.670        27
33.680        40
33.690         7
33.700         7
33.710        40
33.720        33
33.730        47
33.740        33
33.750        47
33.760        47
33.770        13
33.780        40
33.790        33
33.800        33
33.810        20
33.820        20
33.830        33
33.840         7
33.850        20
33.860        33
33.870        27
33.880        27
33.890        33
33.900         0
33.910        27
33.920        47
33.930        40
33.940        33
33.950        33
33.960        20
33.970        20
33.980        53
33.990        40
34.000        27
34.010        47
34.020        40
34.030        33
34.040        27
34.050        33
34.060        40
34.070        40
34.080        27
34.090         7
34.100        13
34.110        13
34.120        20
34.130        33
34.140        13
34.150        20
34.160        20
34.170        40
34.180        33
34.190        47
34.200         7
34.210        20
34.220        13
34.230        27
34.240        33
34.250        33
34.260        40
34.270        53
34.280        53
34.290        20
34.300         7
34.310        27
34.320        27
34.330        53
34.340        20
34.350         7
34.360        33
34.370        27
34.380         7
34.390        33
34.400        27
34.410        20
34.420        27
34.430        33
34.440        27
34.450        33
34.460        33
34.470        40
34.480        73
34.490        27
34.500        13
34.510        27
34.520        40
34.530        47
34.540        60
34.550        20
34.560        13
34.570         7
34.580        33
34.590        33
34.600        33
34.610        20
34.620        20
34.630        27
34.640        27
34.650        27
34.660        20
34.670        27
34.680        40
34.690        40
34.700        27
34.710        27
34.720        33
34.730        40
34.740        60
34.750        33
34.760        40
34.770        13
34.780        67
34.790        27
34.800        27
34.810         7
34.820        33
34.830        27
34.840        67
34.850        53
34.860         7
34.870        33
34.880        67
34.890        40
34.900        20
34.910        73
34.920        53
34.930        73
34.940        33
34.950        60
34.960        80
34.970        40
34.980       107
34.990        53
35.000       120
35.010        93
35.020        93
35.030       120
35.040       140
35.050       127
35.060       233
35.070       187
35.080       247
35.090       313
35.100       360
35.110       426
35.120       400
35.130       486
35.140       426
35.150       333
35.160       400
35.170       360
35.180       293
35.190       173
35.200       280
35.210       240
35.220       273
35.230       220
35.240       207
35.250       127
35.260        80
35.270       107
35.280        87
35.290        40
35.300        27
35.310        60
35.320        40
35.330        13
35.340        20
35.350         7
35.360        27
35.370        40
35.380        13
35.390        20
35.400        20
35.410        27
35.420         0
35.430        33
35.440        33
35.450        33
35.460        40
35.470        13
35.480        13
35.490        13
35.500        13
35.510        33
35.520        53
35.530        27
35.540        33
35.550         7
35.560         0
35.570        60
35.580        27
35.590        27
35.600        13
35.610        13
35.620        27
35.630        33
35.640        13
35.650        27
35.660        27
35.670         0
35.680        33
35.690        27
35.700        13
35.710        40
35.720        27
35.730        13
35.740        13
35.750        33
35.760        20
35.770        33
35.780        40
35.790        27
35.800        13
35.810        27
35.820        20
35.830        13
35.840        13
35.850        53
35.860        13
35.870        27
35.880        40
35.890        20
35.900        33
35.910        33
35.920        53
35.930        27
35.940        27
35.950        53
35.960        13
35.970        33
35.980        33
35.990        33
36.000        33
36.010        13
36.020        40
36.030        27
36.040        33
36.050        40
36.060        27
36.070        13
36.080        27
36.090        27
36.100        40
36.110        40
36.120        20
36.130        13
36.140        33
36.150        40
36.160        33
36.170        20
36.180         7
36.190         7
36.200        40
36.210        40
36.220        33
36.230        20
36.240        27
36.250        53
36.260        20
36.270        20
36.280         7
36.290        40
36.300        53
36.310        13
36.320         7
36.330        33
36.340         7
36.350        33
36.360        60
36.370         0
36.380         7
36.390        53
36.400        27
36.410        13
36.420         0
36.430        20
36.440         7
36.450        33
36.460        27
36.470        13
36.480        20
36.490        20
36.500        27
36.510        33
36.520        20
36.530        27
36.540        20
36.550        27
36.560        20
36.570        27
36.580        20
36.590        40
36.600        27
36.610        20
36.620         7
36.630         7
36.640        13
36.650        40
36.660        27
36.670        20
36.680         7
36.690        20
36.700        67
36.710        27
36.720         0
36.730        20
36.740        20
36.750        33
36.760        27
36.770        53
36.780        13
36.790        20
36.800        40
36.810        27
36.820        33
36.830        53
36.840        40
36.850        47
36.860        33
36.870        53
36.880        53
36.890        47
36.900        33
36.910        20
36.920        47
36.930        40
36.940        47
36.950        60
36.960        33
36.970        67
36.980        27
36.990        20
37.000        47
37.010        73
37.020        53
37.030        13
37.040         7
37.050         7
37.060        33
37.070        27
37.080        27
37.090        13
37.100        33
37.110        13
37.120        27
37.130        13
37.140        27
37.150        20
37.160        27
37.170        60
37.180        20
37.190        47
37.200         7
37.210        27
37.220        20
37.230        33
37.240        13
37.250        20
37.260        60
37.270        27
37.280        33
37.290        27
37.300        20
37.310        13
37.320        40
37.330        27
37.340        20
37.350        40
37.360        33
37.370        40
37.380        27
37.390        13
37.400        40
37.410        20
37.420        20
37.430         0
37.440        27
37.450        40
37.460        40
37.470        33
37.480        47
37.490        33
37.500        33
37.510        13
37.520        33
37.530        40
37.540        33
37.550        13
37.560        53
37.570        33
37.580        27
37.590        33
37.600        20
37.610        33
37.620        33
37.630        33
37.640        27
37.650        13
37.660        40
37.670        20
37.680        40
37.690        47
37.700        47
37.710        60
37.720        93
37.730        27
37.740        20
37.750        67
37.760        40
37.770        33
37.780        67
37.790        27
37.800        67
37.810        40
37.820        67
37.830        47
37.840        53
37.850        33
37.860        33
37.870        27
37.880        40
37.890        20
37.900        40
37.910        20
37.920        33
37.930        13
37.940        27
37.950         7
37.960        27
37.970        33
37.980        33
37.990        40
38.000        33
38.010         0
38.020        20
38.030        40
38.040        33
38.050         7
38.060        53
38.070        13
38.080        13
38.090         7
38.100        27
38.110        40
38.120        40
38.130        27
38.140         7
38.150        13
38.160        40
38.170        27
38.180        13
38.190        47
38.200        13
38.210        13
38.220        33
38.230        13
38.240        27
38.250        33
38.260        33
38.270        40
38.280        47
38.290        53
38.300        60
38.310        27
38.320        13
38.330         7
38.340        27
38.350        20
38.360        33
38.370         0
38.380        40
38.390        13
38.400         7
38.410        27
38.420        40
38.430         7
38.440         7
38.450        27
38.460        27
38.470        13
38.480        20
38.490         7
38.500        20
38.510        33
38.520        33
38.530         7
38.540        27
38.550        40
38.560         7
38.570        20
38.580        13
38.590        27
38.600        13
38.610         7
38.620        13
38.630        13
38.640        40
38.650        40
38.660        53
38.670        27
38.680        33
38.690        53
38.700        13
38.710        33
38.720        27
38.730        53
38.740        73
38.750        40
38.760        20
38.770         7
38.780        47
38.790        47
38.800        13
38.810         7
38.820        13
38.830        20
38.840        27
38.850        40
38.860        33
38.870         7
38.880         0
38.890        27
38.900        20
38.910         0
38.920        47
38.930        27
38.940        27
38.950        13
38.960        33
38.970        13
38.980        20
38.990        20
39.000        13
39.010        27
39.020        27
39.030        13
39.040        27
39.050        33
39.060        27
39.070        33
39.080         0
39.090        33
39.100        20
39.110        40
39.120        27
39.130        13
39.140        53
39.150         7
39.160        20
39.170        40
39.180        20
39.190        53
39.200        33
39.210        13
39.220        20
39.230         7
39.240        13
39.250        13
39.260        33
39.270        13
39.280        13
39.290        47
39.300        27
39.310        27
39.320        27
39.330        27
39.340         7
39.350        47
39.360        47
39.370        40
39.380        33
39.390         7
39.400        27
39.410        33
39.420        53
39.430         7
39.440        33
39.450         0
39.460        20
39.470        27
39.480        27
39.490        27
39.500        27
39.510        27
39.520         7
39.530        27
39.540        27
39.550        27
39.560        33
39.570        40
39.580        27
39.590        13
39.600        60
39.610        33
39.620        47
39.630        13
39.640        53
39.650        33
39.660        13
39.670        53
39.680        20
39.690        13
39.700        33
39.710        47
39.720        73
39.730        87
39.740        47
39.750        73
39.760        60
39.770        67
39.780        67
39.790        73
39.800        93
39.810        93
39.820        93
39.830       153
39.840        67
39.850       113
39.860       147
39.870       140
39.880       160
39.890       213
39.900       207
39.910       133
39.920       180
39.930       173
39.940       133
39.950       153
39.960       200
39.970       240
39.980       180
39.990       207
40.000       233
40.010       167
40.020       180
40.030       213
40.040       153
40.050       127
40.060       127
40.070       140
40.080       187
40.090        67
40.100       113
40.110       127
40.120        67
40.130       100
40.140       100
40.150        93
40.160        80
40.170       113
40.180       107
40.190        87
40.200        13
40.210        53
40.220        93
40.230        53
40.240        40
40.250        33
40.260        33
40.270        27
40.280        27
40.290        27
40.300        27
40.310        40
40.320        13
40.330        27
40.340        40
40.350        13
40.360        13
40.370        73
40.380        33
40.390        53
40.400        20
40.410        20
40.420        47
40.430        27
40.440        20
40.450        20
40.460        40
40.470        40
40.480        20
40.490        20
40.500        20
40.510        33
40.520        27
40.530        27
40.540        13
40.550        27
40.560        60
40.570        20
40.580        20
40.590        27
40.600        13
40.610        20
40.620        13
40.630        40
40.640         7
40.650        20
40.660         7
40.670         7
40.680        13
40.690        27
40.700        20
40.710         7
40.720         0
40.730        20
40.740        47
40.750        33
40.760        33
40.770        33
40.780        27
40.790        20
40.800        13
40.810        33
40.820        27
40.830        40
40.840        13
40.850        40
40.860        47
40.870        20
40.880        33
40.890         7
40.900        27
40.910        13
40.920         7
40.930        13
40.940         7
40.950        27
40.960        33
40.970        27
40.980        33
40.990         7
41.000        53
41.010        33
41.020        47
41.030        27
41.040        33
41.050        33
41.060        13
41.070        40
41.080        40
41.090        40
41.100         7
41.110        13
41.120        33
41.130        33
41.140        47
41.150        33
41.160        40
41.170        40
41.180        20
41.190         7
41.200        33
41.210        27
41.220        20
41.230        27
41.240        27
41.250        40
41.260        20
41.270        13
41.280        27
41.290        27
41.300        27
41.310        13
41.320         7
41.330        53
41.340        33
41.350        20
41.360        40
41.370        47
41.380        33
41.390        33
41.400        40
41.410        40
41.420        53
41.430        33
41.440        60
41.450        67
41.460        53
41.470        73
41.480        40
41.490        40
41.500        47
41.510        73
41.520        67
41.530        67
41.540        33
41.550        53
41.560        27
41.570        80
41.580        93
41.590       120
41.600        47
41.610       120
41.620       113
41.630        93
41.640       107
41.650       220
41.660       200
41.670       147
41.680       127
41.690        80
41.700       127
41.710        53
41.720        87
41.730        60
41.740        80
41.750       147
41.760        60
41.770       100
41.780        73
41.790       100
41.800       127
41.810        93
41.820        53
41.830        13
41.840        40
41.850        53
41.860        20
41.870        33
41.880        40
41.890        33
41.900        60
41.910        27
41.920        20
41.930        20
41.940        33
41.950        33
41.960        47
41.970        33
41.980        33
41.990        20
42.000        13
42.010        33
42.020        27
42.030        20
42.040        73
42.050        33
42.060        40
42.070        40
42.080        53
42.090        33
42.100        20
42.110        27
42.120        27
42.130        20
42.140        13
42.150        27
42.160        33
42.170        33
42.180        13
42.190        33
42.200         7
42.210        27
42.220        20
42.230        13
42.240        13
42.250        33
42.260         7
42.270        13
42.280        20
42.290        40
42.300        33
42.310        20
42.320        20
42.330        13
42.340        40
42.350        40
42.360        20
42.370        33
42.380         0
42.390        40
42.400        33
42.410        20
42.420        40
42.430        27
42.440        47
42.450        20
42.460        73
42.470         7
42.480        13
42.490         7
42.500        13
42.510        13
42.520        20
42.530        27
42.540        20
42.550        20
42.560        27
42.570         7
42.580         7
42.590        40
42.600        27
42.610        27
42.620        33
42.630         0
42.640        20
42.650        33
42.660        20
42.670        33
42.680         0
42.690        33
42.700        27
42.710        27
42.720        13
42.730         0
42.740        20
42.750        20
42.760         7
42.770        20
42.780        40
42.790         7
42.800        27
42.810        40
42.820        40
42.830        27
42.840         7
42.850        40
42.860        27
42.870        40
42.880        13
42.890        13
42.900         7
42.910        20
42.920        13
42.930        20
42.940        20
42.950        40
42.960        33
42.970        13
42.980         7
42.990        47
43.000        13
43.010        27
43.020        20
43.030        40
43.040        27
43.050        33
43.060         7
43.070        40
43.080        33
43.090        40
43.100        20
43.110        27
43.120        20
43.130        47
43.140        47
43.150        53
43.160        60
43.170        27
43.180        53
43.190        13
43.200        73
43.210        53
43.220        60
43.230        33
43.240        53
43.250        73
43.260        53
43.270        93
43.280       100
43.290        80
43.300       153
43.310       133
43.320       147
43.330       240
43.340       320
43.350       173
43.360       233
43.370       213
43.380       313
43.390       287
43.400       287
43.410       200
43.420       187
43.430        93
43.440        93
43.450       153
43.460       173
43.470        87
43.480       147
43.490       120
43.500        80
43.510       113
43.520        93
43.530        53
43.540        47
43.550        20
43.560        53
43.570        53
43.580        33
43.590        47
43.600        47
43.610        27
43.620        27
43.630        47
43.640        33
43.650         7
43.660        27
43.670        40
43.680        20
43.690        13
43.700        33
43.710        13
43.720        13
43.730        13
43.740        47
43.750        53
43.760        40
43.770        20
43.780        33
43.790        53
43.800         7
43.810        20
43.820         7
43.830        13
43.840        13
43.850        20
43.860        40
43.870         7
43.880        33
43.890        40
43.900        27
43.910         7
43.920        40
43.930        40
43.940        13
43.950        47
43.960        13
43.970        53
43.980        33
43.990        73
44.000        20
44.010        27
44.020        47
44.030        13
44.040        20
44.050        20
44.060        27
44.070        20
44.080        27
44.090        20
44.100        27
44.110        33
44.120        27
44.130        27
44.140        20
44.150        53
44.160        33
44.170        67
44.180        13
44.190        33
44.200         7
44.210         7
44.220        33
44.230        13
44.240        87
44.250        53
44.260        33
44.270        33
44.280        33
44.290        33
44.300        13
44.310        27
44.320        20
44.330        33
44.340        47
44.350        13
44.360        33
44.370        27
44.380        27
44.390        33
44.400        40
44.410        60
44.420        40
44.430        13
44.440        40
44.450        27
44.460        27
44.470        13
44.480        73
44.490        20
44.500        80
44.510        27
44.520        40
44.530        40
44.540        73
44.550        47
44.560        20
44.570        53
44.580        27
44.590        60
44.600        13
44.610        33
44.620        47
44.630        53
44.640        67
44.650        40
44.660        47
44.670       100
44.680        47
44.690        60
44.700        20
44.710        40
44.720        60
44.730        33
44.740        73
44.750        73
44.760        73
44.770        60
44.780        93
44.790        27
44.800        67
44.810       120
44.820       120
44.830        53
44.840        93
44.850       100
44.860        60
44.870        53
44.880        53
44.890        60
44.900        67
44.910        73
44.920        67
44.930        80
44.940       100
44.950        73
44.960       147
44.970        60
44.980        80
44.990       100
45.000        80
45.010        67
45.020        53
45.030       147
45.040        40
45.050        87
45.060        73
45.070        87
45.080       107
45.090       160
45.100        80
45.110        80
45.120        73
45.130       100
45.140       120
45.150        93
45.160        93
45.170       147
45.180        93
45.190       140
45.200        93
45.210       100
45.220       113
45.230       120
45.240        93
45.250        67
45.260       107
45.270       173
45.280        93
45.290        93
45.300       113
45.310       133
45.320       147
45.330       100
45.340       120
45.350       140
45.360       113
45.370       100
45.380       113
45.390       153
45.400        93
45.410       207
45.420       147
45.430       153
45.440       133
45.450       167
45.460       147
45.470       167
45.480       240
45.490       247
45.500       213
45.510       220
45.520       260
45.530       293
45.540       187
45.550       233
45.560       273
45.570       247
45.580       267
45.590       213
45.600       267
45.610       273
45.620       267
45.630       280
45.640       287
45.650       313
45.660       280
45.670       267
45.680       307
45.690       380
45.700       380
45.710       486
45.720       387
45.730       460
45.740       460
45.750       426
45.760       353
45.770       553
45.780       420
45.790       593
45.800       533
45.810       593
45.820       673
45.830       600
45.840       653
45.850       753
45.860       673
45.870       720
45.880       693
45.890       760
45.900       793
45.910       940
45.920       960
45.930      1106
45.940      1240
45.950      1180
45.960      1493
45.970      1333
45.980      1413
45.990      1220
46.000      1379
46.010      1373
46.020      1633
46.030      1513
46.040      1699
46.050      1699
46.060      1786
46.070      1906
46.080      2059
46.090      2059
46.100      2226
46.110      2252
46.120      2099
46.130      2252
46.140      2332
46.150      2266
46.160      2479
46.170      2286
46.180      2399
46.190      2706
46.200      2772
46.210      2646
46.220      2486
46.230      2925
46.240      3152
46.250      2945
46.260      2999
46.270      2972
46.280      2992
46.290      2939
46.300      3252
46.310      3139
46.320      3212
46.330      2965
46.340      2939
46.350      2852
46.360      3152
46.370      2979
46.380      2879
46.390      2819
46.400      2812
46.410      3112
46.420      2859
46.430      2606
46.440      2766
46.450      2919
46.460      2646
46.470      2652
46.480      2506
46.490      2532
46.500      2472
46.510      2246
46.520      2352
46.530      2139
46.540      2026
46.550      2073
46.560      2053
46.570      2053
46.580      1846
46.590      1799
46.600      1653
46.610      1526
46.620      1739
46.630      1679
46.640      1673
46.650      1313
46.660      1459
46.670      1306
46.680      1286
46.690      1279
46.700      1246
46.710      1013
46.720      1013
46.730      1026
46.740      1026
46.750       853
46.760       820
46.770       813
46.780       766
46.790       686
46.800       706
46.810       686
46.820       613
46.830       653
46.840       553
46.850       620
46.860       606
46.870       473
46.880       446
46.890       433
46.900       520
46.910       506
46.920       373
46.930       426
46.940       387
46.950       433
46.960       393
46.970       400
46.980       340
46.990       353
47.000       347
47.010       313
47.020       280
47.030       313
47.040       273
47.050       233
47.060       247
47.070       253
47.080       233
47.090       200
47.100       267
47.110       240
47.120       193
47.130       147
47.140       167
47.150       160
47.160       233
47.170       200
47.180       193
47.190       227
47.200       153
47.210       153
47.220       187
47.230       173
47.240       160
47.250       160
47.260       107
47.270       227
47.280       120
47.290       113
47.300       140
47.310       140
47.320       133
47.330       100
47.340       120
47.350       113
47.360       100
47.370       133
47.380       153
47.390       140
47.400       107
47.410       107
47.420       133
47.430       120
47.440       127
47.450       100
47.460       100
47.470        80
47.480        80
47.490        60
47.500        87
47.510       147
47.520       140
47.530        87
47.540        93
47.550        60
47.560        73
47.570        53
47.580        47
47.590        80
47.600        47
47.610        73
47.620        93
47.630        67
47.640        73
47.650        40
47.660       100
47.670        47
47.680        53
47.690        67
47.700       127
47.710       100
47.720        67
47.730        87
47.740        73
47.750        93
47.760        33
47.770        87
47.780        80
47.790        87
47.800        47
47.810        60
47.820        87
47.830        60
47.840        53
47.850       120
47.860        60
47.870        60
47.880        40
47.890        73
47.900        73
47.910        67
47.920        27
47.930        53
47.940        20
47.950        40
47.960        53
47.970        47
47.980        73
47.990        53
48.000        80
48.010        67
48.020        53
48.030        33
48.040        40
48.050        47
48.060        87
48.070        80
48.080        73
48.090        33
48.100        67
48.110        33
48.120        40
48.130        40
48.140        67
48.150        40
48.160        33
48.170        40
48.180        40
48.190        40
48.200        47
48.210        80
48.220        53
48.230        47
48.240        33
48.250        33
48.260        20
48.270        53
48.280        27
48.290        27
48.300        60
48.310        67
48.320        87
48.330        67
48.340        67
48.350        33
48.360        13
48.370        67
48.380        40
48.390        13
48.400        53
48.410        40
48.420        40
48.430        60
48.440        27
48.450        67
48.460        20
48.470        73
48.480        47
48.490        27
48.500        47
48.510        27
48.520        60
48.530        47
48.540        47
48.550        33
48.560        53
48.570        73
48.580        20
48.590        20
48.600        40
48.610        27
48.620        40
48.630        40
48.640        33
48.650        13
48.660        40
48.670        87
48.680        47
48.690        47
48.700        27
48.710        27
48.720        27
48.730        53
48.740        27
48.750        60
48.760        40
48.770        40
48.780        33
48.790        20
48.800        60
48.810        33
48.820        80
48.830        67
48.840        47
48.850        27
48.860        40
48.870        27
48.880        60
48.890        20
48.900        40
48.910        33
48.920        40
48.930         7
48.940        40
48.950        47
48.960        13
48.970        13
48.980        33
48.990        53
49.000        40
49.010        80
49.020        53
49.030        60
49.040        60
49.050         7
49.060        33
49.070        33
49.080        27
49.090        53
49.100        13
49.110        67
49.120        67
49.130        27
49.140        40
49.150        20
49.160        40
49.170        53
49.180        33
49.190        53
49.200         0
49.210        27
49.220        60
49.230        40
49.240        27
49.250        33
49.260        33
49.270        47
49.280        27
49.290        20
49.300        53
49.310        27
49.320        27
49.330        40
49.340        33
49.350        33
49.360        27
49.370        60
49.380        47
49.390        40
49.400        27
49.410        60
49.420        60
49.430        13
49.440        33
49.450        27
49.460        33
49.470        47
49.480        33
49.490        40
49.500        47
49.510        47
49.520        40
49.530        33
49.540        27
49.550        20
49.560        27
49.570        33
49.580        20
49.590        40
49.600        33
49.610        47
49.620        40
49.630        27
49.640        40
49.650         7
49.660        40
49.670        53
49.680        47
49.690        20
49.700        27
49.710        53
49.720        53
49.730        47
49.740        27
49.750        53
49.760        53
49.770        47
49.780        33
49.790        27
49.800        33
49.810        40
49.820        40
49.830        20
49.840        13
49.850        47
49.860        27
49.870        27
49.880        20
49.890        20
49.900        40
49.910        27
49.920        20
49.930         7
49.940        20
49.950        20
49.960        27
49.970        20
49.980         7
49.990        60
50.000        20
50.010        47
50.020        33
50.030        20
50.040        53
50.050         0
50.060        27
50.070        27
50.080        13
50.090        33
50.100        33
50.110        20
50.120        33
50.130        20
50.140        33
50.150        13
50.160        20
50.170        13
50.180        60
50.190        67
50.200        40
50.210        20
50.220        33
50.230        40
50.240        27
50.250        27
50.260        33
50.270        60
50.280         7
50.290        47
50.300         7
50.310        40
50.320        47
50.330        27
50.340        20
50.350        33
50.360        13
50.370        40
50.380        20
50.390        13
50.400        40
50.410        20
50.420        13
50.430        13
50.440        20
50.450        33
50.460        20
50.470        53
50.480        60
50.490        40
50.500         7
50.510        53
50.520        27
50.530        40
50.540        33
50.550        47
50.560        53
50.570        40
50.580        60
50.590        33
50.600        20
50.610         7
50.620        27
50.630        40
50.640        13
50.650        20
50.660         7
50.670        47
50.680         0
50.690        20
50.700        33
50.710        33
50.720        53
50.730        40
50.740        20
50.750         7
50.760        40
50.770         0
50.780        60
50.790        40
50.800        67
50.810        27
50.820        27
50.830        33
50.840        20
50.850        27
50.860        13
50.870        47
50.880        20
50.890        27
50.900        27
50.910        13
50.920        27
50.930        33
50.940        27
50.950        40
50.960        33
50.970        60
50.980        53
50.990        20
51.000        20
51.010        27
51.020        27
51.030        27
51.040        33
51.050        20
51.060        13
51.070        20
51.080        27
51.090        60
51.100         7
51.110        20
51.120        27
51.130        27
51.140        27
51.150        27
51.160        27
51.170        47
51.180         7
51.190        27
51.200        27
51.210        33
51.220        20
51.230        33
51.240        27
51.250        40
51.260        33
51.270        40
51.280        20
51.290        13
51.300        47
51.310         7
51.320         7
51.330         7
51.340        33
51.350        40
51.360        13
51.370        40
51.380        13
51.390        13
51.400        27
51.410        33
51.420        33
51.430        53
51.440        33
51.450        20
51.460         0
51.470        20
51.480        33
51.490        13
51.500        47
51.510        20
51.520        33
51.530        27
51.540        27
51.550        33
51.560        73
51.570        20
51.580        20
51.590         7
51.600        47
51.610        33
51.620        27
51.630        47
51.640         7
51.650        53
51.660        40
51.670        33
51.680        27
51.690        27
51.700        27
51.710        33
51.720        40
51.730        20
51.740         0
51.750         7
51.760        33
51.770        13
51.780        20
51.790        33
51.800        20
51.810        13
51.820        33
51.830        40
51.840        13
51.850        20
51.860         7
51.870         7
51.880        33
51.890        27
51.900        27
51.910        27
51.920         7
51.930        47
51.940         7
51.950        47
51.960        13
51.970        20
51.980        13
51.990        27
52.000        40
52.010        27
52.020        60
52.030        40
52.040         7
52.050        33
52.060        20
52.070        13
52.080        40
52.090        33
52.100        20
52.110        20
52.120        20
52.130        33
52.140        13
52.150        47
52.160        13
52.170        47
52.180        33
52.190        27
52.200        53
52.210        20
52.220        33
52.230        27
52.240        47
52.250        20
52.260        33
52.270        33
52.280        33
52.290        40
52.300        20
52.310        40
52.320        13
52.330        13
52.340        47
52.350        60
52.360        20
52.370        27
52.380        40
52.390        27
52.400        20
52.410        33
52.420        40
52.430        53
52.440        40
52.450        13
52.460        47
52.470        47
52.480        73
52.490        47
52.500        87
52.510       160
52.520       213
52.530       233
52.540       287
52.550       287
52.560       280
52.570       247
52.580       167
52.590       240
52.600       133
52.610       113
52.620        93
52.630       120
52.640       120
52.650       107
52.660       113
52.670       187
52.680       113
52.690       107
52.700       160
52.710       127
52.720       120
52.730       100
52.740        93
52.750        93
52.760        67
52.770        47
52.780        27
52.790        33
52.800        40
52.810        27
52.820        47
52.830        13
52.840        60
52.850        27
52.860         0
52.870        47
52.880        27
52.890        33
52.900        20
52.910        27
52.920        13
52.930         7
52.940        27
52.950        13
52.960         7
52.970         7
52.980        20
52.990         7
53.000        20
53.010        40
53.020        27
53.030        40
53.040        40
53.050        20
53.060        40
53.070        33
53.080        33
53.090        47
53.100        20
53.110        33
53.120        40
53.130        13
53.140        27
53.150        20
53.160        27
53.170        27
53.180        27
53.190         7
53.200         7
53.210        20
53.220        20
53.230        33
53.240        20
53.250        20
53.260        33
53.270        33
53.280        13
53.290        60
53.300        13
53.310        20
53.320        13
53.330        13
53.340        47
53.350        33
53.360        20
53.370         7
53.380        20
53.390        20
53.400        27
53.410        27
53.420        20
53.430         0
53.440        33
53.450        27
53.460         7
53.470        33
53.480        47
53.490        33
53.500        13
53.510        20
53.520        20
53.530         7
53.540        47
53.550        27
53.560         7
53.570        33
53.580        40
53.590        40
53.600        13
53.610        20
53.620        20
53.630        27
53.640        13
53.650        33
53.660         0
53.670        33
53.680         7
53.690        47
53.700         7
53.710        20
53.720        20
53.730        13
53.740        13
53.750        27
53.760        13
53.770        20
53.780        33
53.790        33
53.800        27
53.810         7
53.820        20
53.830        27
53.840        60
53.850        20
53.860        33
53.870        27
53.880        33
53.890         7
53.900        20
53.910        20
53.920        13
53.930        33
53.940        27
53.950        33
53.960        33
53.970         7
53.980        33
53.990        20
54.000        20
54.010        33
54.020        27
54.030        13
54.040         7
54.050        13
54.060        27
54.070        47
54.080        47
54.090         7
54.100         7
54.110        20
54.120        40
54.130        27
54.140        47
54.150        13
54.160        13
54.170        13
54.180         7
54.190        53
54.200         7
54.210         7
54.220        20
54.230        33
54.240         0
54.250        47
54.260        47
54.270        47
54.280        20
54.290         0
54.300        40
54.310        20
54.320         0
54.330        27
54.340        33
54.350        27
54.360        40
54.370        13
54.380         7
54.390        33
54.400         7
54.410        33
54.420        13
54.430        20
54.440         7
54.450        20
54.460        20
54.470        33
54.480        27
54.490        13
54.500        13
54.510        27
54.520        20
54.530        13
54.540        33
54.550        20
54.560        20
54.570        33
54.580        20
54.590        33
54.600         7
54.610        20
54.620        40
54.630        40
54.640         0
54.650        27
54.660        13
54.670        40
54.680        33
54.690        20
54.700        27
54.710        13
54.720        13
54.730        27
54.740        27
54.750         0
54.760        20
54.770        13
54.780        40
54.790        20
54.800         0
54.810         0
54.820        20
54.830        13
54.840         7
54.850        20
54.860         7
54.870         7
54.880        20
54.890        13
54.900        27
54.910         0
54.920        27
54.930        20
54.940        33
54.950        47
54.960        20
54.970        33
54.980        20
54.990        27
55.000        20
55.010         7
55.020         0
55.030        33
55.040        40
55.050        27
55.060        33
55.070        13
55.080        20
55.090         7
55.100        13
55.110        40
55.120         7
55.130        33
55.140        13
55.150        33
55.160        27
55.170        13
55.180        20
55.190        13
55.200        27
55.210        20
55.220         7
55.230        20
55.240        13
55.250         7
55.260        13
55.270        27
55.280         7
55.290        13
55.300         7
55.310        20
55.320        20
55.330        27
55.340        27
55.350         7
55.360        13
55.370        33
55.380        40
55.390        13
55.400        27
55.410        13
55.420        20
55.430        20
55.440         7
55.450        27
55.460        27
55.470        20
55.480        20
55.490        13
55.500         7
55.510        13
55.520         7
55.530        20
55.540        20
55.550        33
55.560         7
55.570        20
55.580         7
55.590         0
55.600         0
55.610        33
55.620        13
55.630         7
55.640         7
55.650        27
55.660        13
55.670        13
55.680        13
55.690        27
55.700        40
55.710        47
55.720        13
55.730        20
55.740        20
55.750         7
55.760        47
55.770        27
55.780        40
55.790        33
55.800        27
55.810        40
55.820        33
55.830        13
55.840        33
55.850        20
55.860        13
55.870        20
55.880         7
55.890        20
55.900        13
55.910         0
55.920        20
55.930         0
55.940        13
55.950        13
55.960        27
55.970        20
55.980        13
55.990        33
56.000         7
56.010        20
56.020        33
56.030        13
56.040        33
56.050        13
56.060        20
56.070        33
56.080        33
56.090        33
56.100        20
56.110        20
56.120        20
56.130        40
56.140        27
56.150        53
56.160        47
56.170        13
56.180         7
56.190         7
56.200        20
56.210         7
56.220        27
56.230        13
56.240        20
56.250        33
56.260        20
56.270        13
56.280        20
56.290        20
56.300        13
56.310        27
56.320        27
56.330        33
56.340         7
56.350        20
56.360        13
56.370        13
56.380        40
56.390        27
56.400         7
56.410        20
56.420        27
56.430        40
56.440        13
56.450        27
56.460         7
56.470         7
56.480        27
56.490        13
56.500         7
56.510        27
56.520        20
56.530         0
56.540        27
56.550         7
56.560        27
56.570        20
56.580        20
56.590        20
56.600        20
56.610        33
56.620        27
56.630        13
56.640         7
56.650        47
56.660        20
56.670        27
56.680         7
56.690        13
56.700         7
56.710        20
56.720         0
56.730        40
56.740        33
56.750        20
56.760        40
56.770        20
56.780        13
56.790         7
56.800        20
56.810         7
56.820        20
56.830         0
56.840        20
56.850        20
56.860        13
56.870        33
56.880         7
56.890        13
56.900        13
56.910         0
56.920        33
56.930        13
56.940        33
56.950        20
56.960        33
56.970        27
56.980        13
56.990        40
57.000        13
57.010        27
57.020         7
57.030        20
57.040        13
57.050         0
57.060         0
57.070        40
57.080        40
57.090        53
57.100        20
57.110         7
57.120        20
57.130        53
57.140         7
57.150        33
57.160        27
57.170        13
57.180        20
57.190        20
57.200         7
57.210        27
57.220        20
57.230        33
57.240        33
57.250        20
57.260        13
57.270         7
57.280        33
57.290        47
57.300        20
57.310        60
57.320        53
57.330        13
57.340        33
57.350        47
57.360        33
57.370        13
57.380        60
57.390        33
57.400        27
57.410        67
57.420       113
57.430        80
57.440       113
57.450        60
57.460        53
57.470       133
57.480       227
57.490       200
57.500       240
57.510       373
57.520       426
57.530       393
57.540       540
57.550       460
57.560       426
57.570       473
57.580       407
57.590       300
57.600       227
57.610       160
57.620       107
57.630       153
57.640       180
57.650       127
57.660       193
57.670       113
57.680       220
57.690       173
57.700       287
57.710       200
57.720       240
57.730       213
57.740       160
57.750       180
57.760       120
57.770        60
57.780        80
57.790        60
57.800        60
57.810        40
57.820        47
57.830        40
57.840        40
57.850        27
57.860        33
57.870        27
57.880        27
57.890        20
57.900         7
57.910        47
57.920        33
57.930        27
57.940        47
57.950        47
57.960         7
57.970        33
57.980        40
57.990        40
58.000        33
58.010        47
58.020        40
58.030        27
58.040        33
58.050        20
58.060        33
58.070        27
58.080        20
58.090        27
58.100        20
58.110        20
58.120        20
58.130         0
58.140        13
58.150        13
58.160        13
58.170         7
58.180        20
58.190        13
58.200        13
58.210        13
58.220        20
58.230        20
58.240        20
58.250        47
58.260        20
58.270        27
58.280        33
58.290        13
58.300        13
58.310        20
58.320        27
58.330        27
58.340         7
58.350        13
58.360         0
58.370        27
58.380        20
58.390         0
58.400        13
58.410        27
58.420        40
58.430         7
58.440        20
58.450         7
58.460        20
58.470         0
58.480        33
58.490        20
58.500         7
58.510         7
58.520        20
58.530         7
58.540        20
58.550         0
58.560        40
58.570         0
58.580        20
58.590        27
58.600        33
58.610         0
58.620        27
58.630        20
58.640         7
58.650        13
58.660        13
58.670        20
58.680         0
58.690        27
58.700        13
58.710         7
58.720        33
58.730        13
58.740         7
58.750        13
58.760         7
58.770        20
58.780        27
58.790        27
58.800        13
58.810         7
58.820        20
58.830         7
58.840        47
58.850         0
58.860        13
58.870         7
58.880        13
58.890        20
58.900         7
58.910        27
58.920        20
58.930         0
58.940        20
58.950         0
58.960        13
58.970        20
58.980        13
58.990        33
59.000        27
59.010        13
59.020        13
59.030        20
59.040        33
59.050        47
59.060        20
59.070        13
59.080        33
59.090         7
59.100        33
59.110         7
59.120        13
59.130         7
59.140        13
59.150        27
59.160        27
59.170        13
59.180        40
59.190         0
59.200         7
59.210        27
59.220        20
59.230         0
59.240        33
59.250        20
59.260         7
59.270        20
59.280        33
59.290        13
59.300        13
59.310         7
59.320         7
59.330         0
59.340        33
59.350        13
59.360        33
59.370        13
59.380        27
59.390        27
59.400        53
59.410        27
59.420        20
59.430         0
59.440        13
59.450         7
59.460        27
59.470        27
59.480        27
59.490        13
59.500        27
59.510         7
59.520        13
59.530        27
59.540        27
59.550        20
59.560        13
59.570        20
59.580        13
59.590        20
59.600         7
59.610        20
59.620         7
59.630        20
59.640        13
59.650        27
59.660        13
59.670        13
59.680        13
59.690        13
59.700         7
59.710        13
59.720        60
59.730        27
59.740        20
59.750        13
59.760        13
59.770        20
59.780        27
59.790        20
59.800        20
59.810        47
59.820        27
59.830        13
59.840        20
59.850         0
59.860        13
59.870        40
59.880        27
59.890        13
59.900        33
59.910        13
59.920        27
59.930        27
59.940         0
59.950        13
59.960         0
59.970         7
59.980         7
59.990         0
60.000         0
