20.000        20
20.010        33
20.020        53
20.030        33
20.040        47
20.050        67
20.060        40
20.070        33
20.080        13
20.090        67
20.100        33
20.110        60
20.120        27
20.130        20
20.140        47
20.150        27
20.160        40
20.170        47
20.180        20
20.190        33
20.200        53
20.210        60
20.220        67
20.230        60
20.240        53
20.250        40
20.260        33
20.270        60
20.280        27
20.290        33
20.300        47
20.310        73
20.320        60
20.330        73
20.340        33
20.350        27
20.360        27
20.370        33
20.380        27
20.390        27
20.400        47
20.410        47
20.420        53
20.430        60
20.440        33
20.450        20
20.460        33
20.470        33
20.480        47
20.490        53
20.500        73
20.510        47
20.520        13
20.530        13
20.540        33
20.550        60
20.560        33
20.570        53
20.580        60
20.590        40
20.600        40
20.610        47
20.620        27
20.630        47
20.640        33
20.650        20
20.660        27
20.670        60
20.680        53
20.690        40
20.700        33
20.710        67
20.720        20
20.730        33
20.740        47
20.750        60
20.760        33
20.770        27
20.780        67
20.790        53
20.800        53
20.810        47
20.820        40
20.830        47
20.840        53
20.850        47
20.860        47
20.870        73
20.880        40
20.890        53
20.900        40
20.910        13
20.920        53
20.930        27
20.940        73
20.950        47
20.960        33
20.970        40
20.980        47
20.990        27
21.000        60
21.010        73
21.020        67
21.030        40
21.040        27
21.050        73
21.060        27
21.070        40
21.080        40
21.090        33
21.100         7
21.110        47
21.120        47
21.130        20
21.140        60
21.150        53
21.160        47
21.170        27
21.180        33
21.190        53
21.200        33
21.210        20
21.220        47
21.230        13
21.240        47
21.250        47
21.260        60
21.270        60
21.280        13
21.290        27
21.300        53
21.310        27
21.320        73
21.330        67
21.340        93
21.350        47
21.360        60
21.370        53
21.380        67
21.390        60
21.400        40
21.410        47
21.420        67
21.430        67
21.440        73
21.450        40
21.460        67
21.470        67
21.480        53
21.490        40
21.500        40
21.510        53
21.520        47
21.530        20
21.540        27
21.550        67
21.560        27
21.570        40
21.580        93
21.590        47
21.600        60
21.610        47
21.620        40
21.630        60
21.640         7
21.650        53
21.660        47
21.670        40
21.680        33
21.690        53
21.700        27
21.710        60
21.720        47
21.730        47
21.740        73
21.750        47
21.760        53
21.770        73
21.780        60
21.790        73
21.800        20
21.810        27
21.820        60
21.830        27
21.840        60
21.850        40
21.860        47
21.870        60
21.880        67
21.890        27
21.900        40
21.910        80
21.920        60
21.930        47
21.940        73
21.950        27
21.960        33
21.970        80
21.980        33
21.990        47
22.000        33
22.010        40
22.020        73
22.030        60
22.040        53
22.050        53
22.060        33
22.070        60
22.080        33
22.090        40
22.100        60
22.110        33
22.120        33
22.130        53
22.140        67
22.150        33
22.160        60
22.170        87
22.180        73
22.190        87
22.200        40
22.210        60
22.220        40
22.230        60
22.240        67
22.250        80
22.260        60
22.270        73
22.280        60
22.290        60
22.300        73
22.310        80
22.320        80
22.330        60
22.340       120
22.350       107
22.360        73
22.370       133
22.380       153
22.390       147
22.400       133
22.410       173
22.420       120
22.430       140
22.440       153
22.450       200
22.460       213
22.470       267
22.480       167
22.490       220
22.500       307
22.510       340
22.520       287
22.530       320
22.540       313
22.550       393
22.560       426
22.570       407
22.580       400
22.590       513
22.600       520
22.610       453
22.620       433
22.630       453
22.640       446
22.650       420
22.660       493
22.670       500
22.680       526
22.690       393
22.700       353
22.710       367
22.720       333
22.730       453
22.740       313
22.750       240
22.760       307
22.770       247
22.780       260
22.790       213
22.800       287
22.810       167
22.820       213
22.830       187
22.840       187
22.850       160
22.860       180
22.870       127
22.880       113
22.890       120
22.900       120
22.910       147
22.920       133
22.930       100
22.940       120
22.950       107
22.960        67
22.970       113
22.980       107
22.990        80
23.000        67
23.010        47
23.020        73
23.030        67
23.040        47
23.050        53
23.060        87
23.070        60
23.080        80
23.090        53
23.100        47
23.110        47
23.120        80
23.130        80
23.140        80
23.150        73
23.160        80
23.170        87
23.180        40
23.190        67
23.200        20
23.210        47
23.220        60
23.230        47
23.240        80
23.250        87
23.260        60
23.270        47
23.280        60
23.290        47
23.300        33
23.310        47
23.320        60
23.330        87
23.340        67
23.350        53
23.360        67
23.370        33
23.380        60
23.390        53
23.400        47
23.410        53
23.420        33
23.430        27
23.440        53
23.450        60
23.460        80
23.470        80
23.480        47
23.490        40
23.500        40
23.510        20
23.520        27
23.530        33
23.540        13
23.550        40
23.560        53
23.570        13
23.580        13
23.590        47
23.600        33
23.610        40
23.620        40
23.630        53
23.640        20
23.650        33
23.660        20
23.670        27
23.680        27
23.690        40
23.700        60
23.710        80
23.720        47
23.730        53
23.740        40
23.750        67
23.760        20
23.770        33
23.780        33
23.790        73
23.800        13
23.810        40
23.820        53
23.830        53
23.840        27
23.850        53
23.860        20
23.870        20
23.880        27
23.890        67
23.900        47
23.910        27
23.920        40
23.930        53
23.940        53
23.950        27
23.960        67
23.970        40
23.980        13
23.990        73
24.000        20
24.010        67
24.020        40
24.030        40
24.040        73
24.050        40
24.060        47
24.070        47
24.080        40
24.090        53
24.100        53
24.110        33
24.120        40
24.130        40
24.140        40
24.150        27
24.160         7
24.170        33
24.180        13
24.190        53
24.200        47
24.210        40
24.220        27
24.230        33
24.240        67
24.250        53
24.260        33
24.270        60
24.280        47
24.290        27
24.300        20
24.310        40
24.320        13
24.330        40
24.340         7
24.350        27
24.360        47
24.370        47
24.380        47
24.390        53
24.400        33
24.410        20
24.420        27
24.430        73
24.440        20
24.450        47
24.460        67
24.470        80
24.480        33
24.490        53
24.500        60
24.510        40
24.520        47
24.530        40
24.540        20
24.550        27
24.560        33
24.570        47
24.580        53
24.590        67
24.600        80
24.610        67
24.620        67
24.630        27
24.640        53
24.650        47
24.660        33
24.670        33
24.680        13
24.690        40
24.700        40
24.710        60
24.720        20
24.730        87
24.740        53
24.750        27
24.760        33
24.770        33
24.780        33
24.790        33
24.800        47
24.810        67
24.820        53
24.830        67
24.840        60
24.850        33
24.860        53
24.870        27
24.880        73
24.890        33
24.900        47
24.910        53
24.920        40
24.930        53
24.940        13
24.950        73
24.960        87
24.970        40
24.980        60
24.990        13
25.000        33
25.010        40
25.020        53
25.030        47
25.040        27
25.050        33
25.060        53
25.070        27
25.080       100
25.090        33
25.100        60
25.110        47
25.120        40
25.130        33
25.140        60
25.150        47
25.160        40
25.170        47
25.180        47
25.190        47
25.200        40
25.210        27
25.220        20
25.230        40
25.240        60
25.250        60
25.260        13
25.270        67
25.280        33
25.290        33
25.300        33
25.310        40
25.320        13
25.330        33
25.340        20
25.350        93
25.360        60
25.370        33
25.380        47
25.390        27
25.400        53
25.410        73
25.420        53
25.430        40
25.440        53
25.450        60
25.460        47
25.470        67
25.480       100
25.490        73
25.500       113
25.510        87
25.520        80
25.530        47
25.540       127
25.550        87
25.560        80
25.570       180
25.580       160
25.590       140
25.600        60
25.610        93
25.620        87
25.630       120
25.640       100
25.650        73
25.660        47
25.670        20
25.680        33
25.690        47
25.700        27
25.710        20
25.720        40
25.730        40
25.740        20
25.750        47
25.760        33
25.770        47
25.780        53
25.790        53
25.800        40
25.810        53
25.820        47
25.830        27
25.840        47
25.850        27
25.860        67
25.870        53
25.880        60
25.890        33
25.900        27
25.910        47
25.920        27
25.930        47
25.940        67
25.950        60
25.960        53
25.970        47
25.980        47
25.990        47
26.000        47
26.010        47
26.020        47
26.030        53
26.040        47
26.050        33
26.060        33
26.070        53
26.080        33
26.090        67
26.100        53
26.110        40
26.120        40
26.130        33
26.140        40
26.150        27
26.160        60
26.170        40
26.180        27
26.190        40
26.200        20
26.210        33
26.220        60
26.230        73
26.240        40
26.250        60
26.260        27
26.270        40
26.280        33
26.290        40
26.300        47
26.310        33
26.320        47
26.330        40
26.340        40
26.350        53
26.360        33
26.370        47
26.380        53
26.390        60
26.400        27
26.410        27
26.420        47
26.430        60
26.440        27
26.450        20
26.460        13
26.470        27
26.480        47
26.490        33
26.500        40
26.510        40
26.520        60
26.530        47
26.540        40
26.550        40
26.560        47
26.570        40
26.580        40
26.590        47
26.600        33
26.610        40
26.620        60
26.630        20
26.640        60
26.650        33
26.660        53
26.670        20
26.680        53
26.690        13
26.700        13
26.710        73
26.720        27
26.730        33
26.740        40
26.750        60
26.760        20
26.770        20
26.780        47
26.790        33
26.800        47
26.810        60
26.820        20
26.830         0
26.840         7
26.850        40
26.860        47
26.870        47
26.880        33
26.890        40
26.900        47
26.910        33
26.920        53
26.930         7
26.940        40
26.950        40
26.960        20
26.970        20
26.980        13
26.990        53
27.000        53
27.010        33
27.020        67
27.030        40
27.040        40
27.050        40
27.060        40
27.070        27
27.080        33
27.090        60
27.100        20
27.110        53
27.120        33
27.130        47
27.140        73
27.150        47
27.160        33
27.170        33
27.180        13
27.190        20
27.200        53
27.210        47
27.220        27
27.230        40
27.240        20
27.250        13
27.260        20
27.270        40
27.280        13
27.290        60
27.300        33
27.310        33
27.320        40
27.330        20
27.340        27
27.350        20
27.360        33
27.370        27
27.380        33
27.390        40
27.400        53
27.410        20
27.420        13
27.430        73
27.440        13
27.450        40
27.460        20
27.470        60
27.480        47
27.490        40
27.500        53
27.510        40
27.520        33
27.530        40
27.540        47
27.550        67
27.560        27
27.570        40
27.580        67
27.590        20
27.600        20
27.610        53
27.620        47
27.630        80
27.640        40
27.650        53
27.660        60
27.670        33
27.680        33
27.690        47
27.700        40
27.710        20
27.720        40
27.730        40
27.740        40
27.750        40
27.760        27
27.770        13
27.780        13
27.790        20
27.800        53
27.810        33
27.820        33
27.830        13
27.840        67
27.850        33
27.860        53
27.870        13
27.880        33
27.890        40
27.900        33
27.910        13
27.920        20
27.930        20
27.940        20
27.950        40
27.960        27
27.970        27
27.980        47
27.990        33
28.000        27
28.010        20
28.020        60
28.030        27
28.040        20
28.050        40
28.060        47
28.070        47
28.080        60
28.090        47
28.100        53
28.110        40
28.120        53
28.130        33
28.140        13
28.150        47
28.160        20
28.170        47
28.180        60
28.190        67
28.200        33
28.210        47
28.220        33
28.230        47
28.240        33
28.250        60
28.260        40
28.270        40
28.280        20
28.290        47
28.300        27
28.310        33
28.320        20
28.330        27
28.340        20
28.350         7
28.360        27
28.370        67
28.380        13
28.390        53
28.400         7
28.410        20
28.420        27
28.430        27
28.440         7
28.450        40
28.460        40
28.470        40
28.480        60
28.490        33
28.500        20
28.510        60
28.520        40
28.530        73
28.540        27
28.550        40
28.560        53
28.570        27
28.580        20
28.590        53
28.600        27
28.610        20
28.620         7
28.630        20
28.640        13
28.650        40
28.660        40
28.670        33
28.680        33
28.690        47
28.700        33
28.710        33
28.720        33
28.730        47
28.740        53
28.750        33
28.760        40
28.770        47
28.780        47
28.790        20
28.800        20
28.810        20
28.820        33
28.830        67
28.840        47
28.850        20
28.860        27
28.870        60
28.880        60
28.890        60
28.900        40
28.910        47
28.920        40
28.930        73
28.940        13
28.950        13
28.960        33
28.970        40
28.980        33
28.990        47
29.000        47
29.010        47
29.020        33
29.030        40
29.040        27
29.050        60
29.060        27
29.070        47
29.080        40
29.090        47
29.100        27
29.110        27
29.120        40
29.130        33
29.140         0
29.150        27
29.160        47
29.170        53
29.180        33
29.190        80
29.200        27
29.210        33
29.220        53
29.230        60
29.240        73
29.250        27
29.260        33
29.270        47
29.280        27
29.290        27
29.300        47
29.310        27
29.320        13
29.330        47
29.340        13
29.350        47
29.360        27
29.370        20
29.380        40
29.390        40
29.400        27
29.410        60
29.420        13
29.430        33
29.440        33
29.450        33
29.460        20
29.470        40
29.480        27
29.490        33
29.500        33
29.510        20
29.520        40
29.530        47
29.540        47
29.550        53
29.560        53
29.570        40
29.580        27
29.590        67
29.600        67
29.610        20
29.620        33
29.630        53
29.640        53
29.650        27
29.660        40
29.670        27
29.680        20
29.690        53
29.700        47
29.710         7
29.720        33
29.730        27
29.740        13
29.750         7
29.760        33
29.770        27
29.780        33
29.790        27
29.800        27
29.810        47
29.820        33
29.830        40
29.840        33
29.850        53
29.860        47
29.870        40
29.880        47
29.890        40
29.900        33
29.910        40
29.920        33
29.930        27
29.940        20
29.950        40
29.960        13
29.970        33
29.980        47
29.990        60
30.000        27
30.010        33
30.020        13
30.030        13
30.040         7
30.050        27
30.060        40
30.070        20
30.080        33
30.090        13
30.100        40
30.110        27
30.120        27
30.130        40
30.140        60
30.150        53
30.160        40
30.170        33
30.180        40
30.190        33
30.200        60
30.210        27
30.220        20
30.230        20
30.240        20
30.250        47
30.260        40
30.270        20
30.280        20
30.290        27
30.300        33
30.310        40
30.320        20
30.330        20
30.340        40
30.350        87
30.360        33
30.370        40
30.380        13
30.390        33
30.400        47
30.410        53
30.420        33
30.430        20
30.440        40
30.450         0
30.460        13
30.470        53
30.480        93
30.490        40
30.500        53
30.510        47
30.520        60
30.530        20
30.540        33
30.550        27
30.560        33
30.570        13
30.580        13
30.590        27
30.600        40
30.610        20
30.620        40
30.630        40
30.640        27
30.650        33
30.660        20
30.670        27
30.680        27
30.690        33
30.700        40
30.710        27
30.720        33
30.730        27
30.740        20
30.750        27
30.760        33
30.770        40
30.780        20
30.790        13
30.800        20
30.810         7
30.820        33
30.830        27
30.840        47
30.850        13
30.860        13
30.870        20
30.880         7
30.890        40
30.900        27
30.910        40
30.920        33
30.930        47
30.940        27
30.950        47
30.960        53
30.970        33
30.980        27
30.990        40
31.000        47
31.010        27
31.020        33
31.030        27
31.040        33
31.050        13
31.060        33
31.070        40
31.080        20
31.090        33
31.100        20
31.110        33
31.120        20
31.130        33
31.140         7
31.150        80
31.160        20
31.170        27
31.180        47
31.190        27
31.200        13
31.210        27
31.220        20
31.230        27
31.240        20
31.250        20
31.260         7
31.270        33
31.280        47
31.290        20
31.300        33
31.310        53
31.320        40
31.330        53
31.340         7
31.350        33
31.360        27
31.370        47
31.380        40
31.390        27
31.400        53
31.410        20
31.420        13
31.430        20
31.440        13
31.450        73
31.460        20
31.470        47
31.480        27
31.490        20
31.500        27
31.510        33
31.520        60
31.530        27
31.540        27
31.550        33
31.560        60
31.570        53
31.580        20
31.590        40
31.600        47
31.610        47
31.620        27
31.630        53
31.640        40
31.650        40
31.660        47
31.670        27
31.680        33
31.690        20
31.700         7
31.710        13
31.720        27
31.730        27
31.740        20
31.750        13
31.760        40
31.770        40
31.780         7
31.790        20
31.800        13
31.810        27
31.820        27
31.830        67
31.840        27
31.850        27
31.860        47
31.870        33
31.880        33
31.890        53
31.900        40
31.910        33
31.920        40
31.930        33
31.940        40
31.950        33
31.960        33
31.970        53
31.980        53
31.990        47
32.000        33
32.010        27
32.020        60
32.030        53
32.040        73
32.050         7
32.060        33
32.070        27
32.080        33
32.090        47
32.100        87
32.110        47
32.120        33
32.130        33
32.140       100
32.150        40
32.160        67
32.170        67
32.180        53
32.190       100
32.200        67
32.210        60
32.220        67
32.230       100
32.240       107
32.250        60
32.260       160
32.270       107
32.280        93
32.290       113
32.300        93
32.310       140
32.320       147
32.330       147
32.340        67
32.350       140
32.360       160
32.370       140
32.380        73
32.390        93
32.400       133
32.410       140
32.420       120
32.430        80
32.440        93
32.450       107
32.460        60
32.470        80
32.480       100
32.490        80
32.500        87
32.510       120
32.520       113
32.530        33
32.540        80
32.550        40
32.560        27
32.570        40
32.580        27
32.590        53
32.600       127
32.610        27
32.620        40
32.630        60
32.640        33
32.650        40
32.660        27
32.670        33
32.680        40
32.690        47
32.700        33
32.710        20
32.720        40
32.730        40
32.740        20
32.750        13
32.760        47
32.770        27
32.780        47
32.790        27
32.800        47
32.810        47
32.820        33
32.830        27
32.840        27
32.850        53
32.860        20
32.870        20
32.880        60
32.890        40
32.900        53
32.910        67
32.920        40
32.930        40
32.940         7
32.950        47
32.960        20
32.970        40
32.980        40
32.990        20
33.000        13
33.010        47
33.020        27
33.030        20
33.040        53
33.050        40
33.060        40
33.070        13
33.080        40
33.090        13
33.100        33
33.110        47
33.120        53
33.130        27
33.140        47
33.150        27
33.160         0
33.170         0
33.180        33
33.190        27
33.200        33
33.210        33
33.220        27
33.230        27
33.240        20
33.250        27
33.260        53
33.270        60
33.280         7
33.290        27
33.300        40
33.310         7
33.320        33
33.330        27
33.340        53
33.350        13
33.360        40
33.370        20
33.380        40
33.390        33
33.400        40
33.410        20
33.420        20
33.430        47
33.440        20
33.450        33
33.460        27
33.470        33
33.480        20
33.490        27
33.500        33
33.510        27
33.520        33
33.530        53
33.540        60
33.550        27
33.560        20
33.570        33
33.580        33
33.590        40
33.600        27
33.610        13
33.620        40
33.630        27
33.640        20
33.650        40
33.660        40
33.670        20
33.680        40
33.690        33
33.700        27
33.710        40
33.720        27
33.730        20
33.740        33
33.750        33
33.760        33
33.770        20
33.780        27
33.790        27
33.800        33
33.810        20
33.820        47
33.830        27
33.840        27
33.850        27
33.860        33
33.870        40
33.880        13
33.890        27
33.900        33
33.910         0
33.920        47
33.930        27
33.940        40
33.950        27
33.960        27
33.970        33
33.980        20
33.990        27
34.000        33
34.010        53
34.020        40
34.030        13
34.040        13
34.050         7
34.060        40
34.070         7
34.080         7
34.090        27
34.100        13
34.110        20
34.120        33
34.130        40
34.140        27
34.150         7
34.160        47
34.170        33
34.180        13
34.190         7
34.200        13
34.210        33
34.220        27
34.230        40
34.240        27
34.250        20
34.260         7
34.270        13
34.280        33
34.290        40
34.300        13
34.310        27
34.320        73
34.330        27
34.340         7
34.350        40
34.360        27
34.370        27
34.380        40
34.390        20
34.400        47
34.410        60
34.420        20
34.430        27
34.440         7
34.450        33
34.460        33
34.470        27
34.480        20
34.490        60
34.500         7
34.510        33
34.520        27
34.530        47
34.540         7
34.550        47
34.560        13
34.570        13
34.580        33
34.590         7
34.600        40
34.610        40
34.620        20
34.630        33
34.640        27
34.650        40
34.660         7
34.670        40
34.680        27
34.690        20
34.700        33
34.710        33
34.720        40
34.730        33
34.740        47
34.750        40
34.760        40
34.770         7
34.780        60
34.790        20
34.800        53
34.810        13
34.820        33
34.830        40
34.840        20
34.850         7
34.860        40
34.870        40
34.880        33
34.890        33
34.900        20
34.910        27
34.920        53
34.930        53
34.940        47
34.950        67
34.960        73
34.970       113
34.980        87
34.990        87
35.000       113
35.010       113
35.020       100
35.030        93
35.040       140
35.050       187
35.060       227
35.070       253
35.080       213
35.090       233
35.100       273
35.110       307
35.120       247
35.130       300
35.140       347
35.150       320
35.160       300
35.170       247
35.180       247
35.190       227
35.200       113
35.210       240
35.220       147
35.230       133
35.240       113
35.250       107
35.260       100
35.270        53
35.280        87
35.290        53
35.300        53
35.310        33
35.320        53
35.330        27
35.340        33
35.350        60
35.360        13
35.370        27
35.380        40
35.390        33
35.400        40
35.410        13
35.420        47
35.430        60
35.440        13
35.450        33
35.460        47
35.470         7
35.480        33
35.490        13
35.500        27
35.510        20
35.520        40
35.530        40
35.540        40
35.550        47
35.560        13
35.570        33
35.580        20
35.590        40
35.600        27
35.610        53
35.620        13
35.630        33
35.640        33
35.650        27
35.660        27
35.670        40
35.680         7
35.690         7
35.700         7
35.710        33
35.720        27
35.730        33
35.740        13
35.750        53
35.760        27
35.770        20
35.780        13
35.790        40
35.800        20
35.810        13
35.820        33
35.830        20
35.840         7
35.850        53
35.860        40
35.870         7
35.880        53
35.890        40
35.900        27
35.910        33
35.920        33
35.930        13
35.940        13
35.950        27
35.960        33
35.970        27
35.980        13
35.990        40
36.000        27
36.010        27
36.020        13
36.030        13
36.040         7
36.050        20
36.060        20
36.070        47
36.080        47
36.090        33
36.100        27
36.110        40
36.120        53
36.130         7
36.140        27
36.150        27
36.160        20
36.170        40
36.180        20
36.190        40
36.200        20
36.210        33
36.220        27
36.230        27
36.240        20
36.250        33
36.260        20
36.270        40
36.280        20
36.290        27
36.300         7
36.310        27
36.320        27
36.330        20
36.340        33
36.350        40
36.360        20
36.370        40
36.380        60
36.390        40
36.400        20
36.410        13
36.420        13
36.430        20
36.440        20
36.450        33
36.460        33
36.470        20
36.480         7
36.490        13
36.500        33
36.510        40
36.520         7
36.530         7
36.540        40
36.550        20
36.560        20
36.570        33
36.580        33
36.590        33
36.600        60
36.610        27
36.620        33
36.630        40
36.640        40
36.650        13
36.660        20
36.670        13
36.680        20
36.690        60
36.700        53
36.710        20
36.720        13
36.730        40
36.740        27
36.750        27
36.760        33
36.770         7
36.780        27
36.790        47
36.800        20
36.810        20
36.820         7
36.830        27
36.840         7
36.850        40
36.860        27
36.870        13
36.880        33
36.890        47
36.900        73
36.910        47
36.920        40
36.930        60
36.940        60
36.950        47
36.960        27
36.970        80
36.980        33
36.990        33
37.000        20
37.010         7
37.020        20
37.030        47
37.040        47
37.050        33
37.060        20
37.070        20
37.080         7
37.090        27
37.100        20
37.110        13
37.120        40
37.130         7
37.140        27
37.150        47
37.160        27
37.170        27
37.180         7
37.190        33
37.200        27
37.210        27
37.220         7
37.230         7
37.240        20
37.250        33
37.260        33
37.270         7
37.280        13
37.290         7
37.300        33
37.310        27
37.320        13
37.330        20
37.340        20
37.350        20
37.360        27
37.370        27
37.380        13
37.390        13
37.400        53
37.410        20
37.420        20
37.430        13
37.440        53
37.450        20
37.460        20
37.470        33
37.480        40
37.490         7
37.500        27
37.510        27
37.520        20
37.530        20
37.540        33
37.550         7
37.560        33
37.570        20
37.580         7
37.590        13
37.600        27
37.610        80
37.620        40
37.630        53
37.640        20
37.650        47
37.660        20
37.670        40
37.680        20
37.690        47
37.700        47
37.710        80
37.720        40
37.730        67
37.740        60
37.750        67
37.760        47
37.770        60
37.780        20
37.790        53
37.800        33
37.810        53
37.820        47
37.830        20
37.840        87
37.850        53
37.860        33
37.870        47
37.880        33
37.890        40
37.900        33
37.910        27
37.920        20
37.930         7
37.940        20
37.950        20
37.960         0
37.970        13
37.980        40
37.990        13
38.000        27
38.010        13
38.020        33
38.030        13
38.040        20
38.050        47
38.060        40
38.070         0
38.080        33
38.090        60
38.100         7
38.110        20
38.120        27
38.130        13
38.140        20
38.150        27
38.160        27
38.170        27
38.180        33
38.190         7
38.200        27
38.210        27
38.220        13
38.230         7
38.240        40
38.250        33
38.260        13
38.270        20
38.280        13
38.290        20
38.300        27
38.310        13
38.320        33
38.330        20
38.340        20
38.350        27
38.360        40
38.370         7
38.380        40
38.390        27
38.400        47
38.410        27
38.420        20
38.430         7
38.440         7
38.450         7
38.460        33
38.470         7
38.480        27
38.490         7
38.500        27
38.510        13
38.520        33
38.530        27
38.540        40
38.550        20
38.560        40
38.570         7
38.580        27
38.590        27
38.600        13
38.610        20
38.620        40
38.630        33
38.640        27
38.650        40
38.660        33
38.670        27
38.680        27
38.690        13
38.700        27
38.710        20
38.720        27
38.730         0
38.740        20
38.750        33
38.760        40
38.770        27
38.780        27
38.790        40
38.800        20
38.810        33
38.820        40
38.830        40
38.840         0
38.850        27
38.860        53
38.870        40
38.880        47
38.890        33
38.900        27
38.910        27
38.920        33
38.930        53
38.940        47
38.950        20
38.960        20
38.970        20
38.980        47
38.990        33
39.000        47
39.010        27
39.020        27
39.030        33
39.040        33
39.050        27
39.060        20
39.070        13
39.080        20
39.090        27
39.100        53
39.110         7
39.120        40
39.130         7
39.140        40
39.150         7
39.160        27
39.170        20
39.180        40
39.190        20
39.200        20
39.210        20
39.220        33
39.230        20
39.240        40
39.250        27
39.260        33
39.270         0
39.280        33
39.290        13
39.300        27
39.310         7
39.320        33
39.330        47
39.340        27
39.350        33
39.360         7
39.370        27
39.380        27
39.390         7
39.400        20
39.410        33
39.420        27
39.430        33
39.440        33
39.450         7
39.460        20
39.470        20
39.480        13
39.490        33
39.500        20
39.510        47
39.520        33
39.530        33
39.540        47
39.550        13
39.560        20
39.570        47
39.580        40
39.590        67
39.600        67
39.610        67
39.620        47
39.630        60
39.640         0
39.650        33
39.660        47
39.670        33
39.680        27
39.690        53
39.700        60
39.710        47
39.720        87
39.730        33
39.740        33
39.750        53
39.760        87
39.770        60
39.780        67
39.790       113
39.800       113
39.810       100
39.820       127
39.830       120
39.840       153
39.850       100
39.860       107
39.870       127
39.880       133
39.890       193
39.900       167
39.910       280
39.920       187
39.930       280
39.940       173
39.950       200
39.960       247
39.970       253
39.980       160
39.990       160
40.000       227
40.010       233
40.020       193
40.030       280
40.040       260
40.050       180
40.060       160
40.070       180
40.080       133
40.090       160
40.100       153
40.110       127
40.120       200
40.130       207
40.140        80
40.150       107
40.160        93
40.170       113
40.180        73
40.190        73
40.200       127
40.210        67
40.220        53
40.230        47
40.240        73
40.250        93
40.260        33
40.270        47
40.280        60
40.290        73
40.300        33
40.310        33
40.320        60
40.330        13
40.340        47
40.350        40
40.360        40
40.370        40
40.380        33
40.390        27
40.400        27
40.410        73
40.420        40
40.430        20
40.440        27
40.450        27
40.460        27
40.470        20
40.480        40
40.490        20
40.500        47
40.510        27
40.520        40
40.530        20
40.540        40
40.550        20
40.560        13
40.570        27
40.580        47
40.590        33
40.600        27
40.610        33
40.620        33
40.630        13
40.640         0
40.650        40
40.660        20
40.670        20
40.680        40
40.690        13
40.700        20
40.710        67
40.720         0
40.730        13
40.740        33
40.750        33
40.760        40
40.770        13
40.780        20
40.790         0
40.800         7
40.810        40
40.820        13
40.830        27
40.840        27
40.850        13
40.860        20
40.870        20
40.880         7
40.890        33
40.900        13
40.910        13
40.920        60
40.930        33
40.940        47
40.950        13
40.960        27
40.970        20
40.980        13
40.990        20
41.000        20
41.010        20
41.020        33
41.030        13
41.040        27
41.050        53
41.060        20
41.070        33
41.080        27
41.090        47
41.100        33
41.110        13
41.120         7
41.130        53
41.140        53
41.150        20
41.160        27
41.170        27
41.180        47
41.190        47
41.200        27
41.210        33
41.220        13
41.230        33
41.240        27
41.250        20
41.260         7
41.270        47
41.280        20
41.290        20
41.300        13
41.310        20
41.320        20
41.330        67
41.340        47
41.350        40
41.360        27
41.370        40
41.380        33
41.390        40
41.400        33
41.410        40
41.420        60
41.430        40
41.440        27
41.450        40
41.460        60
41.470        67
41.480        60
41.490        80
41.500        67
41.510        40
41.520        60
41.530        40
41.540        67
41.550        87
41.560        33
41.570        93
41.580        40
41.590       107
41.600        80
41.610        93
41.620        93
41.630       127
41.640       113
41.650       113
41.660        80
41.670       140
41.680       187
41.690        87
41.700        93
41.710       133
41.720       107
41.730        73
41.740       100
41.750        80
41.760        80
41.770        53
41.780       100
41.790        80
41.800       107
41.810        40
41.820        93
41.830        87
41.840        33
41.850        73
41.860        53
41.870        40
41.880        33
41.890        47
41.900        53
41.910        13
41.920        20
41.930        33
41.940         7
41.950        20
41.960        33
41.970        27
41.980        33
41.990        33
42.000        20
42.010        40
42.020        20
42.030        40
42.040        47
42.050        13
42.060        33
42.070         7
42.080        33
42.090        27
42.100        40
42.110        20
42.120        27
42.130        40
42.140        13
42.150        40
42.160        27
42.170        40
42.180        40
42.190        40
42.200        27
42.210        13
42.220        33
42.230        33
42.240        13
42.250        13
42.260        33
42.270        33
42.280        27
42.290        27
42.300        47
42.310        53
42.320        40
42.330        33
42.340        20
42.350        27
42.360        33
42.370        20
42.380        53
42.390        67
42.400        27
42.410         0
42.420        47
42.430        13
42.440         7
42.450        20
42.460        13
42.470        20
42.480        33
42.490         0
42.500        13
42.510         7
42.520        13
42.530        27
42.540        20
42.550        47
42.560        27
42.570        20
42.580        13
42.590        20
42.600        27
42.610        27
42.620        33
42.630        40
42.640        27
42.650        40
42.660        40
42.670        33
42.680        53
42.690        20
42.700         0
42.710        27
42.720        13
42.730        27
42.740        40
42.750        20
42.760        20
42.770         7
42.780        33
42.790        33
42.800        20
42.810        47
42.820        13
42.830        33
42.840        27
42.850        20
42.860        53
42.870        33
42.880        27
42.890        47
42.900        13
42.910        40
42.920        20
42.930        33
42.940        47
42.950        53
42.960        13
42.970         7
42.980         7
42.990        33
43.000        27
43.010        73
43.020        33
43.030        40
43.040        13
43.050        40
43.060        20
43.070        13
43.080        27
43.090        40
43.100        20
43.110        20
43.120        60
43.130        27
43.140        27
43.150        40
43.160        67
43.170        47
43.180        80
43.190        20
43.200        47
43.210        27
43.220        40
43.230        80
43.240        60
43.250        33
43.260        53
43.270        73
43.280        73
43.290        93
43.300        53
43.310        87
43.320       133
43.330       173
43.340       200
43.350       160
43.360       253
43.370       213
43.380       167
43.390       167
43.400       187
43.410       167
43.420        87
43.430        87
43.440        73
43.450       140
43.460        93
43.470        93
43.480       133
43.490       127
43.500        60
43.510       100
43.520        60
43.530        53
43.540        33
43.550        33
43.560        40
43.570        20
43.580        67
43.590         7
43.600        33
43.610        53
43.620        13
43.630        53
43.640        33
43.650        13
43.660        33
43.670        27
43.680        27
43.690        40
43.700        20
43.710        27
43.720        40
43.730        33
43.740        20
43.750         7
43.760        20
43.770        40
43.780        27
43.790        20
43.800        40
43.810        67
43.820        27
43.830        53
43.840        27
43.850        27
43.860        13
43.870        40
43.880        20
43.890        27
43.900        27
43.910        20
43.920        47
43.930        27
43.940        27
43.950        67
43.960        20
43.970         7
43.980        60
43.990        60
44.000        40
44.010        20
44.020        27
44.030        27
44.040        67
44.050        20
44.060        53
44.070        40
44.080        20
44.090        40
44.100        73
44.110        33
44.120        27
44.130        20
44.140        27
44.150        33
44.160        33
44.170        47
44.180        40
44.190        20
44.200        20
44.210        27
44.220        20
44.230        20
44.240        47
44.250        13
44.260        27
44.270         7
44.280        20
44.290        40
44.300        20
44.310        33
44.320        20
44.330        27
44.340        40
44.350        33
44.360         7
44.370        47
44.380        40
44.390         7
44.400        47
44.410        47
44.420        47
44.430        27
44.440        27
44.450        47
44.460        73
44.470        20
44.480        20
44.490        40
44.500        40
44.510        40
44.520        67
44.530        67
44.540        20
44.550        13
44.560        60
44.570        20
44.580        73
44.590        67
44.600        33
44.610        27
44.620        47
44.630        47
44.640        40
44.650        60
44.660        53
44.670        53
44.680        40
44.690        53
44.700        60
44.710        33
44.720        67
44.730        40
44.740       113
44.750        60
44.760        60
44.770        67
44.780        60
44.790        60
44.800        40
44.810        60
44.820        73
44.830        47
44.840        80
44.850        73
44.860        80
44.870       107
44.880       120
44.890       100
44.900        33
44.910        73
44.920        93
44.930        73
44.940       100
44.950       107
44.960        53
44.970       107
44.980       133
44.990        73
45.000        67
45.010       100
45.020       107
45.030       113
45.040        87
45.050        87
45.060        93
45.070        93
45.080        80
45.090        73
45.100        73
45.110        53
45.120        87
45.130       120
45.140       127
45.150       120
45.160       107
45.170       140
45.180        93
45.190       120
45.200       160
45.210        93
45.220       153
45.230       107
45.240       133
45.250        93
45.260        87
45.270       140
45.280        80
45.290       100
45.300       127
45.310       133
45.320       200
45.330       140
45.340       187
45.350       127
45.360        80
45.370       193
45.380       193
45.390       180
45.400       107
45.410       213
45.420       167
45.430       160
45.440       187
45.450       200
45.460       180
45.470       207
45.480       180
45.490       247
45.500       227
45.510       240
45.520       213
45.530       213
45.540       240
45.550       260
45.560       233
45.570       260
45.580       247
45.590       267
45.600       193
45.610       260
45.620       233
45.630       387
45.640       380
45.650       313
45.660       307
45.670       280
45.680       327
45.690       333
45.700       387
45.710       407
45.720       407
45.730       493
45.740       506
45.750       526
45.760       433
45.770       600
45.780       546
45.790       480
45.800       580
45.810       640
45.820       686
45.830       746
45.840       900
45.850       846
45.860       893
45.870       820
45.880       813
45.890       993
45.900       946
45.910      1060
45.920      1246
45.930       880
45.940      1140
45.950      1326
45.960      1306
45.970      1180
45.980      1339
45.990      1573
46.000      1493
46.010      1419
46.020      1619
46.030      1719
46.040      1766
46.050      1859
46.060      2086
46.070      1899
46.080      1886
46.090      2146
46.100      2232
46.110      2446
46.120      2266
46.130      2606
46.140      2626
46.150      2892
46.160      2826
46.170      2352
46.180      2886
46.190      3185
46.200      3272
46.210      3205
46.220      3119
46.230      3292
46.240      3305
46.250      3305
46.260      3332
46.270      3472
46.280      3645
46.290      3552
46.300      3459
46.310      3425
46.320      3352
46.330      3758
46.340      3419
46.350      3525
46.360      3492
46.370      3485
46.380      3192
46.390      3659
46.400      3425
46.410      3252
46.420      3472
46.430      3499
46.440      3499
46.450      3145
46.460      3252
46.470      3045
46.480      3119
46.490      2652
46.500      2712
46.510      2466
46.520      2719
46.530      2772
46.540      2372
46.550      2486
46.560      2419
46.570      2066
46.580      2226
46.590      1926
46.600      2172
46.610      1993
46.620      1759
46.630      1986
46.640      1826
46.650      1673
46.660      1746
46.670      1386
46.680      1559
46.690      1606
46.700      1439
46.710      1446
46.720      1180
46.730      1173
46.740       973
46.750      1093
46.760      1060
46.770      1020
46.780       940
46.790       880
46.800       873
46.810       773
46.820       786
46.830       820
46.840       720
46.850       620
46.860       640
46.870       653
46.880       613
46.890       653
46.900       506
46.910       480
46.920       486
46.930       573
46.940       407
46.950       493
46.960       520
46.970       460
46.980       426
46.990       340
47.000       373
47.010       360
47.020       373
47.030       360
47.040       320
47.050       313
47.060       280
47.070       240
47.080       247
47.090       273
47.100       307
47.110       240
47.120       213
47.130       253
47.140       200
47.150       220
47.160       173
47.170       193
47.180       227
47.190       233
47.200       180
47.210       173
47.220       207
47.230       140
47.240       173
47.250       153
47.260       140
47.270       207
47.280       173
47.290       173
47.300       153
47.310       140
47.320       147
47.330       120
47.340       100
47.350       160
47.360       140
47.370       120
47.380       133
47.390       107
47.400        73
47.410       127
47.420        87
47.430       140
47.440       153
47.450       127
47.460        93
47.470       107
47.480       107
47.490       107
47.500       127
47.510       127
47.520        67
47.530        60
47.540        93
47.550        80
47.560       113
47.570       100
47.580        93
47.590        73
47.600        80
47.610       133
47.620        87
47.630       107
47.640       107
47.650       107
47.660       127
47.670        53
47.680        67
47.690       120
47.700        93
47.710        73
47.720        47
47.730        53
47.740        87
47.750        33
47.760        67
47.770        60
47.780        67
47.790        67
47.800        93
47.810        33
47.820        87
47.830        80
47.840       107
47.850        67
47.860        67
47.870        67
47.880        60
47.890        40
47.900       107
47.910        40
47.920        47
47.930        53
47.940        80
47.950        47
47.960        47
47.970        73
47.980        40
47.990        80
48.000        40
48.010        40
48.020        47
48.030        67
48.040        53
48.050        93
48.060        40
48.070        40
48.080        40
48.090        33
48.100        33
48.110        60
48.120        67
48.130        53
48.140        60
48.150        40
48.160        60
48.170        73
48.180        80
48.190        47
48.200        53
48.210        60
48.220        47
48.230        93
48.240        53
48.250        40
48.260        13
48.270        40
48.280        47
48.290        40
48.300        53
48.310        27
48.320        33
48.330       100
48.340        60
48.350        67
48.360        40
48.370        53
48.380        40
48.390        47
48.400        33
48.410        53
48.420        27
48.430        67
48.440        47
48.450        53
48.460        40
48.470        47
48.480        40
48.490        73
48.500        80
48.510        27
48.520        67
48.530        33
48.540        87
48.550        53
48.560        47
48.570        40
48.580        33
48.590        67
48.600        60
48.610        40
48.620        60
48.630        60
48.640        47
48.650        27
48.660        47
48.670        47
48.680        47
48.690        53
48.700        33
48.710        87
48.720        27
48.730        27
48.740        20
48.750        47
48.760        47
48.770        60
48.780        73
48.790        27
48.800        53
48.810        53
48.820        53
48.830        67
48.840        13
48.850        47
48.860        47
48.870        80
48.880        40
48.890        47
48.900        27
48.910        33
48.920        33
48.930        33
48.940        60
48.950        27
48.960        40
48.970        33
48.980        40
48.990        33
49.000        33
49.010        33
49.020        20
49.030        20
49.040        27
49.050        20
49.060        33
49.070        40
49.080        60
49.090        40
49.100        67
49.110        47
49.120        33
49.130        33
49.140        53
49.150        27
49.160        40
49.170        33
49.180        47
49.190        40
49.200        20
49.210        53
49.220        40
49.230        33
49.240        53
49.250        40
49.260        13
49.270        53
49.280        13
49.290        33
49.300        60
49.310        40
49.320        47
49.330        40
49.340        47
49.350        53
49.360        27
49.370        60
49.380        47
49.390        33
49.400        20
49.410        47
49.420        33
49.430        47
49.440        27
49.450        20
49.460        20
49.470        20
49.480        27
49.490        33
49.500        33
49.510        53
49.520        27
49.530        53
49.540        53
49.550        33
49.560        40
49.570         7
49.580        67
49.590        20
49.600        67
49.610         7
49.620        73
49.630        27
49.640        40
49.650        67
49.660        33
49.670        33
49.680        13
49.690        73
49.700        27
49.710        33
49.720        20
49.730        20
49.740        20
49.750        40
49.760        47
49.770        20
49.780        13
49.790        47
49.800        47
49.810        27
49.820        47
49.830        40
49.840        40
49.850        27
49.860        27
49.870        40
49.880        67
49.890        27
49.900        53
49.910        47
49.920        60
49.930        67
49.940        47
49.950        60
49.960        20
49.970        20
49.980        27
49.990         7
50.000        27
50.010        53
50.020        13
50.030        27
50.040        67
50.050        40
50.060        33
50.070         7
50.080        33
50.090        53
50.100         7
50.110        33
50.120        47
50.130        13
50.140        33
50.150        33
50.160        60
50.170        47
50.180        40
50.190        73
50.200        27
50.210         7
50.220        13
50.230         7
50.240        27
50.250        40
50.260        47
50.270        27
50.280        40
50.290        33
50.300        60
50.310        20
50.320        40
50.330        40
50.340        40
50.350        20
50.360        47
50.370        33
50.380        27
50.390        40
50.400         7
50.410        20
50.420        33
50.430        20
50.440        20
50.450        47
50.460        40
50.470        33
50.480        27
50.490        33
50.500        27
50.510        27
50.520        27
50.530        33
50.540        47
50.550        53
50.560        33
50.570        27
50.580        33
50.590        20
50.600        33
50.610        53
50.620        47
50.630        60
50.640        20
50.650        60
50.660        13
50.670        20
50.680        20
50.690        20
50.700        53
50.710        33
50.720        20
50.730        13
50.740        40
50.750        40
50.760        53
50.770        20
50.780        20
50.790         7
50.800        20
50.810        33
50.820        53
50.830        47
50.840        33
50.850        13
50.860         7
50.870         7
50.880        33
50.890        13
50.900        40
50.910        33
50.920        20
50.930         7
50.940        20
50.950        27
50.960        27
50.970        20
50.980        40
50.990        13
51.000        27
51.010        27
51.020        20
51.030        13
51.040        40
51.050        27
51.060        53
51.070        27
51.080        67
51.090        20
51.100        40
51.110        33
51.120        13
51.130        27
51.140        67
51.150        33
51.160        20
51.170        33
51.180        27
51.190        20
51.200        20
51.210        40
51.220        27
51.230        47
51.240        27
51.250         7
51.260        40
51.270        13
51.280       133
51.290        27
51.300        20
51.310        33
51.320        20
51.330        33
51.340        33
51.350        27
51.360        13
51.370        20
51.380        33
51.390        33
51.400        60
51.410        60
51.420         7
51.430        27
51.440        27
51.450        33
51.460        53
51.470        40
51.480        13
51.490        27
51.500        33
51.510        47
51.520        13
51.530        53
51.540        53
51.550        33
51.560        60
51.570         7
51.580        53
51.590        33
51.600        20
51.610        60
51.620        20
51.630        13
51.640         7
51.650        13
51.660        27
51.670        40
51.680        33
51.690        20
51.700        47
51.710        33
51.720        40
51.730        40
51.740         0
51.750        27
51.760        33
51.770        47
51.780        40
51.790        47
51.800        40
51.810        33
51.820        13
51.830         0
51.840        67
51.850        20
51.860        20
51.870        33
51.880        40
51.890        33
51.900        27
51.910        27
51.920         7
51.930        40
51.940        20
51.950        20
51.960        60
51.970        27
51.980        27
51.990        13
52.000        40
52.010         7
52.020        13
52.030        33
52.040        27
52.050         0
52.060        27
52.070        13
52.080        33
52.090        20
52.100        27
52.110        20
52.120        47
52.130        13
52.140        27
52.150        40
52.160        27
52.170        27
52.180        20
52.190        13
52.200        20
52.210        33
52.220        27
52.230         7
52.240        60
52.250        20
52.260        47
52.270        13
52.280        27
52.290        20
52.300        27
52.310        47
52.320        13
52.330        47
52.340        27
52.350        73
52.360        13
52.370        20
52.380        33
52.390        20
52.400        47
52.410        20
52.420        27
52.430        40
52.440        47
52.450        33
52.460        53
52.470        40
52.480        20
52.490        33
52.500        47
52.510        20
52.520        80
52.530        67
52.540        40
52.550        47
52.560        73
52.570       100
52.580       120
52.590        73
52.600        87
52.610        53
52.620        60
52.630        80
52.640        87
52.650        87
52.660        67
52.670        53
52.680        53
52.690        67
52.700        47
52.710        33
52.720        47
52.730        80
52.740       113
52.750        73
52.760        53
52.770        47
52.780        33
52.790        60
52.800        27
52.810        33
52.820        20
52.830        20
52.840        53
52.850        53
52.860        27
52.870        13
52.880        20
52.890        27
52.900        27
52.910        27
52.920        13
52.930        27
52.940        13
52.950        27
52.960        20
52.970        47
52.980        27
52.990         7
53.000         0
53.010         7
53.020        33
53.030        33
53.040         7
53.050        27
53.060        20
53.070         7
53.080        13
53.090         0
53.100        33
53.110        13
53.120        27
53.130        13
53.140        27
53.150         7
53.160        33
53.170        27
53.180        13
53.190         7
53.200        53
53.210         7
53.220        27
53.230        33
53.240        20
53.250        27
53.260        27
53.270        33
53.280        20
53.290        47
53.300        27
53.310        27
53.320        40
53.330        27
53.340        13
53.350        20
53.360         7
53.370        47
53.380        40
53.390        27
53.400        20
53.410         7
53.420        13
53.430         7
53.440        20
53.450        40
53.460        27
53.470        27
53.480        47
53.490        20
53.500        13
53.510        40
53.520        40
53.530        33
53.540        20
53.550        27
53.560        20
53.570        20
53.580        20
53.590        20
53.600        40
53.610        20
53.620        20
53.630         7
53.640        27
53.650        33
53.660        33
53.670        13
53.680        20
53.690        27
53.700        27
53.710        13
53.720        53
53.730        33
53.740        27
53.750        20
53.760        13
53.770        47
53.780        13
53.790        20
53.800        27
53.810        13
53.820        20
53.830        27
53.840        27
53.850        33
53.860        13
53.870         7
53.880        27
53.890        13
53.900        13
53.910        33
53.920        13
53.930        33
53.940        20
53.950        20
53.960        27
53.970        13
53.980        20
53.990        13
54.000        27
54.010        33
54.020        13
54.030        27
54.040        20
54.050        33
54.060        33
54.070        27
54.080        20
54.090        20
54.100        20
54.110        33
54.120        27
54.130        27
54.140        60
54.150        20
54.160        40
54.170        13
54.180        40
54.190        33
54.200        13
54.210        27
54.220        13
54.230        27
54.240        33
54.250        27
54.260         7
54.270         7
54.280         7
54.290        40
54.300        27
54.310        13
54.320         7
54.330        33
54.340        40
54.350        20
54.360        13
54.370        33
54.380        13
54.390        27
54.400        40
54.410        13
54.420        27
54.430        27
54.440        13
54.450        27
54.460         7
54.470        33
54.480        13
54.490        40
54.500        27
54.510        33
54.520         7
54.530        40
54.540        33
54.550        33
54.560        33
54.570        27
54.580        20
54.590        40
54.600        13
54.610         7
54.620        20
54.630        33
54.640        27
54.650        13
54.660        27
54.670        47
54.680        27
54.690        13
54.700        40
54.710        20
54.720         7
54.730        40
54.740        13
54.750        20
54.760        13
54.770        27
54.780        20
54.790        33
54.800        33
54.810        27
54.820        33
54.830         7
54.840        20
54.850        40
54.860        40
54.870        27
54.880        13
54.890        20
54.900        20
54.910        13
54.920        33
54.930        13
54.940        20
54.950         7
54.960        47
54.970        40
54.980        13
54.990        20
55.000        20
55.010        40
55.020        27
55.030         7
55.040        13
55.050        40
55.060        20
55.070        13
55.080        27
55.090        20
55.100        33
55.110        33
55.120        47
55.130        13
55.140        33
55.150        27
55.160        53
55.170        53
55.180        13
55.190        13
55.200        40
55.210         7
55.220        40
55.230        13
55.240         0
55.250        27
55.260        20
55.270        27
55.280        13
55.290         0
55.300        27
55.310        33
55.320        73
55.330         7
55.340         7
55.350         7
55.360        33
55.370        27
55.380        27
55.390        27
55.400        27
55.410        33
55.420        20
55.430        20
55.440        13
55.450        20
55.460        27
55.470        33
55.480        20
55.490        13
55.500        13
55.510        20
55.520        27
55.530        33
55.540        33
55.550        13
55.560         7
55.570         0
55.580        27
55.590        20
55.600        33
55.610        60
55.620        20
55.630        20
55.640        20
55.650        20
55.660        40
55.670         7
55.680        13
55.690         7
55.700        13
55.710         7
55.720        20
55.730        13
55.740        20
55.750        13
55.760        20
55.770        33
55.780        13
55.790        40
55.800        33
55.810         0
55.820        13
55.830         7
55.840        13
55.850        47
55.860         0
55.870         7
55.880        13
55.890        20
55.900        47
55.910        33
55.920        13
55.930        13
55.940        27
55.950         7
55.960        40
55.970        20
55.980         0
55.990        20
56.000        20
56.010        33
56.020        13
56.030        27
56.040        20
56.050        27
56.060        20
56.070         0
56.080         7
56.090        33
56.100        40
56.110        13
56.120        33
56.130        13
56.140        33
56.150        33
56.160        27
56.170        33
56.180        20
56.190        27
56.200        13
56.210        20
56.220        27
56.230        20
56.240        13
56.250        27
56.260        40
56.270        13
56.280         7
56.290        27
56.300         7
56.310        27
56.320        13
56.330        20
56.340         7
56.350        53
56.360        40
56.370         7
56.380        13
56.390        20
56.400        20
56.410        27
56.420        13
56.430        27
56.440        20
56.450         0
56.460        13
56.470        27
56.480        13
56.490        13
56.500         7
56.510        20
56.520        13
56.530        27
56.540        33
56.550        13
56.560        33
56.570        20
56.580         7
56.590        33
56.600        27
56.610        13
56.620        20
56.630        20
56.640         7
56.650        13
56.660        20
56.670        13
56.680        20
56.690        13
56.700        13
56.710        53
56.720        13
56.730        20
56.740         7
56.750        27
56.760         7
56.770        40
56.780        27
56.790        27
56.800        13
56.810        40
56.820        20
56.830        13
56.840        20
56.850        13
56.860        33
56.870        53
56.880         7
56.890        20
56.900         7
56.910        47
56.920        13
56.930         7
56.940         0
56.950        20
56.960        60
56.970        20
56.980        27
56.990        13
57.000        33
57.010        13
57.020        33
57.030        20
57.040        40
57.050        40
57.060         7
57.070        13
57.080        13
57.090        33
57.100        13
57.110         0
57.120        13
57.130        33
57.140        13
57.150        20
57.160        27
57.170         7
57.180        27
57.190        27
57.200        13
57.210        27
57.220         0
57.230        27
57.240        13
57.250        33
57.260         7
57.270        60
57.280        20
57.290        27
57.300         0
57.310        47
57.320        27
57.330        20
57.340        40
57.350        40
57.360        53
57.370        73
57.380        60
57.390        40
57.400        53
57.410        67
57.420        47
57.430        67
57.440        80
57.450        80
57.460       100
57.470       147
57.480       127
57.490       240
57.500       293
57.510       353
57.520       280
57.530       307
57.540       207
57.550       247
57.560       253
57.570       193
57.580       173
57.590       213
57.600       133
57.610       120
57.620       113
57.630       113
57.640       107
57.650       160
57.660       167
57.670       147
57.680       180
57.690       180
57.700       160
57.710       140
57.720       127
57.730       127
57.740       107
57.750        60
57.760        87
57.770        53
57.780        47
57.790        40
57.800        40
57.810        33
57.820         7
57.830        67
57.840        53
57.850        53
57.860        53
57.870        33
57.880        13
57.890        40
57.900        33
57.910        40
57.920        53
57.930        33
57.940        33
57.950        40
57.960        60
57.970        40
57.980        60
57.990        27
58.000        27
58.010         7
58.020        47
58.030        40
58.040        33
58.050         7
58.060        13
58.070        33
58.080        27
58.090        47
58.100        27
58.110        40
58.120        27
58.130         7
58.140         7
58.150        40
58.160        33
58.170        27
58.180        13
58.190        40
58.200        40
58.210        27
58.220        20
58.230        27
58.240        20
58.250         7
58.260        33
58.270        33
58.280        20
58.290        47
58.300        13
58.310        20
58.320        20
58.330        20
58.340         7
58.350         7
58.360        27
58.370        27
58.380        20
58.390        33
58.400        27
58.410        20
58.420        13
58.430        20
58.440        13
58.450        20
58.460        20
58.470         7
58.480        13
58.490         7
58.500         7
58.510        27
58.520         7
58.530         7
58.540        13
58.550        27
58.560        27
58.570         7
58.580        20
58.590         7
58.600        40
58.610         7
58.620        20
58.630         7
58.640        40
58.650        20
58.660        13
58.670        20
58.680         7
58.690        40
58.700        20
58.710        13
58.720        13
58.730        33
58.740         7
58.750        13
58.760        33
58.770        20
58.780        20
58.790        27
58.800         7
58.810        13
58.820        33
58.830        13
58.840        20
58.850        20
58.860         7
58.870        27
58.880         7
58.890        20
58.900        20
58.910        27
58.920        20
58.930        20
58.940        13
58.950        13
58.960        33
58.970        13
58.980        20
58.990        27
59.000        33
59.010         0
59.020        27
59.030        13
59.040        27
59.050        27
59.060         7
59.070        33
59.080        13
59.090        20
59.100        20
59.110        13
59.120        13
59.130        20
59.140        13
59.150        13
59.160         7
59.170        20
59.180        27
59.190        27
59.200         0
59.210        13
59.220         7
59.230        13
59.240        27
59.250        13
59.260         7
59.270        13
59.280        13
59.290        20
59.300         7
59.310        27
59.320        13
59.330        27
59.340        20
59.350         7
59.360        13
59.370        20
59.380        13
59.390        27
59.400         7
59.410         7
59.420        33
59.430        13
59.440        20
59.450        27
59.460        13
59.470        20
59.480        13
59.490        27
59.500        40
59.510        40
59.520        40
59.530        33
59.540        20
59.550        13
59.560        20
59.570        13
59.580         7
59.590        20
59.600        27
59.610        27
59.620        27
59.630        27
59.640        27
59.650         7
59.660        27
59.670        13
59.680         7
59.690        20
59.700        93
59.710        27
59.720        13
59.730        20
59.740        40
59.750         7
59.760         7
59.770        20
59.780        27
59.790        20
59.800        13
59.810        27
59.820        27
59.830        27
59.840        47
59.850        33
59.860        13
59.870        13
59.880        33
59.890        20
59.900        20
59.910        13
59.920        33
59.930        20
59.940        40
59.950        40
59.960        27
59.970        33
59.980         7
59.990         7
60.000         7
