20.000        33
20.010        60
20.020        33
20.030        67
20.040        53
20.050        33
20.060        47
20.070        27
20.080        33
20.090        33
20.100        73
20.110        33
20.120        47
20.130         7
20.140        20
20.150        40
20.160        67
20.170        87
20.180        33
20.190        33
20.200        53
20.210        60
20.220        33
20.230        53
20.240         7
20.250        80
20.260        47
20.270        67
20.280        27
20.290        47
20.300        60
20.310        40
20.320        27
20.330        47
20.340        40
20.350        47
20.360        53
20.370        40
20.380        27
20.390        27
20.400        40
20.410        13
20.420        27
20.430        40
20.440        60
20.450        47
20.460        20
20.470        27
20.480        33
20.490        53
20.500        73
20.510        73
20.520        27
20.530        60
20.540        67
20.550        60
20.560        27
20.570        33
20.580         7
20.590        67
20.600        40
20.610        53
20.620        20
20.630        47
20.640        20
20.650        27
20.660        40
20.670        33
20.680        33
20.690        27
20.700        33
20.710        27
20.720        27
20.730        40
20.740        40
20.750        13
20.760        53
20.770        47
20.780        60
20.790        47
20.800        13
20.810        27
20.820        53
20.830        33
20.840        53
20.850        40
20.860        20
20.870        13
20.880        40
20.890        40
20.900        20
20.910        20
20.920        33
20.930        13
20.940        20
20.950        87
20.960        53
20.970        33
20.980        60
20.990        60
21.000        13
21.010        40
21.020        60
21.030        67
21.040        13
21.050        33
21.060        47
21.070        40
21.080        20
21.090        40
21.100        67
21.110        20
21.120        27
21.130         0
21.140        27
21.150        40
21.160        20
21.170        47
21.180        27
21.190        20
21.200        20
21.210        47
21.220        33
21.230        33
21.240        13
21.250        33
21.260        53
21.270        27
21.280       100
21.290        27
21.300        13
21.310        20
21.320        27
21.330        20
21.340        33
21.350        47
21.360        20
21.370        20
21.380        20
21.390        20
21.400        13
21.410        47
21.420        40
21.430        47
21.440        53
21.450        27
21.460        27
21.470        13
21.480        33
21.490        47
21.500        20
21.510        40
21.520        73
21.530        53
21.540        60
21.550        53
21.560        27
21.570        13
21.580         7
21.590        60
21.600        40
21.610        20
21.620        60
21.630        67
21.640        20
21.650        13
21.660        40
21.670        20
21.680        60
21.690        13
21.700        40
21.710         7
21.720        20
21.730        27
21.740        40
21.750        40
21.760        33
21.770        27
21.780        20
21.790        33
21.800        13
21.810        53
21.820        13
21.830        67
21.840        27
21.850        40
21.860        20
21.870        47
21.880        47
21.890        27
21.900        40
21.910        20
21.920        27
21.930        60
21.940        40
21.950        40
21.960        33
21.970        67
21.980        13
21.990        60
22.000        40
22.010        27
22.020        40
22.030        53
22.040        40
22.050        47
22.060        40
22.070        33
22.080        33
22.090        47
22.100        53
22.110        53
22.120        33
22.130        53
22.140        27
22.150        20
22.160        13
22.170        60
22.180        33
22.190        13
22.200        33
22.210        20
22.220        27
22.230        27
22.240        27
22.250        27
22.260        27
22.270        27
22.280        67
22.290        53
22.300        33
22.310        27
22.320        27
22.330        60
22.340        13
22.350        40
22.360        13
22.370        40
22.380        27
22.390        60
22.400        47
22.410        67
22.420        27
22.430        33
22.440        40
22.450        60
22.460        27
22.470        33
22.480        60
22.490        27
22.500        40
22.510        67
22.520        60
22.530        27
22.540        13
22.550        53
22.560        40
22.570        47
22.580        47
22.590        27
22.600        73
22.610        60
22.620        53
22.630        80
22.640        73
22.650       113
22.660       107
22.670        67
22.680        60
22.690        60
22.700        80
22.710        73
22.720        60
22.730        60
22.740        93
22.750        67
22.760        40
22.770        73
22.780        87
22.790        53
22.800        53
22.810        40
22.820        33
22.830        60
22.840        47
22.850        47
22.860        27
22.870        27
22.880        60
22.890        20
22.900        53
22.910        27
22.920        20
22.930        33
22.940        33
22.950        73
22.960        27
22.970        13
22.980        20
22.990        33
23.000        47
23.010        27
23.020        47
23.030        13
23.040        33
23.050         7
23.060        20
23.070        13
23.080        20
23.090        67
23.100        13
23.110        40
23.120        33
23.130        27
23.140        20
23.150        47
23.160        60
23.170        27
23.180        47
23.190        47
23.200        33
23.210        47
23.220        33
23.230        40
23.240        53
23.250        33
23.260        33
23.270        40
23.280        73
23.290        13
23.300        27
23.310        27
23.320        27
23.330        27
23.340        40
23.350        40
23.360        20
23.370         0
23.380        40
23.390        40
23.400         7
23.410        33
23.420        40
23.430         7
23.440        40
23.450        40
23.460        27
23.470        47
23.480        33
23.490        27
23.500         7
23.510        67
23.520        40
23.530        33
23.540         7
23.550        67
23.560        47
23.570        20
23.580        27
23.590        13
23.600        47
23.610        53
23.620        47
23.630        47
23.640        27
23.650        53
23.660        60
23.670        20
23.680        27
23.690        27
23.700        27
23.710        47
23.720        40
23.730        47
23.740        20
23.750        20
23.760        40
23.770        33
23.780        40
23.790        47
23.800        33
23.810        40
23.820        53
23.830        20
23.840        47
23.850        47
23.860        27
23.870        60
23.880        13
23.890        40
23.900        27
23.910        40
23.920        40
23.930        33
23.940        53
23.950        53
23.960        40
23.970        20
23.980        27
23.990        80
24.000        20
24.010        20
24.020        40
24.030        27
24.040        53
24.050        33
24.060        20
24.070        27
24.080        13
24.090        13
24.100        47
24.110        67
24.120        53
24.130        33
24.140        73
24.150        47
24.160        27
24.170         7
24.180         7
24.190        20
24.200        13
24.210        20
24.220        33
24.230        40
24.240        47
24.250        20
24.260        13
24.270         7
24.280        20
24.290        40
24.300        27
24.310        27
24.320        27
24.330        20
24.340        53
24.350        13
24.360        47
24.370        13
24.380         7
24.390        47
24.400        27
24.410        13
24.420        20
24.430        40
24.440        33
24.450        60
24.460        47
24.470        20
24.480        67
24.490        53
24.500        33
24.510        20
24.520        33
24.530        80
24.540        20
24.550        33
24.560        47
24.570        27
24.580        47
24.590        27
24.600        13
24.610        27
24.620        27
24.630        47
24.640        20
24.650        47
24.660        27
24.670        67
24.680        27
24.690        33
24.700        27
24.710        73
24.720        27
24.730        33
24.740        40
24.750        67
24.760        27
24.770        53
24.780        40
24.790        47
24.800        40
24.810        47
24.820        40
24.830        13
24.840         0
24.850        33
24.860        13
24.870        33
24.880        47
24.890        40
24.900        47
24.910        40
24.920        20
24.930        47
24.940        20
24.950        53
24.960        13
24.970        20
24.980        73
24.990        20
25.000        33
25.010        13
25.020        40
25.030        20
25.040        27
25.050        40
25.060        47
25.070        33
25.080        27
25.090        40
25.100        40
25.110         7
25.120        27
25.130        33
25.140        27
25.150        60
25.160        40
25.170        13
25.180        33
25.190        27
25.200        20
25.210        33
25.220        20
25.230        60
25.240        20
25.250        27
25.260        13
25.270        33
25.280        47
25.290        13
25.300        20
25.310        27
25.320        20
25.330        27
25.340         0
25.350        47
25.360        33
25.370        13
25.380        53
25.390        40
25.400        13
25.410        27
25.420        27
25.430        40
25.440        53
25.450        60
25.460        67
25.470        33
25.480        33
25.490        67
25.500        40
25.510        73
25.520        53
25.530        53
25.540        47
25.550        40
25.560       107
25.570        60
25.580        87
25.590        87
25.600       127
25.610       100
25.620       100
25.630        80
25.640        53
25.650        67
25.660        73
25.670        93
25.680        47
25.690        67
25.700        27
25.710        47
25.720        13
25.730        13
25.740        40
25.750        33
25.760        53
25.770        20
25.780        53
25.790        33
25.800        27
25.810        40
25.820        27
25.830        40
25.840        60
25.850        20
25.860        47
25.870        20
25.880        13
25.890        20
25.900        13
25.910        40
25.920        13
25.930        20
25.940        40
25.950        40
25.960         7
25.970        20
25.980        33
25.990        20
26.000        40
26.010        13
26.020        20
26.030        53
26.040        40
26.050        20
26.060         0
26.070        20
26.080        27
26.090        40
26.100        33
26.110        13
26.120        20
26.130        27
26.140         0
26.150        20
26.160        20
26.170        33
26.180        93
26.190        40
26.200        40
26.210        47
26.220        33
26.230         7
26.240         7
26.250        27
26.260        47
26.270        53
26.280        13
26.290        13
26.300        20
26.310         0
26.320        20
26.330        20
26.340        47
26.350        60
26.360        33
26.370        20
26.380        40
26.390        13
26.400        13
26.410        33
26.420        13
26.430        33
26.440        20
26.450        20
26.460        13
26.470        20
26.480        40
26.490         7
26.500        27
26.510        33
26.520        27
26.530        33
26.540         7
26.550        13
26.560        27
26.570        27
26.580        13
26.590        33
26.600        33
26.610        13
26.620        27
26.630        27
26.640        33
26.650        20
26.660        27
26.670        27
26.680        13
26.690        47
26.700        27
26.710        27
26.720        20
26.730        40
26.740        27
26.750        20
26.760        27
26.770        33
26.780        40
26.790        20
26.800        53
26.810        33
26.820        33
26.830        33
26.840        20
26.850        33
26.860        20
26.870        20
26.880         7
26.890        33
26.900        33
26.910        27
26.920        47
26.930        13
26.940        60
26.950        33
26.960        20
26.970        40
26.980        33
26.990        27
27.000        13
27.010        60
27.020        33
27.030         7
27.040        40
27.050        13
27.060        40
27.070        33
27.080        27
27.090        13
27.100        27
27.110        27
27.120        20
27.130        47
27.140        13
27.150        27
27.160        40
27.170        33
27.180        40
27.190        27
27.200        27
27.210        27
27.220        20
27.230        20
27.240        20
27.250         7
27.260        40
27.270        13
27.280        40
27.290        40
27.300        40
27.310        40
27.320        13
27.330        20
27.340         7
27.350        27
27.360        20
27.370        33
27.380        40
27.390        40
27.400        33
27.410        33
27.420        33
27.430        13
27.440        27
27.450        13
27.460        13
27.470        27
27.480         7
27.490        20
27.500        27
27.510        40
27.520        27
27.530        13
27.540        40
27.550        33
27.560        53
27.570        20
27.580        67
27.590        27
27.600         7
27.610        20
27.620        27
27.630        27
27.640        20
27.650        33
27.660        33
27.670        27
27.680        40
27.690        47
27.700        47
27.710        40
27.720        53
27.730        33
27.740        53
27.750        33
27.760        80
27.770        40
27.780        60
27.790        60
27.800        40
27.810        27
27.820        27
27.830        40
27.840        67
27.850        27
27.860        67
27.870        27
27.880        47
27.890         7
27.900        20
27.910        67
27.920        20
27.930        20
27.940        20
27.950        20
27.960        33
27.970        60
27.980        33
27.990        47
28.000        13
28.010        20
28.020        60
28.030        27
28.040        40
28.050        13
28.060        20
28.070        27
28.080        20
28.090        20
28.100        20
28.110        33
28.120        20
28.130        20
28.140        40
28.150        27
28.160        13
28.170        33
28.180        33
28.190        40
28.200        40
28.210        53
28.220        33
28.230        20
28.240        40
28.250         7
28.260         7
28.270        13
28.280        20
28.290        20
28.300        20
28.310        20
28.320        20
28.330        27
28.340        27
28.350        27
28.360        27
28.370        20
28.380        53
28.390        33
28.400        40
28.410        40
28.420        13
28.430        13
28.440        20
28.450        27
28.460         7
28.470        20
28.480        27
28.490         7
28.500        33
28.510        20
28.520        47
28.530        27
28.540        20
28.550        33
28.560        20
28.570        27
28.580        13
28.590        40
28.600         7
28.610        53
28.620        60
28.630        20
28.640        20
28.650        40
28.660        33
28.670        33
28.680        27
28.690        20
28.700        27
28.710        33
28.720        27
28.730        33
28.740        13
28.750        33
28.760        27
28.770        27
28.780        20
28.790        33
28.800        40
28.810        47
28.820        13
28.830        13
28.840         0
28.850         7
28.860        33
28.870        27
28.880        40
28.890        27
28.900        33
28.910        27
28.920        60
28.930        20
28.940        40
28.950         7
28.960        27
28.970        13
28.980        20
28.990        33
29.000        27
29.010        20
29.020        27
29.030        13
29.040        53
29.050        40
29.060        27
29.070        27
29.080        20
29.090        27
29.100         7
29.110        20
29.120        27
29.130        27
29.140         7
29.150        13
29.160        40
29.170        33
29.180        13
29.190        33
29.200        27
29.210        13
29.220        53
29.230         7
29.240        40
29.250        40
29.260         7
29.270        47
29.280        33
29.290        20
29.300        40
29.310        33
29.320        47
29.330        13
29.340        27
29.350        33
29.360        20
29.370        20
29.380        33
29.390        20
29.400        40
29.410        20
29.420        20
29.430        33
29.440        20
29.450        20
29.460        13
29.470        40
29.480        33
29.490        53
29.500        40
29.510        47
29.520        20
29.530        53
29.540        53
29.550        20
29.560         0
29.570        27
29.580        27
29.590        40
29.600        33
29.610        20
29.620        33
29.630        20
29.640        13
29.650        20
29.660        40
29.670        20
29.680         7
29.690        20
29.700        27
29.710        33
29.720        13
29.730        20
29.740        20
29.750        13
29.760        13
29.770        33
29.780        47
29.790        53
29.800        40
29.810        13
29.820         7
29.830        20
29.840        20
29.850         7
29.860        47
29.870        27
29.880        40
29.890        20
29.900         7
29.910        20
29.920        13
29.930         7
29.940         7
29.950        20
29.960        20
29.970        13
29.980        13
29.990        13
30.000        13
30.010        47
30.020        47
30.030        13
30.040        13
30.050        20
30.060        27
30.070        13
30.080        27
30.090         0
30.100        20
30.110        60
30.120        33
30.130        27
30.140        27
30.150        27
30.160         7
30.170        20
30.180        60
30.190        27
30.200        47
30.210        27
30.220        40
30.230        13
30.240        27
30.250        13
30.260        20
30.270        47
30.280        33
30.290        27
30.300        13
30.310        27
30.320        13
30.330         7
30.340        20
30.350        20
30.360        20
30.370        13
30.380         7
30.390        47
30.400        40
30.410         7
30.420        20
30.430         7
30.440        27
30.450        27
30.460        47
30.470         0
30.480        73
30.490        13
30.500        27
30.510        53
30.520        40
30.530        27
30.540        27
30.550        27
30.560        67
30.570        27
30.580        40
30.590        33
30.600        40
30.610         7
30.620        33
30.630        13
30.640        53
30.650         7
30.660        20
30.670        13
30.680        27
30.690        40
30.700        40
30.710        27
30.720        13
30.730        33
30.740        20
30.750         7
30.760        20
30.770         7
30.780        27
30.790        27
30.800        27
30.810         7
30.820        33
30.830        33
30.840        33
30.850        33
30.860        33
30.870        33
30.880        27
30.890         7
30.900        20
30.910        13
30.920        27
30.930         7
30.940        27
30.950        40
30.960        27
30.970        27
30.980        13
30.990        27
31.000        47
31.010        13
31.020        13
31.030        33
31.040        27
31.050        13
31.060        40
31.070        60
31.080        27
31.090        33
31.100         7
31.110        40
31.120        20
31.130        13
31.140        33
31.150         0
31.160         7
31.170        47
31.180         0
31.190        20
31.200        27
31.210        27
31.220         7
31.230        27
31.240         0
31.250         7
31.260        13
31.270         0
31.280        13
31.290        13
31.300        13
31.310        20
31.320        20
31.330         7
31.340        13
31.350        27
31.360        20
31.370        33
31.380        20
31.390         7
31.400        20
31.410        13
31.420        47
31.430        20
31.440         7
31.450        27
31.460        20
31.470        33
31.480        40
31.490        13
31.500        27
31.510        47
31.520        20
31.530        33
31.540        33
31.550        40
31.560         7
31.570        20
31.580        27
31.590        20
31.600        47
31.610        27
31.620         7
31.630        20
31.640        40
31.650        33
31.660        20
31.670        33
31.680        13
31.690        27
31.700        20
31.710        20
31.720        27
31.730        27
31.740        20
31.750        20
31.760        27
31.770        13
31.780        20
31.790        27
31.800         7
31.810        33
31.820        13
31.830        40
31.840        13
31.850        20
31.860        13
31.870        33
31.880        27
31.890        20
31.900        27
31.910        20
31.920         7
31.930        13
31.940        13
31.950        27
31.960        67
31.970        27
31.980        20
31.990        27
32.000        13
32.010        27
32.020        67
32.030        27
32.040        53
32.050        13
32.060        33
32.070        20
32.080        60
32.090        73
32.100        33
32.110        73
32.120        67
32.130        47
32.140        47
32.150        27
32.160        40
32.170        47
32.180        40
32.190        40
32.200        27
32.210        20
32.220        20
32.230        33
32.240        27
32.250        47
32.260        47
32.270        67
32.280        60
32.290        27
32.300        33
32.310        13
32.320         7
32.330        13
32.340        33
32.350        27
32.360         7
32.370        33
32.380        20
32.390        40
32.400        40
32.410        13
32.420        20
32.430        13
32.440        20
32.450        20
32.460        33
32.470        27
32.480         7
32.490        13
32.500        27
32.510        20
32.520        27
32.530        27
32.540        27
32.550        33
32.560        33
32.570         7
32.580         0
32.590        13
32.600        13
32.610        13
32.620         7
32.630         7
32.640        13
32.650        13
32.660        40
32.670        27
32.680        20
32.690        27
32.700        33
32.710         7
32.720        33
32.730        20
32.740        13
32.750        33
32.760        13
32.770         0
32.780         0
32.790         7
32.800        40
32.810        27
32.820        33
32.830        20
32.840        20
32.850         7
32.860        13
32.870        20
32.880        27
32.890        27
32.900         0
32.910        13
32.920        20
32.930        47
32.940         7
32.950        20
32.960        33
32.970        27
32.980        33
32.990        20
33.000        27
33.010         7
33.020         7
33.030        13
33.040        27
33.050        27
33.060        73
33.070        13
33.080        27
33.090        27
33.100        13
33.110        33
33.120        20
33.130         7
33.140         7
33.150         7
33.160        33
33.170         7
33.180        13
33.190        33
33.200        53
33.210        33
33.220        20
33.230        27
33.240        20
33.250        40
33.260         7
33.270        27
33.280        47
33.290        20
33.300        13
33.310        20
33.320        20
33.330         7
33.340        13
33.350        20
33.360        33
33.370        20
33.380         0
33.390        20
33.400         0
33.410        33
33.420        20
33.430        13
33.440        13
33.450        13
33.460        40
33.470        33
33.480        13
33.490         7
33.500        27
33.510         0
33.520        27
33.530        20
33.540        20
33.550        20
33.560         7
33.570        13
33.580        13
33.590        13
33.600        27
33.610         7
33.620        27
33.630         7
33.640        13
33.650        13
33.660        40
33.670        27
33.680        20
33.690        20
33.700        13
33.710        13
33.720        40
33.730        33
33.740        27
33.750        33
33.760        27
33.770        40
33.780         7
33.790        13
33.800        27
33.810        33
33.820        13
33.830         7
33.840         7
33.850        20
33.860        13
33.870         7
33.880        20
33.890        27
33.900        13
33.910        27
33.920        40
33.930         7
33.940        20
33.950        33
33.960        20
33.970         7
33.980        40
33.990        20
34.000        20
34.010        20
34.020        20
34.030        20
34.040        60
34.050        20
34.060        27
34.070        27
34.080        27
34.090        20
34.100        13
34.110         7
34.120        27
34.130        13
34.140        27
34.150        27
34.160        33
34.170        27
34.180        27
34.190        13
34.200        27
34.210        13
34.220        20
34.230        33
34.240         0
34.250        20
34.260        20
34.270        20
34.280         7
34.290         7
34.300        13
34.310        40
34.320        20
34.330        13
34.340         7
34.350        27
34.360        33
34.370         7
34.380        27
34.390        40
34.400         7
34.410        13
34.420         7
34.430        40
34.440        27
34.450        13
34.460         7
34.470        20
34.480        20
34.490        47
34.500        13
34.510        60
34.520        33
34.530        40
34.540        33
34.550        33
34.560        13
34.570        47
34.580        27
34.590        40
34.600        73
34.610        27
34.620        20
34.630        33
34.640        33
34.650        40
34.660        33
34.670        20
34.680        13
34.690        20
34.700         7
34.710        60
34.720        20
34.730        27
34.740        53
34.750        20
34.760        20
34.770        27
34.780        27
34.790         7
34.800         7
34.810         7
34.820        27
34.830        13
34.840        13
34.850        13
34.860        20
34.870        27
34.880        27
34.890        13
34.900        67
34.910        27
34.920        53
34.930        40
34.940        20
34.950        33
34.960        40
34.970        27
34.980        60
34.990        40
35.000        80
35.010        60
35.020        33
35.030        67
35.040        67
35.050        87
35.060        93
35.070       113
35.080       153
35.090       167
35.100       327
35.110       426
35.120       300
35.130       420
35.140       513
35.150       420
35.160       426
35.170       413
35.180       486
35.190       287
35.200       247
35.210       333
35.220       307
35.230       260
35.240       193
35.250       227
35.260       167
35.270       173
35.280       100
35.290       100
35.300        53
35.310        67
35.320        47
35.330        60
35.340        47
35.350        73
35.360        33
35.370        40
35.380        47
35.390        53
35.400         7
35.410        27
35.420        27
35.430        47
35.440        33
35.450        47
35.460        13
35.470        33
35.480        13
35.490         7
35.500        27
35.510        20
35.520        27
35.530         7
35.540        27
35.550        13
35.560        33
35.570        20
35.580         7
35.590        13
35.600         0
35.610        33
35.620        27
35.630        20
35.640        27
35.650        27
35.660        20
35.670        20
35.680         7
35.690        20
35.700         0
35.710        20
35.720         7
35.730        20
35.740        27
35.750        13
35.760        20
35.770        20
35.780        20
35.790        13
35.800        27
35.810        13
35.820         7
35.830        13
35.840         7
35.850         7
35.860        20
35.870        20
35.880        33
35.890        27
35.900        40
35.910        20
35.920        20
35.930         0
35.940        27
35.950        20
35.960        47
35.970         0
35.980        33
35.990         7
36.000        20
36.010        27
36.020        27
36.030        13
36.040        13
36.050         0
36.060        20
36.070        20
36.080        33
36.090        20
36.100         7
36.110        20
36.120        40
36.130        20
36.140        27
36.150         7
36.160         0
36.170        40
36.180         0
36.190        13
36.200        27
36.210        33
36.220        20
36.230        20
36.240         7
36.250        33
36.260         7
36.270        20
36.280        27
36.290         0
36.300        33
36.310        13
36.320         7
36.330        20
36.340        27
36.350        33
36.360        13
36.370        20
36.380        27
36.390        20
36.400        20
36.410        33
36.420        33
36.430        27
36.440        13
36.450        13
36.460         7
36.470        20
36.480        60
36.490         7
36.500        27
36.510         0
36.520        27
36.530         0
36.540        20
36.550         7
36.560         7
36.570        13
36.580        20
36.590        13
36.600        20
36.610         0
36.620        27
36.630         7
36.640        27
36.650         7
36.660         7
36.670        13
36.680         0
36.690        20
36.700        27
36.710        20
36.720         7
36.730        13
36.740        47
36.750        33
36.760        20
36.770        20
36.780        13
36.790        27
36.800        20
36.810        47
36.820        27
36.830        13
36.840        27
36.850        27
36.860        33
36.870        60
36.880        53
36.890        40
36.900        33
36.910        27
36.920        53
36.930        73
36.940         7
36.950        13
36.960         7
36.970        20
36.980        47
36.990        67
37.000        33
37.010        33
37.020        20
37.030        13
37.040        20
37.050        13
37.060        20
37.070        27
37.080        20
37.090        33
37.100         0
37.110        20
37.120        13
37.130        13
37.140        27
37.150        20
37.160         7
37.170        20
37.180        33
37.190        20
37.200        13
37.210         7
37.220        33
37.230        27
37.240        20
37.250        20
37.260        13
37.270        13
37.280        27
37.290         7
37.300         0
37.310        47
37.320        20
37.330        33
37.340        33
37.350        13
37.360        40
37.370         0
37.380        13
37.390        27
37.400        40
37.410        33
37.420        13
37.430        40
37.440        27
37.450        40
37.460        20
37.470        13
37.480         7
37.490        13
37.500        33
37.510        40
37.520        20
37.530        33
37.540        47
37.550        40
37.560        13
37.570        33
37.580        13
37.590        20
37.600        53
37.610        13
37.620        40
37.630        13
37.640        40
37.650        53
37.660        33
37.670        67
37.680        47
37.690        33
37.700        27
37.710        87
37.720        53
37.730        87
37.740        87
37.750       127
37.760       280
37.770       247
37.780       213
37.790       240
37.800       227
37.810       240
37.820       207
37.830       220
37.840       107
37.850       153
37.860       113
37.870       180
37.880       140
37.890       180
37.900       153
37.910       113
37.920       140
37.930        73
37.940        53
37.950        60
37.960        13
37.970        27
37.980        47
37.990        47
38.000        13
38.010        20
38.020        20
38.030        13
38.040        60
38.050        27
38.060        47
38.070        13
38.080         7
38.090        20
38.100        27
38.110        27
38.120        13
38.130        13
38.140         0
38.150        13
38.160        27
38.170        20
38.180        27
38.190        20
38.200        20
38.210         7
38.220        20
38.230        13
38.240        27
38.250        27
38.260        33
38.270        20
38.280        13
38.290        20
38.300        20
38.310        20
38.320        33
38.330        33
38.340        13
38.350        20
38.360        27
38.370        33
38.380        40
38.390        13
38.400        40
38.410         7
38.420        33
38.430        27
38.440        27
38.450        13
38.460        27
38.470        53
38.480         7
38.490        20
38.500        33
38.510        27
38.520        27
38.530        20
38.540         7
38.550        20
38.560        20
38.570        20
38.580         7
38.590        27
38.600        13
38.610         0
38.620        13
38.630        33
38.640        33
38.650        13
38.660        20
38.670        20
38.680         0
38.690        20
38.700         7
38.710        20
38.720         7
38.730         7
38.740        13
38.750        27
38.760         0
38.770        13
38.780        20
38.790        20
38.800        13
38.810        20
38.820        20
38.830         7
38.840         7
38.850        13
38.860        13
38.870        13
38.880        27
38.890         0
38.900        20
38.910         7
38.920        27
38.930        13
38.940        27
38.950        27
38.960        20
38.970        33
38.980        27
38.990        20
39.000         7
39.010        40
39.020        33
39.030        13
39.040        20
39.050        13
39.060        20
39.070        13
39.080        13
39.090        20
39.100        13
39.110        13
39.120        27
39.130         7
39.140        13
39.150        40
39.160        20
39.170        20
39.180        20
39.190         7
39.200        13
39.210        33
39.220        27
39.230        13
39.240         7
39.250        13
39.260        13
39.270         7
39.280        13
39.290         7
39.300         7
39.310        40
39.320        60
39.330         7
39.340        20
39.350        33
39.360        27
39.370        47
39.380         7
39.390        20
39.400        20
39.410        33
39.420        20
39.430        27
39.440         0
39.450        13
39.460         0
39.470        20
39.480        13
39.490        33
39.500        40
39.510        33
39.520        27
39.530         0
39.540        13
39.550        80
39.560         7
39.570        27
39.580        20
39.590        33
39.600        13
39.610        13
39.620         7
39.630        13
39.640         0
39.650         7
39.660         0
39.670        33
39.680        13
39.690        13
39.700        13
39.710         0
39.720        27
39.730        13
39.740        20
39.750        13
39.760        40
39.770        20
39.780        13
39.790        13
39.800        27
39.810        13
39.820        27
39.830        13
39.840        20
39.850        27
39.860        27
39.870         7
39.880        20
39.890        20
39.900        13
39.910        27
39.920        27
39.930        13
39.940        20
39.950         7
39.960        13
39.970        27
39.980        27
39.990         7
40.000        13
40.010        33
40.020         7
40.030        20
40.040        13
40.050        13
40.060         7
40.070        33
40.080        33
40.090        20
40.100        20
40.110        20
40.120        13
40.130        13
40.140        13
40.150        20
40.160        27
40.170         7
40.180        20
40.190         7
40.200         7
40.210        20
40.220        27
40.230        27
40.240         7
40.250        40
40.260         7
40.270         0
40.280         7
40.290        13
40.300        27
40.310         0
40.320        20
40.330        33
40.340        20
40.350         0
40.360        13
40.370        20
40.380         0
40.390        33
40.400        33
40.410        20
40.420        20
40.430        13
40.440        13
40.450         7
40.460        13
40.470        40
40.480        20
40.490        33
40.500        13
40.510        13
40.520        13
40.530        13
40.540        20
40.550         7
40.560        20
40.570        33
40.580        13
40.590        13
40.600         0
40.610         7
40.620        13
40.630        27
40.640        27
40.650        27
40.660        13
40.670        20
40.680        33
40.690        13
40.700        27
40.710        20
40.720        27
40.730        20
40.740        13
40.750         7
40.760        20
40.770        40
40.780        20
40.790        20
40.800        33
40.810         0
40.820        13
40.830        20
40.840        13
40.850        27
40.860         0
40.870        27
40.880        60
40.890         0
40.900        47
40.910         7
40.920        13
40.930        13
40.940         7
40.950        20
40.960        13
40.970         7
40.980         7
40.990        20
41.000        13
41.010         7
41.020        13
41.030        13
41.040        13
41.050         7
41.060        13
41.070        13
41.080        20
41.090        27
41.100        27
41.110         7
41.120        20
41.130        33
41.140        53
41.150        13
41.160        27
41.170        13
41.180        27
41.190        13
41.200        33
41.210        20
41.220        27
41.230        20
41.240        47
41.250        33
41.260         7
41.270         7
41.280        20
41.290        33
41.300         7
41.310        40
41.320        13
41.330        20
41.340        33
41.350        13
41.360        13
41.370         7
41.380        13
41.390        20
41.400        20
41.410        13
41.420        20
41.430        33
41.440        33
41.450        20
41.460        27
41.470         7
41.480         7
41.490        13
41.500         7
41.510        20
41.520        13
41.530        20
41.540        13
41.550        47
41.560        60
41.570        27
41.580        33
41.590        33
41.600        40
41.610        33
41.620        40
41.630        67
41.640        53
41.650       113
41.660        67
41.670        73
41.680        67
41.690        73
41.700        73
41.710        67
41.720        67
41.730        47
41.740        47
41.750        13
41.760        47
41.770        40
41.780        40
41.790        27
41.800        40
41.810        60
41.820        27
41.830        53
41.840        60
41.850        33
41.860        67
41.870        20
41.880        20
41.890        20
41.900        33
41.910        40
41.920        13
41.930        13
41.940        20
41.950         7
41.960        20
41.970        27
41.980        20
41.990        40
42.000        13
42.010        20
42.020        33
42.030         7
42.040        27
42.050         0
42.060        27
42.070        20
42.080        33
42.090         0
42.100        53
42.110        27
42.120        40
42.130        20
42.140        13
42.150         0
42.160        27
42.170        13
42.180        13
42.190        20
42.200        13
42.210        40
42.220        13
42.230         7
42.240        33
42.250        13
42.260        27
42.270        20
42.280        13
42.290        20
42.300         7
42.310        13
42.320        33
42.330        20
42.340        27
42.350        20
42.360        53
42.370         7
42.380        13
42.390        20
42.400         7
42.410        20
42.420        13
42.430        40
42.440        27
42.450        27
42.460        40
42.470        20
42.480        20
42.490        13
42.500         7
42.510         7
42.520         7
42.530        20
42.540        13
42.550        13
42.560         7
42.570        13
42.580         0
42.590        13
42.600         0
42.610        13
42.620        27
42.630        40
42.640        20
42.650        40
42.660        13
42.670         7
42.680        33
42.690        27
42.700         7
42.710         7
42.720        13
42.730        33
42.740         7
42.750        27
42.760        13
42.770        27
42.780        13
42.790        13
42.800        13
42.810        13
42.820         7
42.830        13
42.840        13
42.850         7
42.860        13
42.870        13
42.880         7
42.890        13
42.900         0
42.910        20
42.920        27
42.930        13
42.940        20
42.950        27
42.960        27
42.970        40
42.980        20
42.990        13
43.000        20
43.010        47
43.020        40
43.030        13
43.040        20
43.050         0
43.060        20
43.070         7
43.080         7
43.090        27
43.100        13
43.110        33
43.120        20
43.130        40
43.140        53
43.150        33
43.160        73
43.170        13
43.180        53
43.190        47
43.200        67
43.210        33
43.220        27
43.230        40
43.240        20
43.250        20
43.260        33
43.270        53
43.280        87
43.290       127
43.300       213
43.310       247
43.320       393
43.330       533
43.340       660
43.350       760
43.360       746
43.370       526
43.380       387
43.390       347
43.400       227
43.410       187
43.420       187
43.430       287
43.440       233
43.450       340
43.460       327
43.470       486
43.480       313
43.490       167
43.500       253
43.510       193
43.520        73
43.530        87
43.540        40
43.550        33
43.560        53
43.570        60
43.580        40
43.590        27
43.600        27
43.610        20
43.620        60
43.630        40
43.640         0
43.650        20
43.660        33
43.670         7
43.680        40
43.690        47
43.700        20
43.710        27
43.720        27
43.730        20
43.740        33
43.750        40
43.760        27
43.770         0
43.780        20
43.790         0
43.800        13
43.810        33
43.820        27
43.830        13
43.840        13
43.850        20
43.860        13
43.870        13
43.880         7
43.890        20
43.900        40
43.910        33
43.920        13
43.930         7
43.940         7
43.950         7
43.960        13
43.970        47
43.980        33
43.990        47
44.000         0
44.010         7
44.020        33
44.030         7
44.040        20
44.050        13
44.060        13
44.070         7
44.080         0
44.090         0
44.100        20
44.110        20
44.120        27
44.130        20
44.140         7
44.150        20
44.160        20
44.170        33
44.180        13
44.190         7
44.200        13
44.210         0
44.220        27
44.230        20
44.240        27
44.250         7
44.260        40
44.270         0
44.280        33
44.290        33
44.300         7
44.310        13
44.320         7
44.330        27
44.340        13
44.350        27
44.360        13
44.370        27
44.380        20
44.390         7
44.400        20
44.410         7
44.420        40
44.430        27
44.440         7
44.450        13
44.460        27
44.470        27
44.480         7
44.490        13
44.500         7
44.510        13
44.520         0
44.530        27
44.540        13
44.550         0
44.560        20
44.570         0
44.580         7
44.590        13
44.600         0
44.610        20
44.620        20
44.630         0
44.640        13
44.650         7
44.660        20
44.670        13
44.680        27
44.690         0
44.700         7
44.710         7
44.720        33
44.730         7
44.740        20
44.750        13
44.760         7
44.770         7
44.780         7
44.790        20
44.800        27
44.810        20
44.820        13
44.830         7
44.840        27
44.850         7
44.860        20
44.870         7
44.880        20
44.890        27
44.900         7
44.910        20
44.920        13
44.930        20
44.940        47
44.950        20
44.960         0
44.970        13
44.980        27
44.990        27
45.000        27
45.010        13
45.020        27
45.030        13
45.040        13
45.050         7
45.060        20
45.070        20
45.080        20
45.090        27
45.100        13
45.110        20
45.120        33
45.130         7
45.140        13
45.150        20
45.160        20
45.170         0
45.180        13
45.190        20
45.200         7
45.210        13
45.220        13
45.230        20
45.240        20
45.250        13
45.260        20
45.270         7
45.280        47
45.290         7
45.300        20
45.310        20
45.320        27
45.330         7
45.340        13
45.350        27
45.360        20
45.370         7
45.380        20
45.390         7
45.400        20
45.410         7
45.420        13
45.430        27
45.440        13
45.450        27
45.460         7
45.470        13
45.480        20
45.490        13
45.500        20
45.510        33
45.520        33
45.530        33
45.540        20
45.550        20
45.560        13
45.570        20
45.580        27
45.590        13
45.600        27
45.610        13
45.620        13
45.630        20
45.640         0
45.650        20
45.660        13
45.670        27
45.680        40
45.690        13
45.700         7
45.710        33
45.720        27
45.730         7
45.740         7
45.750        27
45.760        27
45.770        13
45.780         7
45.790        13
45.800        13
45.810        27
45.820         7
45.830        13
45.840         7
45.850         0
45.860        33
45.870         0
45.880        27
45.890        20
45.900        20
45.910        27
45.920         0
45.930         0
45.940         7
45.950        27
45.960        53
45.970        20
45.980        27
45.990        13
46.000        13
46.010        53
46.020        27
46.030        40
46.040        40
46.050        27
46.060        20
46.070        27
46.080         7
46.090        13
46.100        27
46.110        47
46.120        20
46.130        13
46.140        33
46.150        33
46.160        27
46.170        20
46.180        27
46.190        53
46.200        47
46.210        60
46.220        53
46.230        33
46.240        47
46.250        47
46.260        40
46.270        53
46.280        80
46.290        60
46.300        33
46.310        60
46.320        60
46.330        13
46.340        27
46.350        40
46.360        47
46.370        27
46.380        47
46.390        47
46.400        33
46.410        33
46.420        33
46.430        40
46.440        13
46.450         7
46.460        20
46.470        33
46.480        27
46.490        27
46.500        20
46.510        13
46.520         7
46.530        33
46.540         7
46.550         7
46.560        13
46.570         7
46.580         7
46.590        20
46.600        33
46.610         7
46.620         0
46.630         0
46.640        13
46.650        13
46.660         7
46.670         7
46.680         0
46.690        20
46.700        13
46.710         0
46.720        27
46.730        20
46.740        20
46.750        20
46.760        20
46.770        20
46.780        20
46.790         7
46.800        13
46.810        20
46.820        33
46.830        13
46.840         0
46.850        20
46.860         7
46.870        40
46.880        40
46.890        47
46.900        13
46.910        13
46.920        13
46.930        13
46.940        20
46.950         7
46.960        33
46.970        20
46.980         7
46.990         0
47.000         7
47.010        20
47.020        33
47.030        27
47.040         7
47.050        27
47.060         7
47.070        33
47.080        13
47.090        13
47.100        40
47.110        27
47.120        20
47.130        13
47.140        40
47.150        33
47.160        13
47.170        13
47.180        13
47.190        13
47.200        20
47.210        33
47.220        20
47.230        20
47.240        33
47.250        20
47.260        33
47.270         0
47.280         7
47.290         7
47.300        20
47.310        40
47.320        13
47.330         0
47.340        33
47.350        40
47.360        33
47.370        27
47.380        27
47.390        40
47.400        33
47.410        27
47.420        13
47.430         7
47.440        27
47.450        33
47.460        13
47.470         7
47.480        40
47.490        47
47.500        33
47.510         7
47.520         7
47.530        20
47.540        20
47.550        33
47.560        13
47.570        13
47.580        53
47.590        33
47.600        20
47.610        20
47.620        20
47.630        13
47.640        13
47.650         7
47.660        13
47.670        20
47.680        13
47.690        20
47.700         7
47.710        13
47.720         0
47.730         7
47.740        33
47.750        33
47.760         7
47.770         7
47.780         7
47.790        20
47.800         7
47.810        27
47.820        20
47.830        20
47.840        33
47.850        20
47.860        13
47.870         0
47.880        27
47.890        20
47.900         7
47.910        20
47.920        13
47.930         7
47.940        27
47.950         0
47.960        13
47.970        13
47.980         7
47.990        40
48.000         0
48.010         7
48.020        20
48.030         7
48.040         7
48.050        13
48.060        20
48.070         7
48.080        13
48.090        27
48.100        20
48.110        20
48.120        13
48.130        20
48.140        20
48.150        20
48.160         7
48.170        20
48.180         7
48.190        13
48.200         0
48.210        40
48.220        20
48.230        33
48.240         7
48.250         0
48.260        20
48.270        27
48.280        20
48.290         0
48.300        33
48.310        13
48.320        27
48.330        40
48.340        13
48.350         0
48.360        27
48.370        13
48.380        13
48.390        20
48.400        40
48.410        27
48.420        13
48.430        27
48.440        13
48.450        27
48.460        20
48.470        20
48.480         0
48.490        13
48.500        27
48.510         7
48.520         7
48.530        40
48.540        13
48.550        20
48.560        13
48.570        33
48.580        40
48.590         7
48.600        20
48.610        20
48.620        33
48.630         0
48.640         7
48.650         7
48.660        13
48.670        33
48.680         7
48.690        13
48.700         0
48.710        20
48.720        13
48.730        13
48.740        20
48.750        13
48.760        20
48.770        20
48.780        33
48.790        13
48.800        20
48.810        33
48.820         7
48.830         7
48.840        13
48.850         7
48.860         7
48.870        40
48.880        13
48.890         0
48.900        27
48.910         7
48.920         0
48.930         7
48.940         7
48.950        33
48.960        27
48.970         7
48.980         0
48.990        13
49.000        20
49.010        20
49.020        27
49.030         7
49.040         7
49.050        33
49.060         7
49.070        20
49.080         0
49.090         0
49.100         0
49.110        13
49.120        20
49.130        27
49.140         7
49.150        20
49.160        13
49.170        20
49.180        13
49.190         7
49.200         7
49.210        13
49.220        27
49.230        13
49.240         7
49.250        20
49.260         7
49.270         0
49.280        13
49.290         7
49.300        13
49.310        20
49.320        27
49.330        33
49.340         0
49.350        13
49.360         7
49.370        27
49.380         7
49.390        20
49.400         7
49.410        20
49.420        13
49.430         0
49.440        27
49.450         0
49.460        13
49.470        20
49.480         7
49.490         7
49.500         7
49.510         0
49.520         7
49.530        20
49.540        13
49.550        27
49.560        27
49.570         7
49.580        20
49.590        27
49.600         7
49.610        27
49.620        13
49.630        33
49.640         7
49.650        13
49.660        13
49.670         7
49.680        13
49.690         0
49.700        33
49.710        27
49.720        13
49.730         7
49.740         7
49.750        20
49.760        13
49.770         0
49.780        13
49.790         7
49.800        20
49.810        13
49.820        40
49.830        27
49.840        27
49.850         7
49.860        33
49.870         0
49.880        13
49.890        13
49.900        27
49.910         7
49.920        27
49.930         7
49.940        27
49.950        13
49.960        20
49.970        13
49.980         0
49.990        40
50.000         7
50.010        27
50.020        13
50.030         0
50.040        13
50.050         7
50.060         7
50.070        40
50.080         7
50.090        13
50.100        20
50.110         7
50.120        27
50.130        27
50.140        13
50.150         7
50.160        33
50.170         0
50.180         7
50.190         7
50.200        20
50.210        20
50.220        13
50.230        20
50.240         0
50.250         0
50.260        13
50.270         7
50.280         7
50.290         0
50.300         7
50.310        13
50.320        20
50.330        20
50.340         7
50.350        13
50.360        20
50.370         7
50.380        13
50.390        13
50.400        20
50.410         7
50.420        20
50.430        40
50.440         7
50.450         0
50.460        20
50.470         0
50.480        20
50.490        13
50.500        13
50.510        13
50.520         7
50.530         7
50.540         7
50.550        20
50.560        27
50.570        13
50.580         7
50.590        20
50.600        13
50.610        20
50.620        13
50.630        20
50.640        20
50.650         7
50.660         7
50.670         0
50.680        33
50.690         0
50.700        20
50.710        13
50.720         7
50.730         7
50.740         7
50.750        20
50.760         0
50.770        20
50.780        13
50.790        20
50.800         7
50.810         7
50.820         0
50.830        13
50.840         7
50.850        13
50.860        27
50.870         7
50.880        13
50.890        27
50.900         0
50.910        13
50.920         7
50.930        27
50.940        13
50.950        13
50.960        20
50.970        13
50.980        20
50.990         7
51.000        27
51.010         7
51.020        20
51.030         7
51.040        33
51.050         7
51.060         0
51.070        13
51.080        20
51.090        27
51.100        20
51.110         7
51.120        20
51.130         7
51.140         7
51.150         7
51.160         7
51.170         7
51.180         0
51.190        20
51.200        13
51.210        13
51.220        20
51.230         7
51.240        20
51.250         7
51.260         7
51.270         7
51.280         7
51.290        13
51.300        27
51.310         7
51.320        13
51.330        20
51.340        13
51.350        13
51.360        33
51.370        27
51.380        27
51.390         7
51.400         7
51.410        13
51.420        20
51.430        27
51.440        13
51.450         7
51.460        13
51.470        13
51.480         7
51.490         0
51.500         7
51.510        27
51.520        40
51.530        27
51.540         7
51.550        20
51.560        27
51.570        27
51.580        27
51.590         0
51.600        13
51.610        13
51.620        20
51.630        27
51.640        13
51.650        27
51.660        13
51.670         7
51.680         7
51.690        33
51.700         7
51.710        33
51.720         7
51.730        20
51.740        20
51.750         7
51.760         7
51.770         7
51.780        13
51.790        13
51.800        20
51.810         0
51.820        13
51.830        33
51.840        20
51.850        20
51.860         7
51.870        13
51.880        33
51.890        27
51.900        27
51.910         7
51.920         0
51.930        13
51.940         0
51.950        27
51.960        13
51.970        33
51.980        13
51.990         7
52.000         7
52.010        20
52.020        13
52.030        20
52.040        13
52.050        27
52.060        33
52.070         0
52.080         7
52.090        13
52.100        33
52.110        13
52.120        13
52.130         0
52.140        13
52.150        13
52.160        13
52.170         7
52.180        27
52.190        20
52.200        33
52.210         0
52.220        13
52.230         7
52.240         7
52.250        13
52.260         7
52.270         7
52.280        33
52.290        13
52.300        20
52.310        27
52.320         7
52.330         7
52.340         7
52.350        13
52.360        27
52.370        13
52.380        13
52.390        20
52.400        33
52.410        27
52.420        13
52.430        33
52.440        27
52.450         7
52.460        20
52.470        33
52.480        13
52.490        53
52.500        60
52.510        60
52.520       100
52.530        60
52.540       160
52.550       100
52.560       147
52.570       113
52.580       120
52.590        47
52.600        67
52.610        40
52.620        40
52.630         7
52.640        40
52.650        40
52.660        53
52.670        60
52.680        73
52.690        47
52.700        40
52.710        47
52.720        33
52.730        47
52.740        27
52.750        20
52.760        33
52.770        20
52.780        33
52.790         7
52.800         0
52.810         7
52.820         7
52.830        20
52.840        20
52.850        33
52.860         7
52.870        20
52.880         0
52.890        13
52.900         7
52.910        20
52.920        13
52.930        20
52.940        13
52.950        13
52.960        20
52.970        20
52.980        13
52.990        20
53.000        13
53.010        20
53.020        13
53.030        20
53.040        33
53.050        13
53.060        47
53.070        20
53.080         0
53.090        13
53.100        13
53.110         7
53.120         7
53.130        13
53.140        27
53.150        13
53.160        33
53.170        13
53.180        13
53.190         7
53.200         7
53.210         0
53.220         7
53.230        20
53.240         7
53.250        27
53.260        33
53.270        33
53.280        13
53.290        13
53.300         7
53.310         0
53.320        27
53.330        20
53.340         7
53.350         7
53.360        20
53.370        13
53.380        13
53.390         7
53.400        13
53.410         0
53.420        27
53.430        20
53.440         0
53.450        20
53.460         0
53.470        13
53.480         7
53.490         0
53.500        13
53.510        47
53.520        13
53.530        13
53.540        13
53.550        13
53.560        13
53.570        40
53.580        33
53.590        27
53.600        47
53.610         7
53.620         0
53.630        20
53.640        27
53.650        40
53.660         7
53.670        13
53.680        27
53.690         7
53.700        20
53.710        13
53.720        13
53.730         0
53.740        13
53.750        20
53.760        13
53.770        27
53.780        20
53.790        33
53.800         0
53.810        20
53.820        13
53.830         7
53.840         0
53.850        33
53.860        13
53.870        33
53.880        40
53.890        20
53.900        20
53.910        13
53.920        13
53.930        33
53.940        20
53.950         7
53.960         7
53.970        13
53.980        27
53.990        27
54.000         7
54.010        20
54.020        20
54.030         7
54.040        13
54.050        27
54.060         7
54.070        13
54.080        13
54.090        13
54.100         7
54.110        27
54.120        13
54.130         7
54.140        27
54.150         7
54.160         0
54.170        27
54.180         7
54.190        13
54.200        20
54.210        20
54.220         7
54.230         7
54.240        20
54.250         7
54.260         0
54.270        13
54.280         7
54.290         7
54.300         0
54.310        20
54.320        27
54.330        20
54.340        13
54.350        27
54.360        20
54.370        13
54.380        13
54.390        27
54.400        13
54.410         7
54.420        20
54.430         7
54.440        13
54.450         7
54.460        13
54.470        20
54.480        13
54.490        20
54.500         7
54.510        27
54.520        13
54.530        20
54.540         0
54.550         0
54.560        27
54.570         0
54.580        13
54.590        13
54.600        20
54.610         7
54.620        20
54.630         0
54.640        13
54.650         7
54.660         7
54.670         7
54.680        27
54.690        20
54.700        27
54.710         7
54.720        13
54.730        13
54.740        13
54.750        20
54.760        13
54.770         0
54.780        20
54.790         0
54.800        13
54.810         0
54.820         0
54.830        20
54.840        13
54.850        13
54.860         7
54.870        20
54.880        33
54.890         7
54.900        13
54.910        27
54.920         0
54.930        13
54.940        13
54.950        13
54.960        13
54.970         0
54.980        27
54.990        27
55.000         7
55.010         7
55.020         0
55.030        13
55.040        20
55.050         0
55.060        13
55.070         0
55.080        13
55.090        20
55.100        33
55.110        13
55.120        13
55.130         7
55.140         0
55.150         7
55.160        20
55.170         7
55.180        13
55.190         7
55.200        13
55.210         7
55.220         7
55.230         0
55.240        13
55.250        20
55.260        13
55.270         7
55.280        27
55.290         7
55.300        13
55.310         7
55.320        13
55.330        13
55.340        20
55.350        20
55.360         7
55.370         7
55.380        13
55.390        20
55.400        20
55.410         0
55.420         7
55.430         7
55.440        13
55.450        13
55.460         7
55.470         7
55.480        20
55.490        20
55.500        20
55.510         0
55.520        13
55.530        13
55.540        20
55.550        13
55.560        13
55.570         7
55.580         7
55.590        13
55.600         0
55.610         0
55.620        13
55.630        27
55.640        27
55.650         7
55.660         0
55.670        13
55.680        33
55.690         0
55.700        20
55.710        20
55.720        13
55.730        13
55.740        33
55.750        20
55.760        20
55.770         7
55.780         0
55.790        27
55.800        13
55.810        33
55.820        27
55.830         0
55.840        20
55.850        13
55.860         7
55.870         7
55.880         7
55.890        47
55.900        27
55.910         7
55.920        33
55.930        27
55.940         7
55.950        13
55.960         0
55.970         7
55.980        20
55.990        13
56.000         0
56.010        13
56.020        13
56.030         7
56.040        20
56.050        13
56.060        27
56.070        20
56.080         7
56.090        60
56.100        13
56.110        27
56.120        27
56.130         7
56.140        13
56.150        20
56.160        20
56.170         0
56.180         7
56.190         7
56.200        13
56.210         7
56.220        13
56.230        33
56.240        13
56.250        20
56.260        13
56.270         7
56.280        33
56.290        33
56.300         7
56.310        13
56.320        40
56.330        13
56.340         7
56.350         7
56.360         7
56.370        20
56.380        20
56.390        27
56.400         7
56.410        27
56.420        27
56.430        20
56.440        13
56.450        20
56.460        20
56.470         7
56.480         0
56.490         7
56.500        13
56.510        20
56.520         0
56.530        13
56.540        27
56.550        13
56.560        13
56.570         7
56.580         7
56.590         7
56.600         7
56.610        13
56.620        13
56.630         0
56.640        13
56.650        13
56.660        20
56.670        13
56.680         7
56.690        20
56.700        13
56.710         7
56.720        27
56.730         7
56.740         7
56.750        13
56.760         7
56.770         7
56.780        27
56.790        33
56.800        13
56.810        13
56.820         7
56.830        40
56.840        27
56.850         0
56.860         7
56.870         7
56.880         7
56.890         0
56.900         7
56.910         0
56.920        20
56.930         0
56.940         7
56.950         7
56.960        20
56.970         7
56.980        13
56.990        20
57.000        33
57.010        13
57.020        13
57.030         7
57.040         7
57.050        13
57.060        20
57.070        20
57.080        20
57.090         7
57.100        13
57.110        13
57.120        13
57.130        20
57.140        13
57.150        20
57.160        13
57.170        13
57.180         7
57.190        27
57.200        20
57.210         7
57.220        20
57.230        27
57.240        20
57.250        47
57.260        27
57.270        27
57.280        33
57.290         7
57.300        27
57.310        33
57.320        27
57.330        73
57.340        40
57.350        33
57.360        33
57.370        47
57.380        67
57.390        60
57.400        40
57.410        73
57.420       120
57.430       100
57.440        60
57.450       120
57.460       107
57.470        87
57.480        80
57.490        93
57.500       193
57.510       233
57.520       300
57.530       260
57.540       193
57.550       173
57.560       180
57.570       120
57.580       140
57.590       180
57.600        40
57.610        60
57.620       120
57.630        73
57.640        80
57.650        67
57.660       107
57.670       160
57.680       107
57.690       107
57.700       113
57.710       173
57.720        73
57.730        87
57.740        27
57.750        53
57.760        20
57.770        40
57.780        20
57.790        27
57.800        33
57.810        27
57.820        33
57.830        20
57.840        13
57.850        13
57.860        13
57.870        13
57.880         7
57.890         7
57.900         0
57.910        27
57.920        13
57.930        27
57.940        20
57.950         7
57.960        20
57.970        33
57.980        20
57.990        13
58.000        20
58.010        13
58.020        13
58.030         7
58.040         7
58.050         7
58.060         7
58.070        20
58.080        13
58.090         7
58.100        20
58.110        13
58.120        13
58.130        20
58.140        20
58.150        13
58.160         7
58.170        13
58.180        20
58.190         7
58.200        13
58.210        20
58.220        27
58.230         0
58.240        20
58.250        13
58.260        13
58.270         7
58.280         0
58.290         0
58.300        13
58.310         7
58.320         7
58.330        13
58.340         7
58.350         7
58.360        20
58.370        13
58.380         0
58.390         7
58.400        20
58.410        13
58.420        20
58.430         7
58.440        27
58.450         0
58.460         7
58.470        13
58.480         7
58.490        13
58.500        13
58.510        20
58.520         7
58.530        27
58.540        20
58.550        20
58.560        27
58.570        20
58.580         7
58.590         7
58.600         0
58.610         0
58.620        27
58.630        20
58.640         7
58.650        20
58.660        27
58.670        20
58.680         0
58.690        33
58.700        20
58.710        27
58.720         7
58.730        27
58.740         7
58.750        13
58.760         7
58.770         7
58.780        20
58.790         7
58.800        20
58.810         7
58.820        33
58.830         0
58.840         0
58.850         7
58.860        40
58.870         0
58.880        13
58.890         0
58.900         0
58.910         7
58.920        20
58.930        13
58.940         0
58.950         7
58.960         7
58.970         7
58.980         0
58.990        13
59.000         7
59.010         7
59.020        13
59.030         0
59.040         7
59.050         7
59.060         7
59.070        13
59.080         7
59.090        20
59.100        20
59.110         7
59.120         0
59.130        20
59.140        20
59.150         0
59.160        20
59.170        13
59.180        13
59.190        13
59.200         7
59.210        13
59.220         7
59.230         7
59.240         0
59.250         0
59.260        33
59.270        27
59.280         0
59.290         7
59.300         7
59.310        20
59.320         7
59.330         7
59.340         0
59.350         7
59.360        53
59.370         7
59.380         0
59.390         7
59.400        13
59.410        27
59.420         0
59.430         0
59.440        40
59.450         0
59.460        27
59.470         7
59.480        13
59.490        13
59.500        13
59.510         7
59.520        13
59.530         7
59.540         7
59.550        33
59.560        33
59.570        13
59.580         7
59.590        20
59.600        27
59.610        27
59.620         0
59.630        13
59.640         7
59.650         0
59.660        13
59.670        20
59.680        27
59.690        13
59.700        13
59.710         7
59.720        33
59.730        27
59.740         7
59.750         7
59.760         7
59.770         7
59.780        20
59.790        20
59.800         7
59.810        20
59.820        33
59.830         7
59.840        13
59.850         0
59.860         7
59.870        13
59.880        13
59.890        13
59.900        20
59.910        27
59.920         7
59.930        27
59.940         0
59.950        20
59.960        13
59.970        13
59.980         7
59.990        20
60.000        20
