20.000        27
20.010        27
20.020        13
20.030        40
20.040        60
20.050        47
20.060        40
20.070        33
20.080        80
20.090        67
20.100        27
20.110        33
20.120        47
20.130        67
20.140        53
20.150        33
20.160        47
20.170        60
20.180        40
20.190        47
20.200        33
20.210        73
20.220        53
20.230        67
20.240        53
20.250        20
20.260        40
20.270        93
20.280        40
20.290        47
20.300        60
20.310        20
20.320        47
20.330        33
20.340        47
20.350        47
20.360        47
20.370        47
20.380        53
20.390        47
20.400        40
20.410        47
20.420        60
20.430        60
20.440        20
20.450        27
20.460        60
20.470        40
20.480        73
20.490        40
20.500        33
20.510        40
20.520        33
20.530        27
20.540        60
20.550        40
20.560        27
20.570        27
20.580        47
20.590        13
20.600        33
20.610        73
20.620        33
20.630        60
20.640        53
20.650        20
20.660        40
20.670        67
20.680        33
20.690        33
20.700        60
20.710        27
20.720        87
20.730        67
20.740        47
20.750        47
20.760        73
20.770        27
20.780        33
20.790        53
20.800        73
20.810        40
20.820        53
20.830        53
20.840        47
20.850        27
20.860        40
20.870        47
20.880        33
20.890        80
20.900        40
20.910        47
20.920        53
20.930        53
20.940        27
20.950        33
20.960        47
20.970        40
20.980        33
20.990        20
21.000        27
21.010        67
21.020        47
21.030        20
21.040        60
21.050        47
21.060        73
21.070        40
21.080        33
21.090        47
21.100        27
21.110        47
21.120        73
21.130        53
21.140        47
21.150        60
21.160        20
21.170        47
21.180        47
21.190        73
21.200        60
21.210        53
21.220        60
21.230        20
21.240        40
21.250        33
21.260        27
21.270        53
21.280        33
21.290        40
21.300        47
21.310        20
21.320        40
21.330        13
21.340        53
21.350        33
21.360        73
21.370        53
21.380        53
21.390        40
21.400        60
21.410        40
21.420        27
21.430        13
21.440        53
21.450        33
21.460        33
21.470        67
21.480        33
21.490        67
21.500        33
21.510        60
21.520        33
21.530        33
21.540        33
21.550        47
21.560        33
21.570        60
21.580        60
21.590        47
21.600        33
21.610        53
21.620        33
21.630        60
21.640        13
21.650        73
21.660        27
21.670        40
21.680        40
21.690        53
21.700        33
21.710        53
21.720        47
21.730        53
21.740        47
21.750        40
21.760        27
21.770        27
21.780        47
21.790        53
21.800        40
21.810        40
21.820        67
21.830        60
21.840        27
21.850        33
21.860        47
21.870        80
21.880        73
21.890        40
21.900        80
21.910        33
21.920        67
21.930        27
21.940        27
21.950        27
21.960        40
21.970        53
21.980        27
21.990        60
22.000        53
22.010        60
22.020        20
22.030        27
22.040        33
22.050        33
22.060        47
22.070        27
22.080        20
22.090        47
22.100        47
22.110        33
22.120        60
22.130         7
22.140        80
22.150        60
22.160        40
22.170        47
22.180        40
22.190        60
22.200        47
22.210        47
22.220        47
22.230        40
22.240        53
22.250        73
22.260        67
22.270        60
22.280        53
22.290        60
22.300        60
22.310        60
22.320        53
22.330        53
22.340        93
22.350        93
22.360        87
22.370       100
22.380        80
22.390        53
22.400        93
22.410       100
22.420       113
22.430       127
22.440       120
22.450       120
22.460        80
22.470       220
22.480       193
22.490       187
22.500       213
22.510       213
22.520       147
22.530       160
22.540       267
22.550       147
22.560       220
22.570       273
22.580       213
22.590       307
22.600       247
22.610       340
22.620       273
22.630       307
22.640       307
22.650       280
22.660       373
22.670       293
22.680       353
22.690       367
22.700       227
22.710       273
22.720       227
22.730       287
22.740       233
22.750       187
22.760       213
22.770       260
22.780       273
22.790       233
22.800       260
22.810       173
22.820       207
22.830       193
22.840       173
22.850       220
22.860       173
22.870       193
22.880       167
22.890       113
22.900       167
22.910       133
22.920       120
22.930       133
22.940       113
22.950       140
22.960       107
22.970        80
22.980        87
22.990        93
23.000        93
23.010       107
23.020        80
23.030        67
23.040       100
23.050        73
23.060        80
23.070        80
23.080       100
23.090        60
23.100       100
23.110        53
23.120        67
23.130        93
23.140        53
23.150        60
23.160       113
23.170        80
23.180        60
23.190        40
23.200        47
23.210        60
23.220        60
23.230        53
23.240        60
23.250        53
23.260        53
23.270        67
23.280        67
23.290        60
23.300        67
23.310        47
23.320        80
23.330        40
23.340        40
23.350        87
23.360        80
23.370        47
23.380        53
23.390        80
23.400        33
23.410        27
23.420        33
23.430        60
23.440        67
23.450        40
23.460        33
23.470        47
23.480        40
23.490        47
23.500        27
23.510        47
23.520        60
23.530        47
23.540        40
23.550        73
23.560         7
23.570        33
23.580        80
23.590        20
23.600        27
23.610        73
23.620        20
23.630        67
23.640        73
23.650        27
23.660        27
23.670        33
23.680        40
23.690        67
23.700        33
23.710        40
23.720        27
23.730        27
23.740        33
23.750        33
23.760        60
23.770        53
23.780        53
23.790        33
23.800        33
23.810        33
23.820        33
23.830        40
23.840        33
23.850        40
23.860        80
23.870        40
23.880        40
23.890        47
23.900        33
23.910        73
23.920        47
23.930        20
23.940        60
23.950        27
23.960        47
23.970        47
23.980        40
23.990        27
24.000        60
24.010        40
24.020        53
24.030         7
24.040        60
24.050        27
24.060        33
24.070        60
24.080        40
24.090        40
24.100        40
24.110        47
24.120        27
24.130        60
24.140        67
24.150        27
24.160        60
24.170        33
24.180        20
24.190        33
24.200        40
24.210        27
24.220        47
24.230        60
24.240        47
24.250        53
24.260        53
24.270        53
24.280        27
24.290        27
24.300        53
24.310        47
24.320        33
24.330        40
24.340        13
24.350        47
24.360        40
24.370        67
24.380        33
24.390        27
24.400        40
24.410        33
24.420        33
24.430        40
24.440        33
24.450        53
24.460        60
24.470        33
24.480        27
24.490        73
24.500        13
24.510        60
24.520        53
24.530        33
24.540        40
24.550        33
24.560        67
24.570        47
24.580        40
24.590        40
24.600        27
24.610        33
24.620        53
24.630        13
24.640        33
24.650        33
24.660        20
24.670        80
24.680        13
24.690        47
24.700        60
24.710        47
24.720        87
24.730        40
24.740        13
24.750        53
24.760        53
24.770        73
24.780        40
24.790        33
24.800        53
24.810        27
24.820        53
24.830        33
24.840        60
24.850        53
24.860        73
24.870         7
24.880        80
24.890        47
24.900        33
24.910        13
24.920        87
24.930        27
24.940        53
24.950        53
24.960        53
24.970        40
24.980        33
24.990        33
25.000        33
25.010        20
25.020        47
25.030        60
25.040        27
25.050        47
25.060        27
25.070        47
25.080        53
25.090        20
25.100        40
25.110        27
25.120        73
25.130        33
25.140        13
25.150        53
25.160        60
25.170        20
25.180        20
25.190        60
25.200        27
25.210        27
25.220        47
25.230        60
25.240        33
25.250        13
25.260        53
25.270        47
25.280        20
25.290        60
25.300        53
25.310        20
25.320        20
25.330        27
25.340        53
25.350        40
25.360        27
25.370        53
25.380        40
25.390        40
25.400        20
25.410        67
25.420        40
25.430        53
25.440        40
25.450        27
25.460        33
25.470        47
25.480        33
25.490        47
25.500        27
25.510        53
25.520        27
25.530        27
25.540        47
25.550        27
25.560        87
25.570        33
25.580        47
25.590        33
25.600        33
25.610        47
25.620        60
25.630        40
25.640        60
25.650        33
25.660        53
25.670        47
25.680        47
25.690        53
25.700        20
25.710        47
25.720        53
25.730        47
25.740        33
25.750        13
25.760        47
25.770        13
25.780        40
25.790        53
25.800        27
25.810        47
25.820        47
25.830        47
25.840        47
25.850        53
25.860        13
25.870        80
25.880        13
25.890         7
25.900        53
25.910        27
25.920        27
25.930        40
25.940        40
25.950        60
25.960        33
25.970        40
25.980        47
25.990        53
26.000        13
26.010        60
26.020        27
26.030        47
26.040        33
26.050        47
26.060        13
26.070        80
26.080        40
26.090        40
26.100        20
26.110        13
26.120        53
26.130        40
26.140        33
26.150        40
26.160        20
26.170        13
26.180        27
26.190        53
26.200        33
26.210        53
26.220        33
26.230        67
26.240        60
26.250        27
26.260        27
26.270        20
26.280        27
26.290        27
26.300        33
26.310        13
26.320        60
26.330        27
26.340        27
26.350        47
26.360        20
26.370        20
26.380        27
26.390         7
26.400        33
26.410         7
26.420        47
26.430        53
26.440        20
26.450        20
26.460        33
26.470        20
26.480        13
26.490        33
26.500        33
26.510        20
26.520        27
26.530        73
26.540        73
26.550        13
26.560        33
26.570        33
26.580         7
26.590        60
26.600        47
26.610        33
26.620        20
26.630        53
26.640        20
26.650        40
26.660        47
26.670        13
26.680        47
26.690        40
26.700        27
26.710        20
26.720        13
26.730        33
26.740        13
26.750        33
26.760        47
26.770        47
26.780        40
26.790        20
26.800        53
26.810        20
26.820        33
26.830        33
26.840        27
26.850        27
26.860        40
26.870        27
26.880        33
26.890        33
26.900        33
26.910        60
26.920        53
26.930        47
26.940        33
26.950        40
26.960        13
26.970        20
26.980        47
26.990        20
27.000        20
27.010        47
27.020        13
27.030        27
27.040        20
27.050        40
27.060        13
27.070        33
27.080        47
27.090        33
27.100        27
27.110        40
27.120        53
27.130        13
27.140        27
27.150        53
27.160         7
27.170        27
27.180        33
27.190        40
27.200        33
27.210        60
27.220        40
27.230        87
27.240        20
27.250        27
27.260        27
27.270        47
27.280        47
27.290        40
27.300        27
27.310        27
27.320         7
27.330        40
27.340        27
27.350        33
27.360        40
27.370        33
27.380        33
27.390        60
27.400        40
27.410        13
27.420        13
27.430        27
27.440        40
27.450        60
27.460        60
27.470        20
27.480        53
27.490        20
27.500        33
27.510        27
27.520        27
27.530        47
27.540        40
27.550        20
27.560        27
27.570        53
27.580        33
27.590        40
27.600        33
27.610        67
27.620        60
27.630        40
27.640        47
27.650        47
27.660        40
27.670        40
27.680        60
27.690         7
27.700        60
27.710        13
27.720        27
27.730        33
27.740        33
27.750        27
27.760        33
27.770        20
27.780        33
27.790        27
27.800        20
27.810        47
27.820        67
27.830        20
27.840        27
27.850        67
27.860        27
27.870        40
27.880        47
27.890        40
27.900        13
27.910        33
27.920        20
27.930        13
27.940        13
27.950        13
27.960        27
27.970        20
27.980        47
27.990        40
28.000        13
28.010        13
28.020        20
28.030        60
28.040         7
28.050        27
28.060        20
28.070        20
28.080        40
28.090        20
28.100        27
28.110        40
28.120        27
28.130        47
28.140        27
28.150        40
28.160        13
28.170        20
28.180        27
28.190        13
28.200        47
28.210        60
28.220        53
28.230        33
28.240        20
28.250        13
28.260        27
28.270        20
28.280        67
28.290        27
28.300        20
28.310        40
28.320        20
28.330        13
28.340        53
28.350        40
28.360        20
28.370        33
28.380        27
28.390        20
28.400        33
28.410        13
28.420        27
28.430        20
28.440        60
28.450        27
28.460        33
28.470        40
28.480        40
28.490        13
28.500         7
28.510        20
28.520        13
28.530        40
28.540        33
28.550        20
28.560        47
28.570        40
28.580        33
28.590        53
28.600        40
28.610        33
28.620        27
28.630        33
28.640        40
28.650        40
28.660        27
28.670        27
28.680        40
28.690        33
28.700        27
28.710        53
28.720        13
28.730        47
28.740        60
28.750        33
28.760        20
28.770        13
28.780        13
28.790        20
28.800        33
28.810        33
28.820        13
28.830        27
28.840        40
28.850        33
28.860        67
28.870        27
28.880        33
28.890        13
28.900        47
28.910        47
28.920        13
28.930        13
28.940        47
28.950        33
28.960        33
28.970        40
28.980        33
28.990        40
29.000         0
29.010        27
29.020        67
29.030        27
29.040        27
29.050        40
29.060        13
29.070        40
29.080        40
29.090        27
29.100        20
29.110        33
29.120        27
29.130        27
29.140        40
29.150        47
29.160        13
29.170        87
29.180        60
29.190        27
29.200        40
29.210        53
29.220        40
29.230        13
29.240        67
29.250        33
29.260        53
29.270        27
29.280        67
29.290        53
29.300        53
29.310        60
29.320        60
29.330        73
29.340        60
29.350        60
29.360        33
29.370        80
29.380        53
29.390       100
29.400        73
29.410        40
29.420        73
29.430        27
29.440        67
29.450        47
29.460        53
29.470        53
29.480        33
29.490        13
29.500        40
29.510        27
29.520        27
29.530        27
29.540        40
29.550        27
29.560        47
29.570         7
29.580        13
29.590        13
29.600        40
29.610         7
29.620        47
29.630        40
29.640         7
29.650        20
29.660         0
29.670        47
29.680        20
29.690        47
29.700        27
29.710        20
29.720        27
29.730        27
29.740        33
29.750        47
29.760        33
29.770        47
29.780        33
29.790        27
29.800        27
29.810         7
29.820        60
29.830        47
29.840        13
29.850        13
29.860        40
29.870        33
29.880        33
29.890        40
29.900        20
29.910        13
29.920        40
29.930        20
29.940        20
29.950        27
29.960        20
29.970        13
29.980        33
29.990        20
30.000        40
30.010        27
30.020        20
30.030        33
30.040        27
30.050         7
30.060        13
30.070        20
30.080        20
30.090        27
30.100        27
30.110        27
30.120        13
30.130        33
30.140        53
30.150        13
30.160        27
30.170         7
30.180        33
30.190        13
30.200        27
30.210        40
30.220         7
30.230        13
30.240        33
30.250        20
30.260        47
30.270        40
30.280        20
30.290        33
30.300        20
30.310        40
30.320        47
30.330        40
30.340        40
30.350        13
30.360        27
30.370        40
30.380        60
30.390        27
30.400         7
30.410        27
30.420        53
30.430        33
30.440        40
30.450        20
30.460        27
30.470        33
30.480        20
30.490         7
30.500        20
30.510        33
30.520        13
30.530        53
30.540        27
30.550        20
30.560        13
30.570        27
30.580         7
30.590        47
30.600        20
30.610        20
30.620        13
30.630        40
30.640        27
30.650        13
30.660        33
30.670        27
30.680        53
30.690        27
30.700        20
30.710        13
30.720        13
30.730        47
30.740        33
30.750        40
30.760        33
30.770        40
30.780        33
30.790        53
30.800        33
30.810        13
30.820        27
30.830        27
30.840        33
30.850        67
30.860        13
30.870        13
30.880        27
30.890        40
30.900        20
30.910        20
30.920        20
30.930        20
30.940        27
30.950        40
30.960        27
30.970        60
30.980        27
30.990        13
31.000        27
31.010        33
31.020        27
31.030        33
31.040        53
31.050        13
31.060        13
31.070        20
31.080        13
31.090        40
31.100         7
31.110        40
31.120        27
31.130        13
31.140        67
31.150        20
31.160        20
31.170        13
31.180        33
31.190        33
31.200         7
31.210        33
31.220         7
31.230        13
31.240        33
31.250        33
31.260        27
31.270        33
31.280        27
31.290        73
31.300        27
31.310        53
31.320        13
31.330        27
31.340        47
31.350        20
31.360        47
31.370        20
31.380         7
31.390        27
31.400        13
31.410        27
31.420        47
31.430        47
31.440        40
31.450        33
31.460        33
31.470        33
31.480        27
31.490        40
31.500        27
31.510        27
31.520         7
31.530        33
31.540        33
31.550        20
31.560        33
31.570        20
31.580         7
31.590        27
31.600        20
31.610        40
31.620        27
31.630         7
31.640        13
31.650        27
31.660        47
31.670        13
31.680        27
31.690        27
31.700         0
31.710        40
31.720        33
31.730        20
31.740        20
31.750        47
31.760        40
31.770        27
31.780        27
31.790        20
31.800        33
31.810        47
31.820        20
31.830        13
31.840        20
31.850        53
31.860        33
31.870        47
31.880        67
31.890        27
31.900        13
31.910        13
31.920        40
31.930        47
31.940        47
31.950        33
31.960        40
31.970        33
31.980        40
31.990        53
32.000        53
32.010        47
32.020        33
32.030        40
32.040        47
32.050        60
32.060        27
32.070        27
32.080        33
32.090        80
32.100        60
32.110        93
32.120        40
32.130        47
32.140        47
32.150        20
32.160        60
32.170        73
32.180        73
32.190        93
32.200        93
32.210        67
32.220       127
32.230       107
32.240       147
32.250       133
32.260        73
32.270       153
32.280       133
32.290       167
32.300       113
32.310       160
32.320       173
32.330       160
32.340       173
32.350       180
32.360       207
32.370       107
32.380       193
32.390       127
32.400       193
32.410       153
32.420       180
32.430       127
32.440       227
32.450       227
32.460       200
32.470       120
32.480       120
32.490       153
32.500       193
32.510       127
32.520       147
32.530       120
32.540       120
32.550       153
32.560       120
32.570        80
32.580       160
32.590       107
32.600       153
32.610       113
32.620        67
32.630       147
32.640        53
32.650        67
32.660        53
32.670       113
32.680        80
32.690        33
32.700        53
32.710        53
32.720        53
32.730        53
32.740        47
32.750        53
32.760        33
32.770        33
32.780        60
32.790        40
32.800        47
32.810        27
32.820        33
32.830        27
32.840        60
32.850        13
32.860        53
32.870        40
32.880        20
32.890        13
32.900        20
32.910         0
32.920        33
32.930        27
32.940        33
32.950         0
32.960        27
32.970        40
32.980        20
32.990        20
33.000        40
33.010        13
33.020        13
33.030        20
33.040        27
33.050        47
33.060        47
33.070        27
33.080         7
33.090        47
33.100        20
33.110        47
33.120        13
33.130        47
33.140        20
33.150        27
33.160        47
33.170        60
33.180        13
33.190        20
33.200        27
33.210        40
33.220        40
33.230         7
33.240        20
33.250        20
33.260        20
33.270        27
33.280        20
33.290        20
33.300        20
33.310         0
33.320        40
33.330         0
33.340         7
33.350        20
33.360        13
33.370        33
33.380        53
33.390        20
33.400        20
33.410        60
33.420        33
33.430        13
33.440        40
33.450        53
33.460        33
33.470        27
33.480        40
33.490        20
33.500        13
33.510        13
33.520        40
33.530        20
33.540        27
33.550        13
33.560        20
33.570        13
33.580         0
33.590        27
33.600        40
33.610        13
33.620        13
33.630        47
33.640         0
33.650        13
33.660         0
33.670        20
33.680        20
33.690         0
33.700         0
33.710        27
33.720        27
33.730        73
33.740        33
33.750        47
33.760        27
33.770         0
33.780        40
33.790         7
33.800        20
33.810        13
33.820        47
33.830        13
33.840        27
33.850        33
33.860        20
33.870        13
33.880        27
33.890        27
33.900        20
33.910         7
33.920        13
33.930        33
33.940        33
33.950        20
33.960         7
33.970        27
33.980        27
33.990        13
34.000        20
34.010        27
34.020        27
34.030        27
34.040        13
34.050        33
34.060        13
34.070        13
34.080        33
34.090         7
34.100        27
34.110        20
34.120        20
34.130        40
34.140        27
34.150        40
34.160         0
34.170        33
34.180         7
34.190        40
34.200         7
34.210        20
34.220        20
34.230        40
34.240         7
34.250        33
34.260        33
34.270        13
34.280        13
34.290        20
34.300        33
34.310        13
34.320        13
34.330        13
34.340        20
34.350        20
34.360         7
34.370        33
34.380         7
34.390        20
34.400        13
34.410        13
34.420        20
34.430        13
34.440         7
34.450         7
34.460        27
34.470        13
34.480        40
34.490        20
34.500         7
34.510        20
34.520        27
34.530        13
34.540        33
34.550        27
34.560        20
34.570        33
34.580        53
34.590         7
34.600        20
34.610        13
34.620        27
34.630        27
34.640        20
34.650        33
34.660        13
34.670        20
34.680        20
34.690        27
34.700         7
34.710        27
34.720        20
34.730        27
34.740        13
34.750        13
34.760        33
34.770        13
34.780        13
34.790        27
34.800        13
34.810        13
34.820        27
34.830         0
34.840        13
34.850        20
34.860        33
34.870        13
34.880        20
34.890        27
34.900        27
34.910        13
34.920        13
34.930        33
34.940        33
34.950        40
34.960        13
34.970        33
34.980        27
34.990         7
35.000        33
35.010        40
35.020        33
35.030         7
35.040         7
35.050        27
35.060        27
35.070        20
35.080        20
35.090        47
35.100        27
35.110        27
35.120         7
35.130        13
35.140        13
35.150        13
35.160        27
35.170        40
35.180        13
35.190        13
35.200         0
35.210        20
35.220        20
35.230        33
35.240        47
35.250         7
35.260        20
35.270        20
35.280        13
35.290        13
35.300        20
35.310        33
35.320        13
35.330        27
35.340        33
35.350         7
35.360        27
35.370        33
35.380        40
35.390        40
35.400        20
35.410        20
35.420        13
35.430        13
35.440        27
35.450        13
35.460         7
35.470        33
35.480        33
35.490        33
35.500        13
35.510        13
35.520        13
35.530        20
35.540        20
35.550         7
35.560        40
35.570        13
35.580        33
35.590        13
35.600        27
35.610         7
35.620         7
35.630         7
35.640        47
35.650         7
35.660        13
35.670        40
35.680         7
35.690         7
35.700        33
35.710        13
35.720        13
35.730        33
35.740        27
35.750         7
35.760        27
35.770        20
35.780        13
35.790        13
35.800        20
35.810        20
35.820        27
35.830         7
35.840        13
35.850        13
35.860        33
35.870        13
35.880        40
35.890        33
35.900         7
35.910        47
35.920        40
35.930        20
35.940        33
35.950        27
35.960        27
35.970        53
35.980        40
35.990        20
36.000         7
36.010        13
36.020        27
36.030         7
36.040        33
36.050         7
36.060        20
36.070        33
36.080         7
36.090        20
36.100        13
36.110        20
36.120        27
36.130        47
36.140        20
36.150        13
36.160        33
36.170        33
36.180        13
36.190        47
36.200        27
36.210        47
36.220        13
36.230        27
36.240        13
36.250        20
36.260        27
36.270         7
36.280        20
36.290         7
36.300        27
36.310        13
36.320        27
36.330        20
36.340         0
36.350        53
36.360        13
36.370        13
36.380         7
36.390        27
36.400        27
36.410         7
36.420        27
36.430        20
36.440        20
36.450        13
36.460        13
36.470         7
36.480        40
36.490        27
36.500        20
36.510        20
36.520        20
36.530         0
36.540        27
36.550        13
36.560         7
36.570        33
36.580        13
36.590         7
36.600         7
36.610        20
36.620        40
36.630        33
36.640         7
36.650        33
36.660        27
36.670        27
36.680        40
36.690        27
36.700        20
36.710        53
36.720         7
36.730        20
36.740        20
36.750        20
36.760        40
36.770        27
36.780        13
36.790        33
36.800        20
36.810         7
36.820         7
36.830        27
36.840        13
36.850        27
36.860         7
36.870        27
36.880        20
36.890        20
36.900        33
36.910        13
36.920        33
36.930        13
36.940        13
36.950        13
36.960        13
36.970        40
36.980        20
36.990        20
37.000        13
37.010        20
37.020         7
37.030        13
37.040        27
37.050        20
37.060         7
37.070        20
37.080        27
37.090        20
37.100        20
37.110        33
37.120        40
37.130        13
37.140        40
37.150        27
37.160        27
37.170        13
37.180        20
37.190        13
37.200        27
37.210        13
37.220        13
37.230        47
37.240        13
37.250        20
37.260        33
37.270         7
37.280        20
37.290        27
37.300        13
37.310        27
37.320        13
37.330        13
37.340        27
37.350         7
37.360        20
37.370        27
37.380        20
37.390        33
37.400        13
37.410        40
37.420        40
37.430        20
37.440        20
37.450        33
37.460        27
37.470        27
37.480        27
37.490        27
37.500        13
37.510        53
37.520         7
37.530        33
37.540        20
37.550        27
37.560        13
37.570        13
37.580        13
37.590        27
37.600        20
37.610        13
37.620         0
37.630         7
37.640        33
37.650        33
37.660        27
37.670         0
37.680         0
37.690        13
37.700        33
37.710         7
37.720        27
37.730         0
37.740         0
37.750         7
37.760        20
37.770         7
37.780        27
37.790        40
37.800        27
37.810        27
37.820         7
37.830        13
37.840        27
37.850        40
37.860        47
37.870        20
37.880        33
37.890        27
37.900        13
37.910         7
37.920        20
37.930        33
37.940        20
37.950        27
37.960         7
37.970        13
37.980        13
37.990        27
38.000        13
38.010        20
38.020        20
38.030        13
38.040         7
38.050        27
38.060         7
38.070        13
38.080         7
38.090        13
38.100        27
38.110         7
38.120        13
38.130        13
38.140         7
38.150        20
38.160        13
38.170        20
38.180        27
38.190        13
38.200        20
38.210        20
38.220        13
38.230        33
38.240        20
38.250         7
38.260        13
38.270        27
38.280        20
38.290        20
38.300        33
38.310        27
38.320        13
38.330        33
38.340         0
38.350        27
38.360        13
38.370        20
38.380        33
38.390         7
38.400        20
38.410        40
38.420        27
38.430        40
38.440        20
38.450        13
38.460        27
38.470        13
38.480         7
38.490        13
38.500        20
38.510        20
38.520        20
38.530         7
38.540         7
38.550         7
38.560         7
38.570         7
38.580         7
38.590        27
38.600        13
38.610        13
38.620        20
38.630        20
38.640        27
38.650        27
38.660        13
38.670        40
38.680        27
38.690        40
38.700        20
38.710        20
38.720         7
38.730        20
38.740        33
38.750        33
38.760         7
38.770         7
38.780        47
38.790        53
38.800        27
38.810        33
38.820        20
38.830        20
38.840        20
38.850        33
38.860        13
38.870        20
38.880        33
38.890        27
38.900        20
38.910        13
38.920        27
38.930         7
38.940        13
38.950        13
38.960        20
38.970        27
38.980        13
38.990        33
39.000        13
39.010        20
39.020        33
39.030        13
39.040        20
39.050         7
39.060        20
39.070        20
39.080        13
39.090        47
39.100         7
39.110        40
39.120        40
39.130         7
39.140        13
39.150        53
39.160        27
39.170        33
39.180         0
39.190        33
39.200        13
39.210         0
39.220        20
39.230        27
39.240         0
39.250        13
39.260        33
39.270        27
39.280        47
39.290        20
39.300        27
39.310        40
39.320        47
39.330        67
39.340        20
39.350        20
39.360        20
39.370        33
39.380        27
39.390        27
39.400        33
39.410        20
39.420        33
39.430        33
39.440        20
39.450        20
39.460        27
39.470        40
39.480        33
39.490        13
39.500        40
39.510        27
39.520        13
39.530        13
39.540        20
39.550         7
39.560        13
39.570         7
39.580        13
39.590        20
39.600        27
39.610        33
39.620        33
39.630        40
39.640        33
39.650        53
39.660        13
39.670         7
39.680        20
39.690        40
39.700        13
39.710        27
39.720        13
39.730         7
39.740         7
39.750        33
39.760        20
39.770        27
39.780        20
39.790        27
39.800        20
39.810        80
39.820        27
39.830        20
39.840         7
39.850        27
39.860        33
39.870        20
39.880        40
39.890        20
39.900        33
39.910        33
39.920        13
39.930        47
39.940        40
39.950        33
39.960        27
39.970        53
39.980        33
39.990        27
40.000        33
40.010        27
40.020        40
40.030        33
40.040        33
40.050        40
40.060        47
40.070        47
40.080        13
40.090        67
40.100        40
40.110        33
40.120        20
40.130        27
40.140        27
40.150        47
40.160        60
40.170        33
40.180        27
40.190        20
40.200        40
40.210        40
40.220        33
40.230        33
40.240        33
40.250        20
40.260        20
40.270        47
40.280        27
40.290        33
40.300        27
40.310         7
40.320        13
40.330        33
40.340        13
40.350        53
40.360        13
40.370        20
40.380        27
40.390        13
40.400         0
40.410        20
40.420        33
40.430        20
40.440        13
40.450        20
40.460        33
40.470        47
40.480        13
40.490        13
40.500        20
40.510        20
40.520        20
40.530        47
40.540        20
40.550        20
40.560        13
40.570        27
40.580        20
40.590        13
40.600        20
40.610        13
40.620        20
40.630        27
40.640        33
40.650        27
40.660         7
40.670        33
40.680        27
40.690        13
40.700        27
40.710        27
40.720         7
40.730        33
40.740        13
40.750         0
40.760        27
40.770        13
40.780        33
40.790        13
40.800        27
40.810        27
40.820        13
40.830        20
40.840        27
40.850        20
40.860        13
40.870        13
40.880        53
40.890         7
40.900        33
40.910        13
40.920        20
40.930        13
40.940        40
40.950        20
40.960        20
40.970        20
40.980        13
40.990        20
41.000        13
41.010        33
41.020        13
41.030        27
41.040        27
41.050        13
41.060        20
41.070        47
41.080        20
41.090        27
41.100         0
41.110        20
41.120        13
41.130        27
41.140        33
41.150        20
41.160         7
41.170        27
41.180        13
41.190        27
41.200        27
41.210        33
41.220        33
41.230        33
41.240        53
41.250        13
41.260        20
41.270        40
41.280        20
41.290        13
41.300        47
41.310        27
41.320        20
41.330        27
41.340        40
41.350        40
41.360        27
41.370        27
41.380        60
41.390        47
41.400         7
41.410        33
41.420        40
41.430        73
41.440        33
41.450        27
41.460        47
41.470        47
41.480         7
41.490        33
41.500        47
41.510        53
41.520        40
41.530        40
41.540        40
41.550        47
41.560        33
41.570        33
41.580        33
41.590        40
41.600        47
41.610        53
41.620        40
41.630        47
41.640        27
41.650        13
41.660        40
41.670        33
41.680        40
41.690        27
41.700        13
41.710        20
41.720        13
41.730        27
41.740        33
41.750        33
41.760        20
41.770        40
41.780         7
41.790        33
41.800         0
41.810        13
41.820        27
41.830        20
41.840        27
41.850        40
41.860        13
41.870         7
41.880        27
41.890        20
41.900        20
41.910        33
41.920        13
41.930        13
41.940        27
41.950        40
41.960        53
41.970        27
41.980        33
41.990        40
42.000        27
42.010        13
42.020         7
42.030         0
42.040         7
42.050        20
42.060        20
42.070        13
42.080        27
42.090        13
42.100        13
42.110        13
42.120        40
42.130        20
42.140        20
42.150        27
42.160        13
42.170        33
42.180        27
42.190        13
42.200        13
42.210        13
42.220        47
42.230        27
42.240        27
42.250        13
42.260        33
42.270        20
42.280         0
42.290        20
42.300        33
42.310        20
42.320        13
42.330        13
42.340        13
42.350        33
42.360         7
42.370        27
42.380         0
42.390        20
42.400        40
42.410        27
42.420        47
42.430        20
42.440        13
42.450         7
42.460        33
42.470        27
42.480         7
42.490        33
42.500        20
42.510        13
42.520         7
42.530        33
42.540        27
42.550        27
42.560        13
42.570        13
42.580        27
42.590        27
42.600        20
42.610        40
42.620        13
42.630        13
42.640        40
42.650        40
42.660        13
42.670        20
42.680        20
42.690        20
42.700        13
42.710         7
42.720         7
42.730         7
42.740        13
42.750        20
42.760        20
42.770         7
42.780         7
42.790         7
42.800        20
42.810        13
42.820        27
42.830        20
42.840        13
42.850        20
42.860        33
42.870        27
42.880        20
42.890        27
42.900        33
42.910         7
42.920        13
42.930        40
42.940        40
42.950        47
42.960        33
42.970        13
42.980         7
42.990         7
43.000        20
43.010        27
43.020        40
43.030        20
43.040        13
43.050        40
43.060        33
43.070        67
43.080        33
43.090        27
43.100        20
43.110        47
43.120        27
43.130        27
43.140        47
43.150        40
43.160        27
43.170        47
43.180        40
43.190        40
43.200         0
43.210        20
43.220        33
43.230        20
43.240         7
43.250         7
43.260         7
43.270         7
43.280        33
43.290        33
43.300        27
43.310        20
43.320        33
43.330        13
43.340        47
43.350        27
43.360        20
43.370        27
43.380        13
43.390        47
43.400        20
43.410        20
43.420        40
43.430        27
43.440        80
43.450        20
43.460         7
43.470         0
43.480        33
43.490        33
43.500         0
43.510        20
43.520        13
43.530        20
43.540        13
43.550        40
43.560        27
43.570        13
43.580        20
43.590        20
43.600        20
43.610        27
43.620        27
43.630        13
43.640        13
43.650        27
43.660        27
43.670        13
43.680        27
43.690        47
43.700        13
43.710        27
43.720        33
43.730         7
43.740        27
43.750        33
43.760        27
43.770        27
43.780        60
43.790        53
43.800        13
43.810        13
43.820        20
43.830        53
43.840        27
43.850         7
43.860        27
43.870        20
43.880        60
43.890        33
43.900        20
43.910        53
43.920        47
43.930        27
43.940         7
43.950        13
43.960        20
43.970        13
43.980        20
43.990        53
44.000        47
44.010        40
44.020        20
44.030        60
44.040        47
44.050        27
44.060        47
44.070        67
44.080        33
44.090        53
44.100        33
44.110        40
44.120        33
44.130        27
44.140        27
44.150        47
44.160        33
44.170        33
44.180        27
44.190        80
44.200        13
44.210        20
44.220        27
44.230        47
44.240        33
44.250        40
44.260        13
44.270        40
44.280        27
44.290        40
44.300        53
44.310        47
44.320        67
44.330        40
44.340        60
44.350        20
44.360        20
44.370        27
44.380        40
44.390        93
44.400        60
44.410        53
44.420        80
44.430        13
44.440        33
44.450        40
44.460        33
44.470        27
44.480        53
44.490        80
44.500        60
44.510        80
44.520        67
44.530        27
44.540        47
44.550       120
44.560        53
44.570        53
44.580        53
44.590       100
44.600        67
44.610       100
44.620        60
44.630        53
44.640        53
44.650        73
44.660        33
44.670        47
44.680        67
44.690        87
44.700        40
44.710        73
44.720        87
44.730        80
44.740        67
44.750       120
44.760       107
44.770        67
44.780        73
44.790        60
44.800        87
44.810        80
44.820        93
44.830        60
44.840        87
44.850        80
44.860        93
44.870        67
44.880        93
44.890       100
44.900        93
44.910        60
44.920        60
44.930       100
44.940       107
44.950       100
44.960       153
44.970       107
44.980       107
44.990        93
45.000       127
45.010       140
45.020        87
45.030       107
45.040       107
45.050       107
45.060       173
45.070        93
45.080        93
45.090       100
45.100       140
45.110       140
45.120       107
45.130        73
45.140       107
45.150       113
45.160       133
45.170       153
45.180       100
45.190       113
45.200       147
45.210       153
45.220       193
45.230       160
45.240       147
45.250       120
45.260       147
45.270       193
45.280       140
45.290       253
45.300       140
45.310       127
45.320       253
45.330       167
45.340       193
45.350       293
45.360       187
45.370       187
45.380       273
45.390       200
45.400       220
45.410       213
45.420       213
45.430       207
45.440       220
45.450       260
45.460       267
45.470       267
45.480       327
45.490       260
45.500       360
45.510       347
45.520       293
45.530       420
45.540       260
45.550       300
45.560       307
45.570       473
45.580       433
45.590       300
45.600       453
45.610       526
45.620       393
45.630       426
45.640       480
45.650       400
45.660       540
45.670       473
45.680       520
45.690       586
45.700       646
45.710       573
45.720       693
45.730       713
45.740       706
45.750       660
45.760       846
45.770       793
45.780       813
45.790       880
45.800       813
45.810      1026
45.820       826
45.830      1060
45.840       960
45.850      1193
45.860      1259
45.870      1073
45.880      1259
45.890      1326
45.900      1486
45.910      1339
45.920      1466
45.930      1479
45.940      1606
45.950      1806
45.960      1619
45.970      1419
45.980      1879
45.990      1806
46.000      1753
46.010      2013
46.020      1999
46.030      2232
46.040      2246
46.050      2166
46.060      2073
46.070      2306
46.080      2206
46.090      2386
46.100      2466
46.110      2726
46.120      2466
46.130      2392
46.140      2546
46.150      2832
46.160      2559
46.170      3085
46.180      3019
46.190      2965
46.200      3112
46.210      3132
46.220      2912
46.230      2899
46.240      2859
46.250      3132
46.260      3132
46.270      3039
46.280      3045
46.290      3112
46.300      2979
46.310      2972
46.320      3012
46.330      3045
46.340      2772
46.350      2932
46.360      2732
46.370      2806
46.380      2472
46.390      2719
46.400      2492
46.410      2446
46.420      2732
46.430      2579
46.440      2279
46.450      2532
46.460      2412
46.470      2266
46.480      2412
46.490      2139
46.500      2372
46.510      2226
46.520      2159
46.530      1899
46.540      1846
46.550      1866
46.560      1726
46.570      1759
46.580      1493
46.590      1659
46.600      1579
46.610      1486
46.620      1419
46.630      1533
46.640      1306
46.650      1266
46.660      1206
46.670      1140
46.680      1266
46.690      1226
46.700      1073
46.710      1186
46.720      1000
46.730      1026
46.740       973
46.750       880
46.760       960
46.770       746
46.780       840
46.790       900
46.800       786
46.810       700
46.820       606
46.830       713
46.840       753
46.850       593
46.860       666
46.870       553
46.880       660
46.890       593
46.900       573
46.910       526
46.920       560
46.930       393
46.940       566
46.950       407
46.960       446
46.970       533
46.980       360
46.990       440
47.000       367
47.010       413
47.020       393
47.030       340
47.040       353
47.050       340
47.060       347
47.070       360
47.080       340
47.090       313
47.100       307
47.110       267
47.120       313
47.130       293
47.140       240
47.150       320
47.160       193
47.170       220
47.180       233
47.190       220
47.200       240
47.210       200
47.220       193
47.230       207
47.240       233
47.250       140
47.260       153
47.270       173
47.280       127
47.290       107
47.300       160
47.310       160
47.320       187
47.330       220
47.340       140
47.350       207
47.360       133
47.370       153
47.380        93
47.390       133
47.400       213
47.410       180
47.420       147
47.430       153
47.440       187
47.450        87
47.460       127
47.470       233
47.480       120
47.490       140
47.500       153
47.510       153
47.520       153
47.530       113
47.540       120
47.550       133
47.560       113
47.570       147
47.580       120
47.590       100
47.600        80
47.610       173
47.620        93
47.630       160
47.640       113
47.650        80
47.660       133
47.670        73
47.680        73
47.690        93
47.700        73
47.710        60
47.720        73
47.730        53
47.740        93
47.750        67
47.760        73
47.770        67
47.780        67
47.790        87
47.800        33
47.810        47
47.820        73
47.830        73
47.840        93
47.850        80
47.860        93
47.870       107
47.880        47
47.890        87
47.900        87
47.910        60
47.920        67
47.930        73
47.940        67
47.950        53
47.960        53
47.970        67
47.980        93
47.990        53
48.000        73
48.010        80
48.020        80
48.030        60
48.040        53
48.050        27
48.060        80
48.070        93
48.080       100
48.090        47
48.100        73
48.110        60
48.120        53
48.130        47
48.140        40
48.150        80
48.160        47
48.170        27
48.180        53
48.190        40
48.200        73
48.210        67
48.220        27
48.230        60
48.240        53
48.250       120
48.260        53
48.270        73
48.280       113
48.290        67
48.300        80
48.310        73
48.320        40
48.330        60
48.340        67
48.350        60
48.360        33
48.370        47
48.380       100
48.390        80
48.400        53
48.410        73
48.420        93
48.430        80
48.440        27
48.450        73
48.460        93
48.470        47
48.480        40
48.490        80
48.500        40
48.510        60
48.520        47
48.530        33
48.540        73
48.550        33
48.560        87
48.570        60
48.580        40
48.590        53
48.600        67
48.610        40
48.620        40
48.630         7
48.640        80
48.650        40
48.660        93
48.670        60
48.680        47
48.690        53
48.700        27
48.710        47
48.720        67
48.730        20
48.740        33
48.750        53
48.760        40
48.770        60
48.780        60
48.790        47
48.800        40
48.810        53
48.820        53
48.830        27
48.840        33
48.850        40
48.860        33
48.870        40
48.880        40
48.890        80
48.900        73
48.910        53
48.920        47
48.930        67
48.940        27
48.950        27
48.960        87
48.970        20
48.980        40
48.990        40
49.000        27
49.010        60
49.020        40
49.030        27
49.040        33
49.050        40
49.060        27
49.070        33
49.080        33
49.090        27
49.100        67
49.110        47
49.120         7
49.130        40
49.140        80
49.150        60
49.160        40
49.170        47
49.180        53
49.190       100
49.200        47
49.210        13
49.220        53
49.230        47
49.240        60
49.250        40
49.260        47
49.270        53
49.280        60
49.290        53
49.300        40
49.310        13
49.320        47
49.330        27
49.340        47
49.350        40
49.360        53
49.370        40
49.380        20
49.390        53
49.400        67
49.410        47
49.420        53
49.430        47
49.440        13
49.450        47
49.460        40
49.470        73
49.480        47
49.490        40
49.500        60
49.510        53
49.520        47
49.530        40
49.540        13
49.550        47
49.560        27
49.570        40
49.580        33
49.590        47
49.600        33
49.610        40
49.620        53
49.630        67
49.640        73
49.650        53
49.660        20
49.670        13
49.680        20
49.690        27
49.700        60
49.710        40
49.720        60
49.730        47
49.740        47
49.750        40
49.760        20
49.770        40
49.780        53
49.790        80
49.800        20
49.810        47
49.820        13
49.830        60
49.840        33
49.850        40
49.860        53
49.870        27
49.880        73
49.890        47
49.900        47
49.910        33
49.920        33
49.930        20
49.940        20
49.950        20
49.960        27
49.970        67
49.980        33
49.990        53
50.000        33
50.010        80
50.020        53
50.030        40
50.040        20
50.050        33
50.060         7
50.070        53
50.080        13
50.090        40
50.100        40
50.110        40
50.120        53
50.130        47
50.140        27
50.150        20
50.160        47
50.170        33
50.180        13
50.190        33
50.200        27
50.210        47
50.220        40
50.230        53
50.240        27
50.250        27
50.260        27
50.270        33
50.280        33
50.290        40
50.300        13
50.310        40
50.320        40
50.330        20
50.340        20
50.350        20
50.360        47
50.370        33
50.380        33
50.390        40
50.400        27
50.410        33
50.420        53
50.430        47
50.440        67
50.450        33
50.460        33
50.470        40
50.480        47
50.490        27
50.500        13
50.510        73
50.520        20
50.530        33
50.540        47
50.550        73
50.560        53
50.570        60
50.580        33
50.590        53
50.600        13
50.610        53
50.620        40
50.630        33
50.640        20
50.650        33
50.660        33
50.670        47
50.680        60
50.690         7
50.700        53
50.710         7
50.720        33
50.730        33
50.740        47
50.750        47
50.760        47
50.770        33
50.780        27
50.790        33
50.800        20
50.810        47
50.820        13
50.830        27
50.840        33
50.850        20
50.860        40
50.870        33
50.880        47
50.890        47
50.900        20
50.910        33
50.920        87
50.930        47
50.940        33
50.950        47
50.960        47
50.970        33
50.980        33
50.990        27
51.000        33
51.010        27
51.020        33
51.030        20
51.040        27
51.050        33
51.060        40
51.070        53
51.080        47
51.090        20
51.100        40
51.110        73
51.120        13
51.130        20
51.140        33
51.150        20
51.160         0
51.170        53
51.180        53
51.190         7
51.200        27
51.210        20
51.220        27
51.230        20
51.240        27
51.250        40
51.260        13
51.270        53
51.280        13
51.290        47
51.300        13
51.310        27
51.320        27
51.330        20
51.340        27
51.350        53
51.360        60
51.370        13
51.380        33
51.390        60
51.400        27
51.410        13
51.420        20
51.430        13
51.440        60
51.450        47
51.460        33
51.470        20
51.480        27
51.490        53
51.500        20
51.510        47
51.520        20
51.530        33
51.540        33
51.550        33
51.560         7
51.570        40
51.580        20
51.590        40
51.600        47
51.610        33
51.620        40
51.630        27
51.640        33
51.650        33
51.660        20
51.670        13
51.680        27
51.690        33
51.700        33
51.710        33
51.720        20
51.730        40
51.740        53
51.750        47
51.760        27
51.770        27
51.780        20
51.790        33
51.800        60
51.810        53
51.820        27
51.830        27
51.840        20
51.850        53
51.860        47
51.870        40
51.880        20
51.890        33
51.900        27
51.910        33
51.920        33
51.930        33
51.940        33
51.950        27
51.960        40
51.970        47
51.980        33
51.990        33
52.000        27
52.010        40
52.020        27
52.030        27
52.040        40
52.050        40
52.060        47
52.070         7
52.080        73
52.090         7
52.100        27
52.110        53
52.120        53
52.130        47
52.140        40
52.150        47
52.160        67
52.170        40
52.180        27
52.190        20
52.200        47
52.210        60
52.220        33
52.230        20
52.240        93
52.250        27
52.260        47
52.270        47
52.280        40
52.290        47
52.300        27
52.310        40
52.320        33
52.330        33
52.340        33
52.350        53
52.360        53
52.370        53
52.380        27
52.390        33
52.400        40
52.410        33
52.420        47
52.430        27
52.440        27
52.450        53
52.460        60
52.470        33
52.480        27
52.490        40
52.500        53
52.510        27
52.520        13
52.530        27
52.540        33
52.550        33
52.560        67
52.570        33
52.580        47
52.590        40
52.600        73
52.610         7
52.620        47
52.630        33
52.640        47
52.650        27
52.660        40
52.670        40
52.680        47
52.690        53
52.700        53
52.710        40
52.720        27
52.730        53
52.740        87
52.750        67
52.760        80
52.770        40
52.780        53
52.790        40
52.800        13
52.810        47
52.820        40
52.830        33
52.840        27
52.850        40
52.860        47
52.870        33
52.880        60
52.890        20
52.900        33
52.910        60
52.920        40
52.930        27
52.940        40
52.950        47
52.960        67
52.970        27
52.980        27
52.990        47
53.000        20
53.010        53
53.020        27
53.030        53
53.040        27
53.050        33
53.060        40
53.070        47
53.080        60
53.090        53
53.100        13
53.110        47
53.120        33
53.130        27
53.140        27
53.150        27
53.160        13
53.170        33
53.180        47
53.190        20
53.200        40
53.210        40
53.220        27
53.230        33
53.240        33
53.250        40
53.260        33
53.270        33
53.280        33
53.290        27
53.300        20
53.310        47
53.320        27
53.330        40
53.340        60
53.350        20
53.360        33
53.370        47
53.380        20
53.390        40
53.400        53
53.410        27
53.420        60
53.430        40
53.440         7
53.450        20
53.460         0
53.470        40
53.480        33
53.490        33
53.500        40
53.510        53
53.520        40
53.530        33
53.540         7
53.550        13
53.560        27
53.570         7
53.580        47
53.590        40
53.600         7
53.610        20
53.620        33
53.630        47
53.640        33
53.650         7
53.660        47
53.670        20
53.680        13
53.690         7
53.700        13
53.710        20
53.720        40
53.730        13
53.740        33
53.750        53
53.760        40
53.770        13
53.780        13
53.790        27
53.800        20
53.810        40
53.820        40
53.830        33
53.840         7
53.850        33
53.860        40
53.870        13
53.880        47
53.890        20
53.900        20
53.910        40
53.920        27
53.930        20
53.940         0
53.950        33
53.960        27
53.970        33
53.980        40
53.990        13
54.000        40
54.010        40
54.020         7
54.030        40
54.040        20
54.050        20
54.060        27
54.070        53
54.080        33
54.090        20
54.100        27
54.110        20
54.120        33
54.130        13
54.140        33
54.150        13
54.160        20
54.170        13
54.180        33
54.190        40
54.200         7
54.210        20
54.220        13
54.230        27
54.240        47
54.250        53
54.260        40
54.270        33
54.280        40
54.290        27
54.300        33
54.310        53
54.320         7
54.330         7
54.340        40
54.350        20
54.360        33
54.370        13
54.380        33
54.390        67
54.400        40
54.410        33
54.420        27
54.430         7
54.440        27
54.450        40
54.460        40
54.470        33
54.480        27
54.490         7
54.500        27
54.510        47
54.520        40
54.530        47
54.540        47
54.550        27
54.560         7
54.570        27
54.580        47
54.590        53
54.600        33
54.610        40
54.620        20
54.630        27
54.640        40
54.650        13
54.660        27
54.670        40
54.680        33
54.690        13
54.700         7
54.710        40
54.720         7
54.730        13
54.740        27
54.750        47
54.760        20
54.770         7
54.780        27
54.790        20
54.800        13
54.810        20
54.820        27
54.830         0
54.840        40
54.850        13
54.860        13
54.870         7
54.880        13
54.890        47
54.900        20
54.910        40
54.920        20
54.930        13
54.940        27
54.950        27
54.960        20
54.970        27
54.980         7
54.990        27
55.000        40
55.010         7
55.020         7
55.030        47
55.040        13
55.050        47
55.060         7
55.070        13
55.080        27
55.090        20
55.100        20
55.110        13
55.120        33
55.130        27
55.140        20
55.150         0
55.160        27
55.170        13
55.180        13
55.190        20
55.200        40
55.210        27
55.220         7
55.230        27
55.240        60
55.250         0
55.260        27
55.270        20
55.280        33
55.290        53
55.300        33
55.310         7
55.320        20
55.330        27
55.340         7
55.350        13
55.360        20
55.370        27
55.380        40
55.390        13
55.400        20
55.410        13
55.420        40
55.430        40
55.440        33
55.450        27
55.460        27
55.470        20
55.480         7
55.490        27
55.500        47
55.510        33
55.520        40
55.530        13
55.540        20
55.550        33
55.560        27
55.570        33
55.580        33
55.590        33
55.600        13
55.610        20
55.620        20
55.630         0
55.640        13
55.650        20
55.660        20
55.670        20
55.680        27
55.690        33
55.700         0
55.710        20
55.720        33
55.730        27
55.740        33
55.750        27
55.760        20
55.770        20
55.780         7
55.790        20
55.800        27
55.810        13
55.820         0
55.830        40
55.840        20
55.850        33
55.860        27
55.870        13
55.880        27
55.890        13
55.900        13
55.910        13
55.920        20
55.930        13
55.940        20
55.950        33
55.960        33
55.970        20
55.980        20
55.990        13
56.000        13
56.010        53
56.020        20
56.030        27
56.040        13
56.050        33
56.060        20
56.070        40
56.080         7
56.090        20
56.100        33
56.110        27
56.120        27
56.130        27
56.140        33
56.150        13
56.160        20
56.170        33
56.180        27
56.190        33
56.200        13
56.210         0
56.220        20
56.230         7
56.240        33
56.250        47
56.260        40
56.270        27
56.280        20
56.290        20
56.300        33
56.310         0
56.320        20
56.330        33
56.340        13
56.350        20
56.360         7
56.370        27
56.380        20
56.390        13
56.400        13
56.410        40
56.420        33
56.430        27
56.440        33
56.450        27
56.460        13
56.470        33
56.480        73
56.490         7
56.500        13
56.510        27
56.520        20
56.530        27
56.540        13
56.550         7
56.560        20
56.570        27
56.580         7
56.590        27
56.600        27
56.610        20
56.620        13
56.630        13
56.640         0
56.650        13
56.660        33
56.670        20
56.680        27
56.690        40
56.700        27
56.710        20
56.720        27
56.730        20
56.740        20
56.750        53
56.760         0
56.770        33
56.780        20
56.790        13
56.800        20
56.810        13
56.820        13
56.830        47
56.840         7
56.850        40
56.860         0
56.870        27
56.880        40
56.890        27
56.900        27
56.910         7
56.920        13
56.930        33
56.940        20
56.950        33
56.960        47
56.970        27
56.980         7
56.990        47
57.000         7
57.010        33
57.020         0
57.030         7
57.040        27
57.050        20
57.060         0
57.070         0
57.080        20
57.090         7
57.100        20
57.110         7
57.120        40
57.130         7
57.140        20
57.150        27
57.160        13
57.170        27
57.180         0
57.190        27
57.200         7
57.210         7
57.220        27
57.230        33
57.240        33
57.250        20
57.260        20
57.270        40
57.280        13
57.290         7
57.300         7
57.310        27
57.320        20
57.330        20
57.340        20
57.350        13
57.360        27
57.370        20
57.380        20
57.390        20
57.400        33
57.410        13
57.420        27
57.430        47
57.440        13
57.450        27
57.460        27
57.470         7
57.480        20
57.490        13
57.500        33
57.510         7
57.520        13
57.530        20
57.540         7
57.550         7
57.560         7
57.570        20
57.580        27
57.590        20
57.600        20
57.610        13
57.620        27
57.630        40
57.640        13
57.650         7
57.660        20
57.670         7
57.680        27
57.690         0
57.700        13
57.710        20
57.720        27
57.730        47
57.740         7
57.750        27
57.760        13
57.770         7
57.780        33
57.790        13
57.800         7
57.810        27
57.820        40
57.830        20
57.840        13
57.850        40
57.860        27
57.870        27
57.880        33
57.890         7
57.900        33
57.910        33
57.920         7
57.930        20
57.940        33
57.950        20
57.960        53
57.970        40
57.980        27
57.990        13
58.000        20
58.010        13
58.020        13
58.030        13
58.040         7
58.050        40
58.060        13
58.070        27
58.080        33
58.090        13
58.100        27
58.110        27
58.120        13
58.130        20
58.140        27
58.150        20
58.160        13
58.170        20
58.180        27
58.190        13
58.200         0
58.210        20
58.220        33
58.230        33
58.240        27
58.250         7
58.260        40
58.270        20
58.280        13
58.290        27
58.300        20
58.310        53
58.320        13
58.330        33
58.340        47
58.350         7
58.360        20
58.370        27
58.380         7
58.390        27
58.400         7
58.410        13
58.420        20
58.430        20
58.440        20
58.450        20
58.460        13
58.470        20
58.480        13
58.490        13
58.500        33
58.510        13
58.520         7
58.530        13
58.540        27
58.550        27
58.560        13
58.570        13
58.580        40
58.590        27
58.600         0
58.610        13
58.620        13
58.630        20
58.640        13
58.650        33
58.660        20
58.670        20
58.680        20
58.690        13
58.700        20
58.710        27
58.720        27
58.730         7
58.740        20
58.750        13
58.760        20
58.770        13
58.780        33
58.790        13
58.800        13
58.810         0
58.820        13
58.830         7
58.840         7
58.850        27
58.860        20
58.870        13
58.880        20
58.890        20
58.900        13
58.910         7
58.920        13
58.930        20
58.940        33
58.950        27
58.960        27
58.970        20
58.980        27
58.990        27
59.000         7
59.010        33
59.020         7
59.030        27
59.040        27
59.050        13
59.060        40
59.070         7
59.080        20
59.090        20
59.100        27
59.110         0
59.120        40
59.130        27
59.140        33
59.150        20
59.160         7
59.170         0
59.180        27
59.190         0
59.200        13
59.210        13
59.220         0
59.230        20
59.240         7
59.250         7
59.260        20
59.270        13
59.280        20
59.290        13
59.300        20
59.310         7
59.320        20
59.330        27
59.340         7
59.350        13
59.360         0
59.370        20
59.380        20
59.390        13
59.400        20
59.410        20
59.420        27
59.430         7
59.440        20
59.450        20
59.460         7
59.470        13
59.480         7
59.490        20
59.500        20
59.510        13
59.520         0
59.530        13
59.540        27
59.550        13
59.560        33
59.570        20
59.580        13
59.590        20
59.600         7
59.610         7
59.620        27
59.630         7
59.640        13
59.650         7
59.660         7
59.670        13
59.680        13
59.690         7
59.700         7
59.710        20
59.720        13
59.730        47
59.740        20
59.750         7
59.760        13
59.770        27
59.780        27
59.790        20
59.800        20
59.810        27
59.820         7
59.830        13
59.840        20
59.850        13
59.860        27
59.870         0
59.880        13
59.890        20
59.900         0
59.910         7
59.920         0
59.930        20
59.940        27
59.950        33
59.960        13
59.970        13
59.980        20
59.990        20
60.000        33
