20.000         7
20.010         7
20.020        60
20.030        47
20.040        27
20.050        33
20.060        47
20.070        47
20.080        33
20.090        33
20.100        40
20.110        47
20.120        20
20.130        47
20.140        27
20.150        33
20.160        53
20.170        47
20.180        27
20.190       100
20.200        53
20.210        53
20.220        27
20.230        33
20.240        13
20.250        73
20.260        47
20.270        53
20.280        53
20.290        40
20.300        47
20.310        40
20.320        60
20.330        27
20.340        40
20.350        27
20.360        33
20.370        47
20.380        67
20.390        40
20.400        47
20.410        60
20.420        27
20.430        33
20.440        20
20.450        27
20.460        27
20.470        40
20.480        20
20.490        40
20.500        27
20.510        27
20.520        33
20.530        47
20.540        73
20.550        60
20.560        20
20.570        20
20.580        27
20.590        33
20.600        60
20.610        33
20.620        40
20.630        33
20.640        40
20.650        53
20.660        47
20.670        33
20.680        33
20.690        53
20.700        27
20.710        33
20.720        33
20.730        20
20.740        13
20.750        60
20.760        27
20.770        40
20.780        40
20.790        27
20.800        27
20.810        33
20.820        47
20.830        27
20.840        27
20.850        47
20.860        20
20.870        60
20.880        33
20.890        47
20.900        33
20.910        27
20.920        47
20.930        33
20.940        60
20.950         7
20.960        13
20.970        27
20.980        40
20.990        33
21.000        67
21.010        13
21.020        47
21.030        33
21.040        67
21.050        47
21.060        53
21.070        33
21.080        40
21.090        27
21.100        20
21.110        33
21.120        40
21.130        53
21.140        33
21.150        20
21.160        27
21.170        33
21.180        40
21.190        33
21.200        40
21.210        67
21.220        40
21.230        27
21.240        47
21.250        47
21.260        53
21.270        20
21.280        27
21.290        47
21.300        53
21.310        47
21.320        27
21.330        47
21.340        33
21.350        60
21.360        47
21.370         7
21.380        40
21.390        40
21.400        47
21.410        67
21.420        53
21.430        40
21.440        53
21.450        27
21.460        27
21.470        47
21.480        33
21.490        47
21.500        20
21.510        47
21.520        27
21.530        53
21.540         7
21.550        53
21.560        47
21.570        47
21.580        47
21.590        47
21.600        47
21.610        33
21.620        40
21.630        33
21.640        67
21.650        20
21.660        80
21.670        80
21.680        40
21.690        40
21.700        47
21.710        40
21.720        40
21.730        53
21.740        53
21.750        33
21.760        13
21.770        67
21.780        33
21.790        47
21.800        20
21.810        20
21.820        20
21.830        47
21.840        73
21.850         7
21.860        40
21.870        20
21.880        73
21.890        73
21.900        13
21.910        67
21.920        40
21.930        40
21.940        27
21.950        53
21.960        27
21.970        27
21.980        60
21.990        40
22.000        47
22.010        40
22.020        53
22.030        27
22.040        33
22.050        47
22.060        13
22.070        33
22.080        33
22.090        47
22.100        33
22.110        33
22.120        27
22.130        33
22.140        53
22.150        13
22.160        47
22.170        53
22.180        20
22.190        27
22.200        33
22.210        27
22.220        20
22.230        13
22.240        13
22.250        13
22.260        33
22.270        53
22.280        53
22.290        13
22.300        47
22.310        27
22.320        53
22.330        27
22.340        47
22.350        60
22.360        47
22.370        53
22.380        53
22.390        53
22.400        13
22.410        73
22.420        73
22.430        53
22.440        80
22.450        40
22.460        67
22.470        67
22.480        53
22.490        67
22.500        80
22.510        73
22.520        80
22.530       147
22.540        67
22.550        93
22.560       100
22.570       140
22.580       187
22.590       153
22.600       127
22.610       160
22.620       147
22.630       267
22.640       247
22.650       147
22.660       167
22.670       207
22.680       167
22.690       193
22.700       127
22.710       140
22.720       160
22.730       147
22.740       187
22.750        93
22.760        73
22.770        67
22.780        93
22.790        73
22.800        40
22.810        53
22.820        67
22.830        27
22.840        20
22.850        53
22.860        20
22.870        60
22.880        40
22.890        40
22.900        80
22.910        40
22.920        27
22.930        27
22.940        27
22.950        27
22.960        60
22.970         7
22.980        67
22.990        33
23.000        47
23.010        33
23.020        40
23.030        27
23.040        20
23.050        53
23.060        47
23.070        47
23.080        27
23.090        60
23.100        40
23.110        67
23.120        47
23.130        33
23.140        13
23.150        40
23.160        27
23.170       107
23.180        27
23.190        47
23.200        13
23.210        27
23.220        27
23.230        60
23.240        47
23.250        33
23.260        40
23.270        27
23.280        40
23.290        20
23.300         7
23.310        27
23.320        33
23.330        40
23.340        53
23.350        33
23.360         7
23.370        33
23.380        40
23.390        33
23.400         7
23.410        47
23.420        13
23.430        27
23.440        20
23.450        40
23.460        13
23.470        40
23.480        27
23.490        40
23.500        33
23.510        27
23.520        20
23.530        27
23.540        27
23.550        47
23.560        40
23.570        33
23.580        47
23.590        33
23.600        47
23.610        27
23.620        47
23.630        27
23.640        53
23.650        20
23.660        27
23.670        60
23.680        60
23.690        80
23.700        47
23.710        40
23.720        47
23.730        20
23.740        27
23.750        27
23.760        40
23.770        40
23.780        40
23.790        47
23.800        47
23.810        40
23.820        13
23.830        53
23.840        40
23.850        60
23.860        40
23.870        33
23.880        33
23.890         7
23.900        53
23.910        20
23.920        40
23.930        47
23.940        20
23.950        87
23.960        40
23.970        13
23.980        20
23.990        20
24.000        47
24.010        40
24.020        60
24.030        40
24.040        13
24.050        13
24.060         7
24.070         7
24.080        27
24.090        20
24.100        20
24.110        40
24.120        20
24.130        13
24.140        33
24.150        13
24.160        27
24.170        47
24.180         7
24.190        33
24.200        47
24.210        20
24.220        13
24.230        27
24.240        33
24.250        27
24.260        40
24.270        47
24.280        27
24.290        27
24.300        53
24.310        47
24.320        53
24.330        27
24.340        53
24.350        33
24.360        20
24.370        40
24.380        33
24.390        53
24.400        67
24.410         7
24.420        40
24.430        13
24.440        13
24.450        27
24.460         7
24.470         7
24.480        27
24.490        33
24.500        33
24.510        33
24.520        47
24.530        20
24.540        27
24.550        47
24.560         7
24.570        27
24.580        40
24.590         0
24.600        47
24.610        20
24.620        27
24.630        47
24.640        20
24.650        33
24.660        40
24.670        40
24.680        53
24.690        60
24.700        47
24.710        33
24.720        27
24.730        53
24.740        20
24.750        40
24.760        40
24.770        27
24.780        53
24.790        33
24.800        47
24.810        20
24.820        27
24.830        67
24.840        47
24.850        33
24.860        73
24.870        67
24.880        47
24.890        80
24.900        67
24.910        40
24.920        27
24.930        60
24.940        53
24.950        80
24.960        40
24.970        33
24.980        73
24.990        47
25.000        60
25.010        33
25.020        80
25.030        67
25.040        33
25.050        33
25.060        47
25.070        60
25.080        47
25.090        27
25.100        27
25.110        53
25.120        27
25.130        20
25.140        27
25.150        13
25.160        27
25.170        53
25.180        47
25.190        27
25.200        20
25.210        47
25.220        33
25.230        27
25.240        47
25.250        33
25.260        80
25.270        80
25.280        40
25.290        40
25.300        47
25.310        53
25.320        47
25.330        27
25.340        47
25.350        67
25.360        33
25.370        33
25.380        40
25.390        53
25.400        40
25.410        53
25.420        53
25.430        33
25.440        20
25.450        53
25.460        47
25.470        53
25.480        47
25.490        67
25.500        53
25.510        40
25.520        73
25.530        53
25.540        80
25.550       113
25.560       107
25.570       147
25.580       100
25.590       113
25.600       160
25.610       307
25.620       486
25.630       446
25.640       340
25.650       433
25.660       433
25.670       453
25.680       373
25.690       380
25.700       360
25.710       300
25.720       347
25.730       287
25.740       300
25.750       227
25.760       320
25.770       260
25.780       273
25.790       280
25.800       313
25.810       293
25.820       387
25.830       420
25.840       340
25.850       333
25.860       313
25.870       313
25.880       387
25.890       240
25.900       307
25.910       333
25.920       293
25.930       227
25.940       160
25.950       180
25.960       173
25.970       180
25.980        87
25.990       113
26.000       107
26.010        93
26.020        53
26.030        73
26.040        67
26.050        80
26.060        73
26.070        73
26.080        47
26.090        47
26.100        67
26.110        47
26.120        27
26.130        60
26.140        53
26.150        40
26.160        27
26.170        33
26.180        40
26.190        47
26.200        27
26.210        33
26.220        33
26.230        47
26.240        60
26.250        20
26.260        60
26.270        40
26.280        80
26.290        20
26.300        20
26.310        20
26.320        33
26.330        33
26.340        53
26.350        33
26.360        20
26.370        33
26.380        13
26.390        80
26.400        53
26.410        47
26.420        60
26.430        33
26.440        20
26.450        20
26.460        27
26.470        33
26.480        27
26.490         7
26.500        73
26.510        60
26.520        47
26.530        27
26.540        13
26.550        33
26.560        27
26.570        60
26.580        27
26.590        13
26.600        33
26.610        40
26.620        33
26.630        40
26.640        40
26.650        40
26.660        67
26.670        13
26.680        67
26.690        20
26.700        20
26.710        13
26.720        20
26.730        47
26.740        27
26.750        60
26.760        47
26.770        40
26.780        40
26.790         7
26.800        13
26.810        33
26.820        40
26.830        47
26.840        27
26.850        47
26.860        27
26.870        20
26.880        67
26.890        20
26.900        27
26.910        67
26.920        20
26.930        20
26.940        53
26.950        27
26.960        13
26.970        40
26.980        20
26.990        33
27.000        13
27.010        27
27.020        40
27.030        27
27.040        47
27.050        47
27.060        33
27.070        47
27.080        20
27.090        40
27.100        53
27.110        27
27.120        27
27.130        33
27.140        47
27.150        20
27.160        27
27.170        40
27.180        33
27.190        27
27.200        20
27.210        87
27.220        27
27.230        13
27.240        33
27.250        13
27.260        47
27.270        47
27.280        40
27.290        20
27.300        33
27.310        27
27.320        13
27.330        33
27.340        20
27.350        20
27.360        40
27.370        60
27.380        20
27.390        40
27.400        13
27.410        27
27.420        47
27.430        40
27.440        27
27.450        13
27.460        33
27.470        40
27.480        20
27.490        27
27.500        27
27.510        53
27.520        33
27.530        33
27.540         7
27.550        40
27.560        47
27.570        33
27.580        33
27.590        27
27.600        20
27.610        27
27.620        13
27.630        27
27.640         7
27.650        13
27.660        47
27.670        27
27.680        40
27.690        60
27.700        33
27.710        27
27.720        20
27.730        13
27.740        33
27.750         7
27.760        27
27.770        47
27.780        27
27.790        27
27.800        47
27.810        33
27.820        53
27.830        27
27.840        33
27.850        33
27.860        33
27.870        53
27.880        53
27.890        20
27.900        20
27.910        33
27.920        20
27.930        53
27.940        27
27.950        40
27.960         0
27.970        20
27.980        67
27.990        60
28.000        40
28.010         7
28.020        20
28.030        20
28.040        27
28.050        47
28.060        53
28.070        47
28.080        47
28.090        27
28.100        27
28.110        40
28.120         0
28.130        20
28.140        13
28.150        33
28.160        13
28.170        20
28.180        40
28.190        33
28.200        33
28.210        27
28.220        60
28.230        47
28.240        27
28.250        33
28.260        20
28.270        13
28.280        20
28.290        27
28.300        40
28.310        13
28.320        27
28.330        40
28.340        20
28.350        33
28.360        27
28.370        27
28.380        13
28.390        33
28.400        20
28.410        53
28.420        33
28.430        27
28.440        27
28.450        33
28.460        33
28.470        40
28.480        33
28.490        73
28.500        60
28.510        27
28.520        27
28.530        20
28.540        20
28.550        53
28.560        53
28.570        13
28.580        47
28.590        67
28.600        93
28.610        87
28.620        60
28.630        87
28.640        60
28.650        87
28.660       120
28.670       107
28.680       100
28.690       113
28.700       107
28.710        73
28.720        80
28.730        67
28.740        73
28.750       107
28.760        53
28.770        73
28.780        80
28.790        80
28.800        47
28.810        53
28.820        47
28.830         7
28.840        60
28.850        40
28.860        33
28.870        40
28.880        47
28.890        33
28.900        40
28.910        40
28.920        27
28.930        47
28.940        13
28.950        60
28.960        20
28.970        60
28.980        40
28.990        60
29.000        13
29.010        53
29.020        40
29.030        47
29.040        33
29.050        27
29.060        47
29.070        40
29.080        47
29.090        33
29.100        13
29.110        40
29.120        60
29.130        60
29.140        13
29.150        47
29.160        27
29.170        47
29.180        33
29.190        40
29.200        33
29.210        60
29.220        27
29.230        53
29.240        53
29.250        40
29.260        33
29.270        73
29.280        93
29.290        93
29.300        60
29.310       100
29.320        53
29.330        87
29.340        73
29.350       107
29.360       113
29.370       120
29.380       147
29.390       180
29.400       140
29.410       113
29.420       167
29.430       213
29.440       193
29.450       227
29.460       227
29.470       473
29.480       333
29.490       347
29.500       353
29.510       433
29.520       426
29.530       633
29.540       573
29.550       653
29.560       786
29.570       706
29.580       813
29.590       773
29.600       726
29.610       906
29.620       706
29.630       700
29.640       800
29.650       673
29.660       560
29.670       713
29.680       540
29.690       526
29.700       553
29.710       373
29.720       293
29.730       313
29.740       240
29.750       313
29.760       253
29.770       153
29.780       193
29.790       167
29.800       100
29.810       100
29.820       113
29.830       100
29.840       127
29.850        93
29.860        80
29.870        87
29.880        87
29.890        67
29.900        13
29.910        47
29.920        33
29.930        47
29.940        33
29.950        60
29.960        40
29.970        47
29.980        60
29.990        27
30.000        47
30.010        40
30.020        53
30.030        33
30.040        27
30.050        40
30.060        33
30.070        40
30.080        20
30.090        53
30.100        53
30.110        33
30.120        40
30.130        13
30.140        13
30.150        20
30.160        47
30.170        67
30.180        40
30.190        47
30.200        53
30.210        27
30.220        60
30.230        27
30.240        27
30.250        27
30.260        20
30.270        47
30.280        33
30.290        33
30.300        20
30.310        13
30.320        53
30.330        33
30.340        47
30.350        60
30.360        60
30.370        27
30.380        60
30.390        60
30.400        53
30.410        87
30.420        73
30.430       113
30.440       100
30.450       120
30.460       173
30.470        93
30.480       120
30.490       127
30.500       193
30.510       167
30.520       147
30.530       120
30.540       227
30.550       173
30.560       180
30.570       180
30.580       100
30.590       160
30.600       107
30.610       107
30.620       113
30.630        93
30.640        93
30.650        87
30.660        60
30.670        93
30.680        67
30.690        93
30.700        40
30.710        33
30.720        60
30.730        53
30.740        27
30.750        60
30.760        47
30.770        27
30.780        20
30.790        13
30.800        27
30.810        33
30.820        47
30.830        27
30.840        73
30.850        27
30.860        27
30.870        27
30.880         7
30.890        40
30.900        33
30.910         7
30.920        20
30.930        20
30.940        40
30.950        33
30.960        47
30.970         7
30.980        20
30.990        47
31.000        27
31.010        27
31.020        20
31.030        13
31.040        13
31.050        20
31.060        33
31.070        33
31.080        33
31.090        60
31.100        47
31.110        40
31.120        40
31.130        13
31.140        13
31.150        20
31.160        33
31.170        40
31.180        20
31.190        20
31.200        40
31.210        20
31.220        13
31.230        13
31.240        27
31.250        53
31.260        13
31.270        40
31.280        13
31.290        33
31.300        33
31.310        20
31.320        27
31.330        20
31.340        33
31.350        13
31.360        33
31.370        27
31.380        27
31.390        33
31.400        27
31.410        47
31.420        27
31.430        33
31.440        20
31.450        33
31.460         7
31.470        53
31.480        13
31.490        47
31.500        53
31.510         7
31.520        20
31.530        13
31.540        40
31.550         0
31.560        60
31.570        33
31.580        20
31.590        13
31.600        13
31.610        20
31.620        27
31.630        27
31.640        13
31.650        33
31.660        27
31.670        33
31.680        27
31.690        13
31.700         7
31.710        20
31.720        53
31.730        27
31.740        60
31.750        27
31.760        33
31.770        40
31.780         7
31.790        13
31.800        40
31.810        20
31.820        27
31.830        27
31.840        27
31.850        47
31.860        13
31.870        27
31.880         7
31.890        20
31.900        53
31.910        33
31.920        27
31.930        20
31.940        27
31.950        27
31.960        33
31.970        40
31.980        60
31.990        87
32.000        33
32.010        67
32.020        80
32.030        87
32.040        87
32.050       133
32.060       120
32.070       133
32.080       120
32.090       167
32.100       153
32.110       187
32.120       160
32.130       213
32.140       253
32.150       227
32.160       260
32.170       293
32.180       227
32.190       293
32.200       213
32.210       320
32.220       247
32.230       307
32.240       273
32.250       213
32.260       193
32.270       153
32.280       260
32.290       173
32.300       200
32.310       140
32.320       107
32.330       100
32.340       120
32.350       100
32.360       120
32.370        53
32.380        80
32.390        60
32.400        27
32.410        47
32.420        27
32.430        67
32.440        60
32.450        53
32.460        33
32.470        27
32.480        33
32.490        53
32.500        13
32.510        47
32.520        20
32.530        33
32.540        13
32.550        33
32.560        20
32.570         7
32.580         7
32.590        13
32.600        53
32.610        40
32.620        33
32.630        27
32.640        40
32.650        67
32.660         0
32.670        13
32.680        40
32.690        27
32.700        13
32.710        13
32.720        53
32.730        33
32.740        47
32.750        40
32.760        33
32.770        27
32.780        47
32.790        40
32.800         7
32.810        20
32.820        33
32.830        20
32.840        40
32.850        13
32.860        27
32.870        20
32.880        20
32.890        40
32.900         7
32.910        13
32.920        13
32.930         7
32.940        27
32.950        53
32.960        27
32.970        13
32.980        20
32.990         7
33.000         7
33.010        33
33.020        27
33.030        27
33.040        13
33.050        27
33.060        40
33.070        13
33.080        40
33.090        47
33.100        33
33.110        27
33.120         0
33.130         0
33.140         7
33.150        27
33.160        27
33.170        20
33.180        27
33.190        27
33.200        20
33.210         7
33.220        20
33.230        27
33.240        27
33.250         7
33.260        20
33.270        33
33.280        13
33.290        13
33.300         7
33.310        20
33.320        27
33.330        13
33.340        27
33.350        20
33.360         7
33.370        27
33.380         0
33.390        27
33.400        20
33.410        33
33.420        40
33.430        47
33.440        33
33.450         7
33.460        13
33.470         7
33.480        20
33.490        27
33.500        20
33.510        53
33.520        33
33.530        27
33.540        27
33.550        27
33.560        13
33.570        20
33.580        40
33.590        13
33.600        20
33.610        20
33.620        27
33.630        27
33.640        27
33.650        33
33.660        27
33.670        33
33.680        20
33.690         0
33.700        20
33.710        13
33.720        20
33.730        20
33.740        13
33.750        27
33.760        33
33.770        40
33.780        13
33.790        20
33.800         7
33.810        33
33.820        13
33.830        27
33.840        33
33.850        33
33.860        47
33.870        40
33.880         7
33.890        33
33.900         7
33.910        27
33.920         7
33.930        20
33.940        27
33.950        20
33.960        13
33.970         7
33.980         0
33.990         7
34.000        27
34.010        27
34.020         7
34.030        33
34.040        40
34.050        47
34.060        13
34.070        27
34.080        13
34.090        27
34.100        20
34.110        20
34.120        27
34.130        13
34.140        40
34.150        33
34.160        33
34.170        27
34.180        27
34.190        13
34.200         0
34.210        33
34.220         0
34.230         7
34.240        27
34.250        27
34.260        33
34.270        40
34.280        20
34.290        13
34.300        13
34.310        20
34.320        27
34.330        27
34.340        33
34.350         7
34.360         7
34.370        33
34.380        33
34.390        13
34.400         7
34.410        13
34.420        27
34.430        40
34.440        33
34.450        27
34.460        13
34.470        13
34.480        13
34.490        20
34.500        40
34.510        27
34.520         7
34.530         7
34.540        33
34.550        20
34.560        27
34.570        20
34.580         7
34.590         7
34.600        13
34.610        20
34.620        20
34.630         0
34.640        20
34.650        20
34.660         7
34.670        33
34.680        27
34.690        33
34.700        13
34.710        13
34.720         7
34.730         7
34.740        27
34.750        33
34.760        40
34.770        13
34.780        33
34.790        33
34.800        20
34.810         7
34.820        20
34.830        13
34.840        13
34.850        13
34.860        20
34.870        20
34.880        40
34.890        40
34.900        13
34.910         7
34.920        33
34.930        13
34.940        27
34.950        20
34.960        20
34.970        20
34.980        13
34.990        27
35.000        13
35.010         7
35.020        20
35.030         7
35.040        33
35.050        40
35.060         0
35.070        13
35.080        13
35.090        20
35.100        20
35.110        27
35.120        13
35.130        33
35.140        13
35.150        13
35.160        13
35.170         7
35.180        20
35.190        27
35.200        20
35.210        13
35.220        40
35.230        13
35.240        33
35.250         7
35.260        13
35.270        27
35.280         7
35.290         0
35.300         0
35.310        27
35.320        13
35.330        33
35.340        20
35.350        13
35.360        33
35.370        27
35.380        27
35.390        13
35.400        20
35.410        13
35.420        13
35.430        27
35.440        20
35.450        27
35.460        27
35.470        27
35.480        13
35.490         7
35.500        47
35.510        13
35.520        13
35.530        13
35.540        13
35.550        33
35.560        20
35.570        20
35.580        20
35.590        27
35.600        13
35.610         0
35.620        33
35.630        20
35.640        20
35.650        20
35.660        20
35.670        20
35.680        27
35.690        20
35.700        20
35.710        13
35.720        13
35.730        13
35.740        53
35.750        20
35.760        20
35.770        20
35.780        20
35.790         7
35.800        27
35.810         0
35.820        20
35.830        33
35.840        27
35.850         7
35.860        53
35.870        27
35.880        20
35.890        33
35.900        13
35.910         7
35.920        27
35.930        20
35.940        53
35.950        33
35.960        13
35.970        27
35.980        40
35.990        33
36.000        40
36.010        53
36.020        13
36.030         7
36.040        13
36.050        13
36.060        13
36.070        33
36.080        33
36.090        13
36.100        40
36.110        27
36.120        13
36.130        40
36.140        33
36.150        20
36.160        33
36.170        20
36.180        13
36.190        20
36.200        20
36.210        53
36.220        27
36.230        20
36.240         7
36.250        27
36.260        20
36.270        20
36.280        13
36.290        40
36.300        20
36.310        40
36.320         7
36.330         7
36.340        33
36.350         7
36.360        27
36.370        13
36.380         7
36.390        27
36.400        27
36.410         0
36.420         0
36.430        47
36.440        13
36.450        20
36.460        20
36.470        40
36.480         7
36.490        20
36.500        20
36.510        13
36.520        13
36.530         0
36.540        13
36.550         7
36.560         7
36.570        13
36.580        20
36.590        27
36.600         0
36.610        20
36.620         7
36.630         7
36.640        13
36.650         7
36.660        20
36.670        27
36.680        13
36.690         7
36.700        20
36.710         7
36.720        27
36.730        13
36.740        40
36.750        27
36.760        20
36.770        20
36.780        13
36.790        27
36.800         7
36.810        20
36.820        13
36.830        40
36.840        33
36.850        47
36.860        13
36.870        27
36.880         7
36.890        13
36.900        20
36.910         7
36.920         0
36.930        40
36.940        13
36.950        27
36.960        40
36.970        33
36.980        13
36.990        13
37.000        20
37.010        27
37.020        13
37.030        13
37.040        27
37.050        13
37.060        13
37.070        33
37.080         7
37.090         7
37.100         7
37.110         0
37.120         7
37.130        13
37.140        33
37.150        20
37.160        13
37.170        27
37.180        33
37.190         7
37.200        40
37.210        27
37.220        20
37.230        27
37.240        20
37.250        40
37.260        20
37.270         7
37.280         7
37.290         7
37.300        33
37.310        33
37.320        27
37.330        27
37.340        20
37.350        33
37.360        13
37.370        27
37.380        33
37.390        20
37.400         7
37.410        13
37.420         7
37.430        33
37.440        27
37.450        27
37.460        40
37.470        13
37.480        27
37.490        13
37.500        27
37.510        33
37.520        33
37.530        47
37.540         7
37.550        20
37.560        27
37.570        27
37.580         7
37.590        20
37.600        47
37.610        27
37.620        13
37.630         7
37.640         7
37.650        13
37.660        40
37.670        20
37.680        40
37.690        20
37.700        27
37.710        13
37.720        13
37.730         7
37.740        13
37.750        20
37.760        20
37.770        33
37.780        27
37.790         7
37.800         0
37.810        40
37.820        20
37.830        20
37.840        20
37.850        40
37.860         7
37.870         7
37.880        13
37.890        13
37.900        33
37.910         7
37.920         7
37.930        20
37.940        20
37.950        27
37.960        40
37.970        20
37.980         0
37.990        20
38.000        20
38.010         0
38.020        20
38.030        33
38.040        20
38.050        33
38.060        40
38.070        27
38.080        13
38.090        20
38.100        27
38.110        27
38.120        40
38.130         0
38.140        20
38.150        13
38.160        13
38.170        27
38.180        13
38.190        20
38.200         7
38.210        20
38.220         7
38.230        13
38.240        13
38.250        20
38.260        13
38.270         0
38.280        40
38.290        20
38.300        20
38.310        33
38.320         7
38.330        33
38.340        20
38.350        33
38.360        20
38.370        33
38.380        13
38.390        13
38.400        53
38.410        33
38.420        20
38.430         7
38.440        47
38.450        13
38.460         0
38.470        20
38.480        20
38.490        13
38.500        20
38.510         7
38.520        20
38.530        13
38.540        20
38.550        27
38.560        33
38.570        27
38.580        33
38.590        27
38.600        40
38.610        40
38.620        27
38.630        20
38.640        13
38.650        13
38.660        20
38.670         7
38.680         7
38.690         7
38.700        60
38.710        20
38.720        13
38.730         7
38.740         0
38.750        20
38.760        27
38.770        20
38.780        47
38.790        20
38.800        13
38.810        13
38.820        20
38.830        20
38.840        33
38.850        40
38.860        60
38.870        27
38.880        33
38.890        20
38.900        73
38.910        53
38.920        67
38.930        60
38.940        60
38.950        73
38.960        87
38.970        60
38.980        27
38.990        67
39.000        27
39.010        27
39.020        47
39.030        53
39.040        53
39.050        47
39.060        13
39.070        47
39.080        47
39.090        40
39.100        33
39.110        47
39.120        33
39.130        13
39.140        27
39.150        20
39.160        27
39.170        40
39.180        33
39.190        27
39.200        27
39.210        27
39.220        33
39.230        13
39.240        13
39.250        27
39.260        27
39.270        20
39.280        27
39.290        33
39.300        20
39.310        13
39.320        40
39.330        53
39.340        20
39.350        20
39.360        13
39.370         7
39.380        20
39.390        40
39.400        47
39.410        40
39.420        53
39.430        47
39.440        20
39.450        13
39.460        40
39.470        40
39.480        40
39.490        27
39.500        13
39.510        27
39.520        53
39.530        33
39.540        20
39.550         7
39.560        40
39.570         0
39.580        13
39.590         0
39.600        27
39.610         0
39.620        20
39.630        27
39.640        13
39.650        27
39.660        20
39.670         0
39.680         0
39.690         7
39.700        33
39.710         7
39.720        13
39.730        20
39.740         7
39.750        13
39.760        13
39.770         0
39.780        27
39.790        13
39.800        40
39.810         7
39.820        20
39.830        13
39.840        27
39.850         7
39.860        20
39.870         0
39.880        13
39.890        20
39.900        27
39.910        13
39.920         7
39.930        20
39.940        20
39.950        20
39.960        33
39.970         7
39.980        27
39.990        20
40.000        27
40.010        20
40.020        13
40.030         0
40.040        20
40.050        27
40.060        33
40.070        33
40.080        13
40.090         0
40.100        13
40.110        33
40.120        40
40.130        27
40.140        13
40.150        27
40.160        20
40.170         7
40.180         7
40.190         7
40.200        20
40.210        27
40.220        27
40.230        33
40.240        40
40.250        13
40.260         0
40.270        20
40.280         0
40.290         7
40.300        27
40.310        33
40.320        33
40.330        27
40.340        20
40.350        33
40.360         7
40.370        13
40.380        13
40.390        20
40.400        20
40.410         7
40.420         7
40.430        27
40.440         7
40.450        27
40.460        20
40.470        13
40.480         0
40.490         7
40.500        20
40.510         7
40.520        13
40.530        13
40.540        40
40.550        27
40.560        20
40.570         7
40.580        27
40.590        27
40.600        20
40.610        33
40.620        13
40.630        13
40.640        13
40.650        13
40.660        27
40.670        27
40.680        27
40.690        20
40.700         7
40.710         0
40.720        20
40.730         7
40.740        40
40.750        13
40.760        20
40.770        13
40.780        33
40.790        13
40.800        47
40.810        27
40.820        47
40.830        20
40.840        33
40.850         7
40.860        13
40.870        13
40.880        27
40.890        20
40.900        13
40.910         7
40.920         7
40.930        13
40.940        27
40.950        27
40.960        20
40.970         7
40.980        20
40.990        13
41.000        33
41.010         7
41.020        20
41.030        27
41.040        13
41.050        13
41.060        40
41.070        47
41.080        27
41.090        33
41.100        13
41.110        33
41.120        33
41.130        13
41.140        40
41.150         7
41.160        27
41.170        27
41.180         7
41.190        27
41.200        13
41.210        27
41.220        27
41.230        20
41.240        13
41.250        13
41.260        40
41.270        20
41.280        20
41.290         7
41.300        27
41.310        13
41.320        20
41.330        20
41.340        27
41.350        13
41.360        13
41.370        27
41.380        27
41.390        33
41.400        13
41.410        20
41.420         0
41.430         7
41.440        20
41.450        13
41.460         7
41.470         0
41.480         7
41.490        27
41.500        27
41.510        33
41.520         7
41.530        13
41.540         7
41.550        13
41.560        27
41.570         7
41.580        13
41.590        20
41.600        13
41.610        20
41.620        13
41.630        20
41.640        13
41.650        13
41.660        20
41.670        27
41.680        20
41.690        20
41.700        20
41.710        13
41.720        13
41.730         7
41.740        20
41.750        27
41.760         7
41.770         7
41.780        20
41.790        13
41.800         0
41.810        13
41.820        27
41.830        20
41.840        20
41.850        13
41.860        13
41.870         0
41.880        20
41.890        27
41.900         7
41.910        20
41.920        27
41.930        27
41.940        13
41.950        20
41.960        13
41.970        27
41.980         7
41.990        13
42.000        33
42.010        27
42.020        27
42.030         7
42.040        20
42.050        27
42.060        53
42.070        20
42.080        27
42.090        47
42.100        13
42.110        13
42.120        13
42.130        40
42.140        60
42.150        33
42.160        60
42.170        40
42.180        47
42.190        33
42.200        40
42.210        40
42.220        33
42.230        87
42.240        60
42.250        53
42.260        87
42.270        73
42.280        53
42.290       133
42.300       100
42.310        93
42.320       100
42.330        67
42.340       107
42.350        93
42.360        80
42.370       107
42.380       147
42.390       127
42.400        87
42.410        80
42.420       100
42.430       100
42.440        93
42.450       133
42.460        93
42.470        87
42.480        60
42.490        53
42.500       100
42.510        87
42.520        33
42.530       113
42.540        47
42.550        47
42.560        27
42.570        87
42.580        47
42.590        47
42.600        27
42.610        33
42.620        27
42.630        40
42.640        33
42.650        33
42.660        40
42.670        47
42.680        27
42.690         0
42.700         7
42.710         7
42.720        20
42.730        40
42.740         7
42.750         7
42.760        13
42.770        20
42.780        20
42.790        47
42.800        13
42.810        40
42.820        13
42.830        13
42.840        13
42.850        40
42.860         0
42.870        13
42.880        20
42.890        40
42.900        13
42.910        20
42.920         7
42.930        47
42.940        13
42.950        20
42.960        27
42.970        20
42.980        13
42.990        27
43.000        27
43.010        33
43.020        53
43.030        33
43.040       260
43.050        13
43.060        13
43.070        27
43.080        27
43.090        13
43.100        20
43.110        53
43.120        20
43.130        20
43.140        33
43.150        27
43.160        40
43.170        20
43.180        27
43.190        13
43.200        40
43.210        27
43.220        20
43.230        27
43.240        40
43.250        13
43.260        27
43.270        20
43.280        13
43.290        60
43.300        20
43.310        27
43.320         7
43.330         7
43.340        20
43.350        33
43.360         7
43.370        13
43.380        13
43.390        33
43.400        40
43.410         7
43.420        13
43.430        20
43.440        40
43.450        13
43.460        33
43.470        20
43.480        20
43.490        20
43.500        27
43.510        33
43.520        27
43.530        27
43.540        40
43.550        33
43.560         0
43.570        40
43.580        27
43.590        53
43.600        13
43.610        33
43.620        73
43.630        40
43.640        27
43.650        13
43.660        40
43.670        27
43.680        33
43.690        27
43.700        13
43.710        53
43.720         7
43.730        27
43.740        20
43.750         7
43.760        13
43.770        27
43.780        13
43.790        20
43.800        33
43.810        27
43.820        20
43.830        27
43.840        27
43.850         7
43.860        13
43.870        33
43.880         7
43.890        33
43.900         7
43.910        20
43.920        33
43.930        47
43.940        33
43.950        33
43.960        20
43.970         7
43.980         7
43.990        40
44.000        27
44.010        13
44.020        27
44.030        13
44.040        20
44.050         7
44.060        27
44.070        27
44.080        13
44.090         0
44.100        27
44.110        13
44.120        13
44.130        20
44.140        13
44.150        27
44.160        40
44.170        20
44.180        13
44.190        33
44.200        20
44.210        13
44.220        27
44.230        60
44.240        33
44.250        20
44.260        13
44.270        33
44.280        27
44.290        13
44.300        27
44.310         7
44.320        33
44.330        27
44.340        13
44.350        13
44.360        27
44.370        13
44.380        20
44.390        20
44.400        13
44.410        13
44.420         0
44.430        27
44.440         7
44.450        13
44.460        27
44.470        20
44.480         7
44.490        20
44.500        27
44.510         7
44.520        13
44.530         0
44.540        13
44.550         0
44.560        27
44.570        13
44.580        27
44.590        27
44.600        20
44.610        13
44.620        13
44.630         7
44.640        27
44.650        13
44.660         7
44.670        20
44.680        20
44.690        27
44.700        27
44.710        13
44.720        27
44.730        27
44.740        20
44.750        27
44.760        13
44.770        40
44.780        27
44.790        20
44.800        13
44.810        47
44.820        13
44.830        20
44.840         7
44.850         7
44.860        33
44.870        33
44.880        13
44.890         7
44.900        13
44.910        20
44.920        27
44.930         7
44.940         7
44.950        33
44.960         0
44.970        20
44.980        40
44.990        13
45.000        20
45.010         7
45.020         7
45.030        13
45.040        40
45.050        20
45.060         0
45.070        20
45.080        27
45.090        53
45.100        13
45.110         7
45.120        13
45.130         7
45.140         7
45.150         7
45.160        20
45.170         7
45.180        13
45.190         7
45.200        20
45.210         0
45.220         7
45.230         7
45.240        13
45.250        13
45.260        27
45.270        33
45.280        27
45.290        27
45.300         0
45.310        13
45.320        27
45.330        20
45.340         7
45.350        13
45.360        27
45.370        40
45.380        20
45.390         7
45.400        20
45.410        27
45.420        13
45.430        13
45.440        13
45.450        20
45.460         7
45.470        40
45.480        13
45.490        20
45.500        20
45.510        27
45.520         0
45.530        40
45.540        20
45.550        13
45.560        20
45.570        13
45.580         7
45.590        13
45.600         7
45.610        33
45.620        27
45.630        20
45.640        13
45.650        20
45.660        27
45.670        40
45.680        20
45.690        20
45.700        27
45.710        27
45.720        20
45.730         0
45.740        27
45.750        47
45.760        13
45.770        40
45.780        33
45.790        33
45.800        20
45.810        47
45.820        40
45.830        33
45.840        40
45.850        13
45.860        27
45.870        53
45.880        27
45.890        33
45.900        53
45.910         7
45.920        27
45.930        60
45.940        40
45.950        67
45.960        40
45.970        40
45.980        20
45.990       107
46.000        53
46.010       100
46.020        53
46.030       133
46.040        73
46.050        93
46.060       107
46.070       120
46.080       140
46.090       133
46.100        87
46.110       167
46.120       147
46.130       133
46.140        60
46.150       107
46.160       140
46.170       113
46.180       167
46.190       173
46.200       113
46.210       167
46.220       140
46.230       113
46.240        80
46.250        93
46.260       107
46.270        53
46.280       107
46.290       107
46.300        87
46.310       107
46.320        53
46.330        60
46.340        73
46.350        60
46.360        53
46.370        53
46.380       107
46.390        20
46.400        40
46.410        40
46.420        60
46.430        53
46.440        67
46.450        13
46.460        20
46.470        33
46.480        40
46.490        27
46.500        33
46.510        20
46.520        27
46.530        47
46.540        13
46.550        33
46.560         7
46.570        40
46.580        47
46.590        13
46.600        20
46.610        13
46.620        20
46.630         7
46.640        33
46.650        40
46.660        13
46.670        13
46.680        27
46.690        67
46.700        87
46.710        40
46.720        33
46.730        27
46.740        27
46.750         7
46.760        40
46.770        13
46.780        60
46.790        73
46.800        27
46.810        33
46.820        80
46.830        40
46.840        40
46.850        40
46.860        67
46.870        20
46.880        53
46.890        33
46.900        47
46.910        60
46.920        67
46.930        40
46.940        33
46.950        33
46.960        47
46.970        53
46.980        27
46.990        27
47.000        40
47.010        33
47.020        40
47.030        33
47.040        60
47.050        60
47.060        53
47.070        60
47.080        20
47.090        20
47.100        27
47.110        40
47.120        13
47.130        53
47.140        40
47.150        47
47.160        13
47.170        33
47.180        13
47.190        80
47.200        40
47.210        13
47.220        53
47.230        20
47.240        27
47.250        13
47.260        27
47.270        13
47.280        40
47.290        33
47.300        40
47.310        20
47.320        53
47.330        40
47.340        27
47.350        27
47.360        33
47.370        40
47.380        13
47.390        73
47.400        20
47.410         0
47.420         0
47.430        40
47.440        27
47.450        27
47.460        40
47.470        20
47.480        20
47.490        27
47.500        47
47.510        53
47.520        20
47.530        27
47.540        47
47.550        53
47.560        20
47.570        53
47.580        33
47.590        67
47.600         7
47.610        47
47.620        40
47.630         0
47.640        20
47.650        40
47.660        20
47.670        20
47.680        13
47.690        20
47.700        27
47.710        20
47.720        53
47.730        20
47.740        27
47.750        13
47.760        33
47.770        27
47.780        13
47.790         7
47.800        20
47.810         0
47.820        20
47.830        40
47.840         7
47.850        20
47.860        13
47.870         0
47.880        20
47.890        13
47.900        27
47.910         7
47.920        20
47.930        13
47.940        27
47.950        13
47.960         7
47.970        13
47.980        40
47.990         0
48.000         0
48.010        13
48.020        27
48.030        27
48.040         7
48.050        40
48.060         0
48.070        27
48.080         7
48.090        27
48.100        27
48.110        13
48.120        33
48.130        27
48.140        20
48.150        27
48.160         7
48.170        20
48.180        40
48.190        40
48.200        33
48.210        33
48.220        27
48.230        27
48.240        13
48.250        20
48.260        40
48.270        20
48.280        13
48.290         7
48.300        40
48.310        40
48.320        40
48.330        27
48.340        13
48.350        20
48.360        27
48.370        40
48.380        53
48.390        20
48.400        33
48.410        20
48.420        13
48.430        47
48.440        13
48.450        33
48.460        20
48.470         7
48.480        47
48.490        47
48.500        13
48.510        20
48.520        33
48.530        20
48.540        20
48.550        27
48.560        53
48.570        47
48.580        40
48.590        33
48.600        67
48.610        33
48.620        33
48.630        13
48.640        33
48.650        20
48.660        53
48.670        27
48.680        27
48.690        27
48.700        20
48.710        40
48.720        20
48.730        20
48.740        27
48.750         0
48.760        20
48.770        20
48.780        13
48.790        40
48.800         7
48.810        33
48.820        27
48.830         7
48.840        27
48.850        40
48.860        33
48.870        20
48.880        33
48.890        20
48.900        47
48.910        80
48.920        20
48.930        40
48.940        60
48.950        93
48.960        40
48.970        47
48.980        67
48.990       113
49.000        60
49.010        67
49.020        80
49.030        40
49.040       107
49.050       133
49.060       147
49.070       140
49.080        87
49.090       113
49.100       107
49.110       100
49.120        60
49.130       107
49.140        80
49.150       167
49.160       100
49.170        87
49.180        87
49.190       120
49.200        73
49.210        73
49.220        67
49.230        87
49.240        67
49.250       167
49.260        93
49.270       100
49.280        80
49.290       113
49.300        67
49.310        60
49.320        60
49.330        40
49.340        53
49.350        53
49.360        13
49.370        47
49.380        27
49.390        27
49.400        60
49.410        20
49.420        67
49.430        27
49.440        13
49.450        47
49.460        27
49.470        40
49.480        27
49.490        27
49.500         7
49.510        27
49.520        53
49.530        47
49.540        13
49.550        40
49.560        20
49.570        33
49.580        13
49.590        27
49.600        13
49.610        47
49.620        27
49.630        13
49.640        27
49.650        40
49.660        13
49.670        33
49.680        40
49.690        27
49.700        27
49.710        27
49.720        20
49.730        20
49.740        13
49.750        33
49.760        20
49.770        47
49.780         7
49.790        33
49.800        20
49.810        33
49.820        33
49.830        33
49.840         7
49.850        20
49.860        27
49.870        20
49.880        20
49.890        20
49.900        20
49.910        27
49.920         0
49.930        13
49.940         7
49.950        27
49.960        20
49.970        27
49.980         7
49.990        47
50.000        20
50.010        27
50.020        40
50.030        40
50.040        33
50.050        33
50.060        20
50.070        20
50.080        47
50.090        20
50.100        13
50.110        27
50.120        40
50.130         0
50.140        13
50.150        40
50.160        33
50.170        47
50.180        13
50.190        40
50.200         0
50.210        20
50.220        33
50.230        53
50.240        20
50.250        13
50.260        20
50.270        47
50.280        33
50.290        20
50.300        20
50.310        33
50.320        20
50.330        13
50.340        20
50.350        13
50.360        33
50.370        20
50.380        27
50.390        13
50.400        27
50.410        13
50.420        33
50.430        20
50.440        20
50.450         7
50.460        20
50.470        20
50.480        40
50.490         7
50.500        20
50.510        40
50.520        13
50.530         0
50.540        27
50.550        33
50.560        13
50.570        27
50.580        13
50.590        47
50.600        20
50.610        13
50.620        27
50.630        20
50.640        20
50.650        47
50.660        33
50.670        27
50.680        33
50.690         7
50.700         7
50.710        27
50.720        13
50.730        33
50.740        33
50.750        20
50.760        53
50.770        40
50.780        27
50.790        33
50.800        53
50.810        47
50.820        53
50.830        67
50.840        40
50.850        60
50.860        33
50.870        60
50.880        40
50.890        27
50.900        40
50.910        40
50.920        27
50.930        27
50.940        40
50.950        60
50.960        27
50.970        60
50.980        13
50.990        53
51.000        47
51.010        47
51.020        33
51.030        53
51.040        27
51.050        47
51.060        53
51.070        67
51.080        27
51.090        40
51.100        60
51.110        67
51.120        40
51.130        67
51.140        53
51.150        67
51.160        73
51.170        73
51.180        47
51.190        33
51.200        40
51.210        60
51.220        40
51.230        53
51.240        60
51.250        73
51.260        53
51.270        73
51.280        27
51.290        67
51.300        67
51.310        53
51.320        53
51.330        47
51.340        73
51.350        40
51.360        73
51.370        93
51.380        67
51.390        87
51.400        47
51.410        40
51.420        33
51.430        47
51.440        53
51.450        27
51.460        33
51.470        40
51.480        93
51.490        80
51.500        60
51.510        53
51.520        60
51.530        27
51.540        73
51.550        47
51.560        60
51.570        40
51.580        67
51.590        60
51.600        60
51.610        60
51.620        80
51.630        40
51.640        93
51.650        73
51.660        87
51.670       107
51.680       127
51.690        93
51.700       113
51.710       147
51.720        67
51.730       113
51.740       113
51.750       140
51.760       133
51.770       127
51.780       133
51.790       120
51.800       147
51.810       187
51.820       173
51.830       153
51.840       207
51.850       193
51.860       173
51.870       127
51.880       167
51.890       213
51.900       207
51.910       220
51.920       193
51.930       220
51.940       233
51.950       227
51.960       280
51.970       173
51.980       220
51.990       227
52.000       187
52.010       247
52.020       240
52.030       220
52.040       167
52.050       220
52.060       187
52.070       187
52.080       240
52.090       167
52.100       160
52.110       273
52.120       160
52.130       133
52.140       173
52.150       200
52.160       213
52.170       180
52.180       153
52.190       167
52.200       187
52.210       167
52.220       187
52.230       160
52.240       187
52.250       200
52.260       120
52.270       180
52.280       200
52.290       200
52.300       140
52.310       213
52.320       273
52.330       247
52.340       260
52.350       220
52.360       233
52.370       307
52.380       233
52.390       293
52.400       287
52.410       313
52.420       367
52.430       407
52.440       340
52.450       440
52.460       473
52.470       540
52.480       726
52.490       866
52.500      1053
52.510      1319
52.520      1893
52.530      2706
52.540      4052
52.550      5951
52.560      8930
52.570     10636
52.580     12248
52.590     11655
52.600     10482
52.610      9063
52.620      7084
52.630      6184
52.640      5298
52.650      5071
52.660      4658
52.670      5171
52.680      5878
52.690      7104
52.700      8137
52.710      9196
52.720      9769
52.730      9689
52.740      8237
52.750      7637
52.760      5771
52.770      4558
52.780      3239
52.790      2752
52.800      2412
52.810      2186
52.820      2452
52.830      2459
52.840      2539
52.850      2492
52.860      2452
52.870      2132
52.880      1733
52.890      1266
52.900      1120
52.910       740
52.920       546
52.930       446
52.940       347
52.950       313
52.960       247
52.970       187
52.980       207
52.990       167
53.000       173
53.010       200
53.020       193
53.030       153
53.040       247
53.050       187
53.060       167
53.070       153
53.080       100
53.090       160
53.100       180
53.110       113
53.120       133
53.130       113
53.140       160
53.150       147
53.160       120
53.170       113
53.180       107
53.190       100
53.200       140
53.210       140
53.220       147
53.230       167
53.240       100
53.250       107
53.260       100
53.270       160
53.280        73
53.290       100
53.300       120
53.310       113
53.320        47
53.330        73
53.340        87
53.350       127
53.360       133
53.370        87
53.380       133
53.390        87
53.400       133
53.410        93
53.420       100
53.430       113
53.440       100
53.450       127
53.460        87
53.470        73
53.480        87
53.490       120
53.500        60
53.510        93
53.520        53
53.530       100
53.540        53
53.550        93
53.560       113
53.570        93
53.580        40
53.590       100
53.600        80
53.610        87
53.620       147
53.630        80
53.640        87
53.650        80
53.660        80
53.670        93
53.680        80
53.690        60
53.700       100
53.710       120
53.720        73
53.730       100
53.740       107
53.750        33
53.760        60
53.770       107
53.780        93
53.790        60
53.800        73
53.810        60
53.820        80
53.830        87
53.840       127
53.850        67
53.860        47
53.870        60
53.880        93
53.890        93
53.900        40
53.910        60
53.920        67
53.930        87
53.940       113
53.950        87
53.960        33
53.970        60
53.980       113
53.990        60
54.000        53
54.010        60
54.020        73
54.030        67
54.040        47
54.050        87
54.060        33
54.070        73
54.080        73
54.090        73
54.100        93
54.110        67
54.120        47
54.130        87
54.140        53
54.150        73
54.160        53
54.170        40
54.180        40
54.190        60
54.200        80
54.210        87
54.220        40
54.230       113
54.240        40
54.250        33
54.260        80
54.270        40
54.280        80
54.290        80
54.300        73
54.310        93
54.320        27
54.330        60
54.340        53
54.350        33
54.360        67
54.370        67
54.380        40
54.390        67
54.400        80
54.410        53
54.420        60
54.430        53
54.440        47
54.450        87
54.460        67
54.470        40
54.480        80
54.490        73
54.500       100
54.510        73
54.520        67
54.530        60
54.540        60
54.550        13
54.560        60
54.570        67
54.580        93
54.590       100
54.600        33
54.610        40
54.620        73
54.630        73
54.640        87
54.650        67
54.660        73
54.670        27
54.680        53
54.690        60
54.700        80
54.710        53
54.720        47
54.730        80
54.740        73
54.750        40
54.760        47
54.770        80
54.780        67
54.790       120
54.800        80
54.810        40
54.820        60
54.830        67
54.840       120
54.850        40
54.860        67
54.870        67
54.880        40
54.890        67
54.900        27
54.910        73
54.920        53
54.930        60
54.940        53
54.950        53
54.960        67
54.970        47
54.980        67
54.990       100
55.000        20
55.010        53
55.020        53
55.030        47
55.040        47
55.050        67
55.060        67
55.070        80
55.080        40
55.090       140
55.100        87
55.110        40
55.120        80
55.130        67
55.140        80
55.150        73
55.160       107
55.170        60
55.180        80
55.190        53
55.200        80
55.210        93
55.220        60
55.230        40
55.240        87
55.250        40
55.260        87
55.270        67
55.280        67
55.290        73
55.300        33
55.310        80
55.320        73
55.330        53
55.340        40
55.350        47
55.360        33
55.370        87
55.380        53
55.390        60
55.400        53
55.410        33
55.420        80
55.430        80
55.440        53
55.450        73
55.460        53
55.470       107
55.480        47
55.490        73
55.500        73
55.510        47
55.520        60
55.530        87
55.540        47
55.550       120
55.560        80
55.570        53
55.580        53
55.590        53
55.600        80
55.610        53
55.620        80
55.630        53
55.640        53
55.650        80
55.660        87
55.670        33
55.680        20
55.690        47
55.700        40
55.710        60
55.720        33
55.730        73
55.740        87
55.750        27
55.760        40
55.770        60
55.780        73
55.790        33
55.800        53
55.810        80
55.820        53
55.830        47
55.840        73
55.850        67
55.860        40
55.870        67
55.880        87
55.890        47
55.900        87
55.910        60
55.920        40
55.930        47
55.940        60
55.950        67
55.960        47
55.970        67
55.980        47
55.990        33
56.000        33
56.010        47
56.020        53
56.030        33
56.040       107
56.050        53
56.060        33
56.070        87
56.080        40
56.090        40
56.100        67
56.110        13
56.120        47
56.130        60
56.140        53
56.150        53
56.160       113
56.170        80
56.180        40
56.190        33
56.200        53
56.210        47
56.220        73
56.230        47
56.240        73
56.250        47
56.260        73
56.270        53
56.280        47
56.290        27
56.300        47
56.310        40
56.320        53
56.330        87
56.340        60
56.350        67
56.360        93
56.370        67
56.380        67
56.390        40
56.400        53
56.410        47
56.420        80
56.430        67
56.440        60
56.450        60
56.460        60
56.470        40
56.480        40
56.490        53
56.500        53
56.510        67
56.520        80
56.530        67
56.540        60
56.550        33
56.560        47
56.570        80
56.580        93
56.590        40
56.600        47
56.610        67
56.620        93
56.630        47
56.640        80
56.650        67
56.660        20
56.670       100
56.680        33
56.690        67
56.700        53
56.710        60
56.720        60
56.730        33
56.740        47
56.750        73
56.760        47
56.770        53
56.780        33
56.790        73
56.800        67
56.810        60
56.820        60
56.830        67
56.840        47
56.850        47
56.860        60
56.870        53
56.880        33
56.890        47
56.900        47
56.910        27
56.920        47
56.930        73
56.940        20
56.950        33
56.960        33
56.970        67
56.980        60
56.990        13
57.000        73
57.010        53
57.020        47
57.030        47
57.040        40
57.050        53
57.060        73
57.070        53
57.080        60
57.090        47
57.100        80
57.110        67
57.120        67
57.130        60
57.140        73
57.150        73
57.160        47
57.170        47
57.180        80
57.190        53
57.200        53
57.210        73
57.220        80
57.230        40
57.240        87
57.250        67
57.260        87
57.270        67
57.280        53
57.290        87
57.300        60
57.310        40
57.320        53
57.330        60
57.340        27
57.350       107
57.360        20
57.370        53
57.380        40
57.390        60
57.400        80
57.410        73
57.420        33
57.430        80
57.440        53
57.450        80
57.460        40
57.470        53
57.480        87
57.490        33
57.500        40
57.510        33
57.520        60
57.530        67
57.540        60
57.550        33
57.560        60
57.570        47
57.580        40
57.590       113
57.600        40
57.610        53
57.620        67
57.630       100
57.640        40
57.650        73
57.660        53
57.670        73
57.680        67
57.690        20
57.700        53
57.710        93
57.720        27
57.730        80
57.740        33
57.750        53
57.760        47
57.770        33
57.780        60
57.790        60
57.800        33
57.810        53
57.820        87
57.830        27
57.840        47
57.850        93
57.860        53
57.870        80
57.880        53
57.890        27
57.900        47
57.910        73
57.920        53
57.930       107
57.940        93
57.950        53
57.960        67
57.970        47
57.980        80
57.990       107
58.000        47
58.010        53
58.020        80
58.030        53
58.040        87
58.050        87
58.060       113
58.070        60
58.080        53
58.090        53
58.100        53
58.110        53
58.120        33
58.130        53
58.140        47
58.150        47
58.160        73
58.170        60
58.180        47
58.190        40
58.200        47
58.210        40
58.220        47
58.230        67
58.240        40
58.250        87
58.260        40
58.270        47
58.280        60
58.290        47
58.300        53
58.310        60
58.320        80
58.330        33
58.340        47
58.350        67
58.360        33
58.370        80
58.380        47
58.390        60
58.400        47
58.410        87
58.420        33
58.430        40
58.440        20
58.450        60
58.460        80
58.470        67
58.480        47
58.490        73
58.500        40
58.510        53
58.520        93
58.530        40
58.540        60
58.550        40
58.560        47
58.570        53
58.580        13
58.590        13
58.600        73
58.610        80
58.620        60
58.630        67
58.640        60
58.650        27
58.660        60
58.670        20
58.680        67
58.690        67
58.700        40
58.710        47
58.720        53
58.730        80
58.740        47
58.750        80
58.760        73
58.770        27
58.780        67
58.790        60
58.800        67
58.810       100
58.820        47
58.830        67
58.840        33
58.850        53
58.860        60
58.870        73
58.880        47
58.890        33
58.900        73
58.910        73
58.920        80
58.930        27
58.940        20
58.950        53
58.960        67
58.970        60
58.980        40
58.990        47
59.000        60
59.010        60
59.020        33
59.030        60
59.040        60
59.050        67
59.060        47
59.070       100
59.080        60
59.090        47
59.100        53
59.110        60
59.120        53
59.130        60
59.140        87
59.150        20
59.160        93
59.170        60
59.180        53
59.190        60
59.200        47
59.210        67
59.220        60
59.230        67
59.240        53
59.250        27
59.260        40
59.270       100
59.280        60
59.290        47
59.300        47
59.310        80
59.320        33
59.330        27
59.340        33
59.350        47
59.360        27
59.370        60
59.380        60
59.390        47
59.400       113
59.410        67
59.420        27
59.430        47
59.440        27
59.450       100
59.460        67
59.470        40
59.480        67
59.490        33
59.500        73
59.510        33
59.520        73
59.530        67
59.540        60
59.550        53
59.560        53
59.570        93
59.580        53
59.590        60
59.600        80
59.610        67
59.620        40
59.630        33
59.640        27
59.650        53
59.660        40
59.670        40
59.680        47
59.690        33
59.700        87
59.710        33
59.720        40
59.730        53
59.740        47
59.750        33
59.760        87
59.770        60
59.780        73
59.790        67
59.800        60
59.810        53
59.820        93
59.830        87
59.840       100
59.850        73
59.860       113
59.870        47
59.880        87
59.890        80
59.900       100
59.910        80
59.920        67
59.930        67
59.940        47
59.950        80
59.960        40
59.970       107
59.980       107
59.990        60
60.000        60
