20.000        40
20.010        20
20.020        53
20.030        67
20.040        13
20.050        40
20.060        53
20.070        47
20.080        33
20.090        53
20.100        33
20.110        33
20.120        67
20.130        60
20.140        60
20.150        40
20.160        53
20.170        40
20.180        67
20.190        47
20.200        40
20.210        33
20.220        67
20.230        47
20.240        53
20.250        47
20.260        13
20.270        60
20.280        47
20.290        33
20.300        33
20.310        27
20.320        40
20.330        40
20.340        53
20.350        47
20.360        33
20.370        60
20.380        40
20.390        33
20.400        73
20.410        33
20.420        27
20.430        47
20.440        20
20.450        20
20.460        60
20.470        53
20.480        40
20.490        47
20.500        40
20.510        47
20.520        27
20.530        33
20.540        60
20.550        47
20.560        40
20.570        33
20.580        20
20.590        33
20.600        60
20.610        27
20.620        40
20.630        47
20.640        47
20.650        67
20.660        60
20.670        67
20.680        33
20.690        20
20.700        60
20.710        27
20.720        33
20.730        13
20.740        47
20.750        47
20.760        67
20.770        53
20.780        20
20.790        27
20.800        27
20.810        47
20.820        73
20.830        33
20.840        60
20.850        73
20.860        33
20.870        40
20.880        40
20.890        33
20.900        40
20.910        13
20.920        53
20.930        53
20.940        33
20.950        47
20.960        87
20.970        47
20.980        67
20.990        47
21.000        47
21.010        67
21.020        40
21.030        60
21.040        40
21.050        13
21.060        60
21.070        47
21.080         7
21.090        33
21.100        60
21.110        40
21.120        40
21.130        33
21.140        13
21.150        47
21.160        33
21.170        53
21.180        40
21.190        33
21.200        60
21.210        27
21.220        27
21.230        33
21.240        33
21.250        53
21.260        47
21.270        20
21.280        33
21.290        27
21.300        47
21.310        33
21.320        40
21.330        20
21.340        47
21.350         7
21.360        33
21.370        47
21.380        47
21.390        40
21.400        47
21.410        40
21.420        47
21.430        27
21.440        33
21.450        40
21.460        47
21.470        33
21.480        53
21.490        53
21.500        40
21.510        40
21.520        33
21.530        27
21.540        33
21.550        27
21.560         7
21.570        40
21.580        47
21.590        40
21.600        13
21.610        67
21.620        53
21.630        80
21.640        87
21.650        33
21.660        33
21.670        53
21.680        47
21.690        27
21.700        60
21.710        33
21.720        60
21.730        67
21.740        53
21.750        27
21.760        67
21.770        40
21.780        13
21.790        40
21.800        27
21.810        33
21.820        33
21.830        67
21.840        53
21.850        60
21.860        47
21.870        47
21.880        53
21.890        80
21.900        33
21.910        80
21.920        40
21.930        47
21.940        60
21.950        27
21.960        27
21.970        20
21.980        60
21.990        73
22.000        40
22.010        33
22.020        40
22.030        53
22.040        33
22.050        40
22.060        47
22.070        13
22.080        40
22.090        80
22.100        27
22.110        47
22.120        33
22.130        93
22.140        53
22.150        47
22.160        27
22.170        53
22.180        67
22.190        20
22.200        80
22.210       127
22.220        67
22.230        67
22.240        40
22.250        33
22.260        67
22.270        87
22.280        93
22.290        93
22.300        60
22.310        73
22.320       120
22.330       127
22.340        93
22.350        93
22.360       100
22.370       100
22.380       100
22.390       120
22.400       160
22.410       133
22.420       180
22.430       120
22.440       160
22.450       187
22.460       167
22.470       180
22.480       113
22.490       140
22.500        87
22.510       173
22.520       200
22.530       147
22.540       167
22.550       107
22.560       187
22.570       107
22.580       127
22.590       113
22.600       153
22.610       147
22.620       133
22.630       147
22.640       120
22.650       153
22.660       120
22.670       100
22.680       107
22.690       120
22.700       140
22.710       120
22.720       120
22.730       153
22.740        93
22.750       107
22.760        67
22.770       113
22.780        80
22.790       133
22.800        67
22.810       113
22.820        87
22.830        73
22.840        93
22.850        87
22.860       107
22.870       113
22.880        93
22.890        47
22.900        33
22.910        93
22.920       153
22.930       100
22.940        60
22.950        93
22.960       113
22.970       100
22.980        73
22.990        80
23.000        87
23.010        60
23.020        40
23.030       100
23.040        67
23.050       107
23.060        73
23.070        60
23.080        53
23.090        60
23.100        53
23.110        73
23.120        47
23.130        87
23.140        87
23.150        27
23.160        67
23.170       100
23.180        80
23.190        73
23.200       100
23.210        53
23.220        47
23.230        40
23.240        33
23.250        53
23.260        67
23.270        73
23.280       107
23.290        60
23.300        33
23.310        47
23.320        40
23.330        40
23.340        73
23.350        33
23.360        40
23.370        60
23.380        53
23.390        27
23.400        47
23.410        33
23.420        27
23.430        27
23.440        87
23.450        60
23.460        33
23.470        40
23.480        47
23.490        60
23.500        40
23.510        60
23.520        60
23.530        47
23.540        73
23.550        33
23.560        40
23.570        33
23.580        40
23.590        13
23.600        40
23.610        53
23.620        27
23.630        60
23.640        33
23.650        33
23.660        53
23.670        60
23.680        53
23.690        47
23.700        40
23.710        73
23.720        47
23.730        53
23.740        27
23.750        67
23.760        20
23.770        33
23.780        53
23.790        20
23.800        33
23.810        40
23.820        47
23.830        47
23.840        40
23.850        60
23.860        53
23.870        53
23.880        27
23.890        73
23.900        53
23.910        40
23.920        20
23.930        13
23.940        47
23.950        27
23.960        53
23.970        53
23.980        33
23.990       100
24.000        33
24.010        33
24.020        73
24.030        40
24.040        67
24.050        20
24.060        33
24.070        67
24.080        40
24.090        60
24.100        40
24.110        20
24.120        40
24.130        73
24.140        60
24.150        40
24.160        60
24.170        27
24.180        47
24.190        33
24.200        20
24.210        40
24.220        73
24.230        53
24.240        40
24.250        33
24.260        33
24.270        40
24.280        53
24.290        20
24.300        33
24.310        40
24.320        27
24.330        40
24.340        60
24.350        80
24.360        33
24.370        20
24.380        27
24.390        33
24.400        40
24.410        53
24.420        60
24.430        27
24.440        20
24.450        47
24.460        40
24.470        40
24.480        20
24.490        60
24.500        40
24.510        33
24.520        47
24.530        47
24.540        40
24.550        67
24.560        20
24.570        20
24.580        13
24.590        60
24.600        47
24.610        40
24.620        47
24.630        40
24.640        53
24.650        13
24.660        27
24.670        27
24.680        53
24.690        20
24.700        20
24.710        13
24.720        33
24.730        27
24.740        40
24.750        47
24.760         7
24.770        47
24.780        27
24.790        27
24.800        40
24.810        27
24.820        40
24.830        20
24.840        33
24.850        33
24.860        33
24.870        40
24.880        27
24.890        13
24.900        40
24.910        53
24.920        53
24.930        27
24.940        60
24.950        53
24.960        47
24.970        47
24.980        47
24.990        60
25.000        27
25.010        53
25.020        40
25.030        40
25.040        40
25.050        20
25.060        33
25.070        40
25.080        33
25.090        53
25.100        27
25.110        53
25.120        13
25.130        20
25.140        40
25.150        27
25.160        73
25.170        47
25.180        20
25.190        13
25.200        33
25.210        33
25.220        20
25.230        33
25.240        47
25.250        87
25.260        40
25.270        47
25.280        20
25.290        33
25.300        67
25.310        20
25.320        53
25.330        13
25.340        33
25.350        33
25.360        20
25.370        20
25.380        13
25.390        67
25.400        40
25.410        40
25.420        33
25.430        40
25.440        40
25.450        40
25.460        27
25.470        53
25.480        60
25.490        20
25.500        40
25.510        33
25.520         0
25.530        67
25.540        40
25.550        60
25.560        33
25.570        33
25.580        47
25.590        47
25.600        40
25.610        27
25.620        33
25.630        40
25.640        53
25.650        53
25.660         7
25.670        27
25.680        47
25.690        40
25.700        40
25.710        40
25.720        20
25.730        13
25.740        33
25.750        60
25.760        27
25.770        27
25.780        33
25.790        27
25.800        53
25.810        27
25.820        20
25.830        27
25.840        13
25.850        33
25.860        20
25.870        20
25.880        13
25.890        27
25.900        47
25.910        53
25.920        47
25.930        13
25.940        13
25.950        53
25.960        27
25.970        40
25.980        33
25.990        13
26.000        47
26.010        20
26.020        53
26.030        73
26.040        47
26.050        40
26.060        40
26.070        47
26.080        47
26.090        33
26.100         0
26.110        27
26.120        27
26.130        40
26.140        13
26.150        20
26.160        20
26.170        40
26.180        27
26.190        47
26.200        40
26.210        20
26.220        40
26.230        40
26.240        20
26.250        20
26.260        27
26.270        40
26.280        53
26.290        33
26.300        67
26.310        47
26.320        33
26.330        40
26.340        33
26.350        20
26.360        53
26.370        27
26.380        40
26.390        47
26.400        33
26.410         7
26.420        27
26.430        47
26.440        47
26.450        47
26.460        27
26.470         7
26.480        53
26.490        20
26.500        27
26.510        47
26.520        27
26.530        33
26.540        40
26.550        40
26.560        40
26.570        27
26.580        40
26.590        53
26.600        20
26.610        53
26.620         7
26.630        47
26.640        20
26.650        47
26.660        47
26.670        47
26.680        33
26.690        27
26.700        27
26.710        53
26.720        67
26.730        47
26.740        33
26.750        20
26.760        40
26.770        40
26.780        47
26.790        20
26.800        20
26.810        20
26.820        47
26.830        13
26.840        80
26.850        20
26.860        13
26.870        40
26.880        60
26.890        40
26.900        40
26.910        27
26.920        27
26.930        27
26.940        33
26.950        53
26.960        13
26.970        33
26.980        27
26.990        60
27.000        20
27.010        13
27.020        20
27.030        33
27.040        47
27.050        27
27.060        47
27.070        47
27.080        13
27.090        20
27.100        13
27.110        27
27.120        13
27.130        27
27.140        40
27.150        53
27.160        40
27.170        20
27.180        33
27.190         7
27.200        47
27.210        53
27.220        40
27.230        20
27.240        20
27.250        53
27.260        20
27.270        20
27.280        27
27.290        27
27.300        33
27.310        27
27.320        13
27.330        20
27.340        33
27.350        40
27.360        33
27.370        20
27.380        40
27.390        27
27.400        47
27.410        13
27.420        27
27.430        20
27.440        20
27.450        13
27.460        33
27.470        33
27.480        13
27.490        40
27.500        47
27.510        33
27.520        33
27.530        40
27.540        20
27.550         7
27.560        27
27.570        33
27.580        27
27.590        33
27.600        33
27.610        53
27.620        40
27.630        20
27.640        20
27.650        27
27.660        27
27.670        20
27.680        33
27.690         0
27.700         0
27.710        47
27.720        40
27.730        60
27.740        20
27.750        20
27.760        27
27.770        20
27.780        40
27.790        20
27.800        27
27.810        20
27.820        33
27.830        53
27.840        20
27.850        20
27.860        13
27.870        27
27.880        60
27.890        20
27.900         0
27.910        20
27.920        13
27.930        20
27.940        27
27.950        40
27.960        33
27.970        33
27.980        33
27.990        27
28.000        20
28.010        20
28.020        20
28.030        40
28.040        20
28.050         7
28.060        20
28.070        13
28.080        53
28.090        33
28.100        67
28.110        33
28.120        40
28.130        33
28.140        13
28.150        40
28.160        40
28.170        20
28.180        20
28.190        33
28.200        20
28.210        40
28.220        27
28.230        47
28.240        13
28.250        47
28.260        20
28.270        27
28.280        20
28.290        27
28.300        53
28.310        27
28.320        27
28.330        53
28.340        27
28.350        27
28.360        20
28.370        20
28.380        20
28.390        27
28.400        40
28.410        47
28.420        40
28.430        27
28.440        40
28.450        53
28.460        27
28.470        53
28.480        60
28.490        40
28.500         7
28.510        53
28.520        33
28.530        13
28.540         7
28.550        13
28.560        20
28.570        33
28.580        40
28.590        40
28.600        20
28.610        27
28.620        13
28.630        20
28.640        33
28.650         7
28.660        33
28.670        13
28.680        13
28.690        40
28.700        47
28.710        27
28.720        27
28.730        40
28.740        20
28.750        27
28.760        33
28.770        27
28.780        40
28.790        33
28.800        27
28.810        47
28.820        33
28.830        27
28.840        20
28.850         0
28.860        20
28.870        27
28.880        40
28.890         7
28.900        33
28.910        40
28.920        20
28.930        20
28.940        27
28.950        47
28.960        93
28.970        33
28.980        47
28.990        53
29.000        27
29.010        20
29.020        40
29.030        20
29.040        47
29.050        20
29.060        27
29.070        40
29.080        33
29.090        33
29.100        27
29.110        13
29.120        33
29.130        33
29.140         7
29.150        20
29.160        27
29.170        33
29.180        60
29.190        27
29.200        13
29.210        40
29.220        33
29.230        40
29.240        27
29.250        47
29.260        13
29.270        40
29.280        33
29.290        47
29.300        27
29.310        20
29.320        33
29.330        40
29.340        27
29.350         7
29.360        20
29.370        33
29.380        13
29.390        13
29.400        33
29.410        47
29.420        27
29.430        13
29.440        33
29.450        33
29.460        47
29.470        13
29.480        27
29.490        33
29.500        20
29.510        53
29.520        33
29.530        33
29.540        33
29.550        33
29.560        47
29.570        13
29.580        20
29.590        13
29.600        40
29.610        40
29.620         7
29.630         7
29.640        33
29.650        20
29.660        27
29.670        20
29.680        20
29.690        40
29.700         7
29.710        27
29.720        40
29.730        53
29.740        60
29.750        40
29.760        13
29.770        47
29.780        20
29.790        33
29.800        20
29.810        20
29.820         0
29.830        20
29.840        27
29.850        33
29.860        40
29.870        40
29.880        20
29.890        40
29.900        20
29.910        40
29.920        47
29.930        27
29.940        20
29.950        13
29.960        33
29.970        27
29.980        27
29.990        40
30.000        40
30.010        13
30.020        13
30.030        60
30.040        27
30.050        13
30.060        33
30.070        27
30.080         0
30.090        20
30.100         7
30.110        27
30.120        53
30.130        13
30.140        13
30.150        40
30.160        27
30.170        20
30.180        33
30.190        13
30.200        47
30.210        47
30.220         7
30.230        33
30.240        27
30.250        33
30.260        20
30.270        27
30.280        13
30.290        33
30.300        20
30.310        13
30.320        13
30.330        27
30.340        13
30.350        47
30.360        40
30.370        13
30.380        20
30.390        13
30.400        20
30.410        13
30.420        33
30.430        53
30.440        13
30.450        53
30.460        53
30.470        47
30.480        13
30.490        33
30.500        20
30.510        47
30.520        27
30.530        40
30.540        33
30.550        27
30.560        27
30.570        20
30.580         7
30.590        20
30.600        40
30.610         7
30.620        40
30.630        27
30.640        40
30.650        40
30.660        20
30.670        20
30.680         7
30.690        53
30.700        20
30.710        20
30.720        20
30.730        33
30.740        33
30.750        27
30.760        13
30.770         7
30.780        33
30.790         7
30.800        13
30.810        27
30.820        20
30.830        53
30.840        13
30.850        33
30.860        20
30.870        60
30.880        13
30.890        47
30.900        40
30.910        13
30.920        40
30.930        47
30.940        40
30.950        33
30.960        20
30.970         7
30.980        33
30.990        40
31.000        13
31.010         7
31.020        33
31.030        20
31.040        13
31.050        13
31.060        40
31.070        27
31.080        27
31.090        53
31.100        20
31.110        27
31.120        60
31.130        40
31.140        33
31.150        13
31.160        33
31.170        20
31.180        13
31.190        33
31.200        40
31.210        27
31.220        60
31.230        20
31.240        13
31.250        27
31.260        13
31.270        27
31.280        60
31.290        53
31.300        27
31.310        33
31.320        20
31.330        33
31.340        27
31.350        47
31.360        40
31.370        33
31.380        53
31.390        27
31.400        20
31.410        40
31.420        20
31.430        13
31.440        47
31.450        13
31.460        20
31.470         7
31.480        40
31.490        27
31.500        20
31.510        40
31.520        13
31.530         7
31.540        47
31.550        47
31.560        27
31.570         7
31.580        20
31.590        27
31.600        20
31.610        40
31.620        27
31.630        20
31.640        13
31.650        33
31.660        20
31.670        33
31.680        27
31.690        27
31.700        33
31.710        53
31.720         7
31.730        27
31.740        33
31.750        27
31.760        53
31.770        13
31.780        33
31.790        67
31.800         7
31.810        40
31.820        27
31.830        33
31.840        53
31.850        40
31.860        40
31.870        87
31.880        40
31.890        60
31.900        27
31.910        53
31.920        33
31.930        73
31.940        60
31.950        27
31.960       100
31.970        93
31.980        67
31.990        73
32.000       127
32.010        60
32.020       107
32.030        53
32.040       100
32.050       113
32.060        67
32.070        60
32.080        73
32.090       133
32.100       113
32.110        87
32.120       127
32.130        80
32.140       207
32.150        80
32.160       100
32.170       153
32.180        93
32.190       100
32.200       127
32.210       133
32.220       160
32.230       120
32.240       140
32.250       187
32.260       147
32.270       160
32.280       100
32.290        93
32.300       107
32.310       167
32.320       167
32.330       107
32.340       120
32.350       107
32.360       147
32.370       100
32.380        87
32.390       127
32.400       160
32.410        60
32.420        87
32.430       113
32.440       120
32.450       120
32.460       107
32.470        60
32.480       100
32.490       107
32.500       100
32.510        40
32.520        87
32.530        47
32.540        53
32.550       107
32.560        53
32.570       107
32.580        73
32.590        53
32.600        20
32.610        33
32.620        53
32.630        73
32.640        67
32.650        67
32.660        40
32.670        47
32.680        53
32.690        47
32.700        73
32.710        40
32.720        47
32.730        40
32.740        73
32.750        60
32.760        60
32.770        47
32.780        53
32.790        27
32.800        27
32.810        60
32.820        20
32.830        13
32.840        33
32.850        27
32.860        13
32.870        20
32.880        60
32.890        13
32.900        60
32.910        20
32.920        27
32.930        67
32.940        13
32.950        53
32.960        53
32.970        27
32.980        53
32.990         7
33.000        33
33.010        33
33.020        27
33.030        27
33.040        20
33.050        27
33.060        13
33.070        27
33.080         7
33.090        33
33.100        53
33.110        47
33.120        20
33.130        27
33.140        27
33.150        13
33.160        27
33.170        20
33.180        27
33.190        53
33.200        13
33.210        47
33.220        40
33.230        33
33.240        13
33.250        33
33.260        13
33.270        60
33.280        47
33.290         7
33.300        13
33.310        20
33.320        27
33.330        33
33.340        13
33.350        20
33.360        27
33.370        27
33.380        20
33.390        20
33.400        27
33.410        20
33.420        40
33.430        33
33.440        40
33.450        33
33.460        13
33.470        27
33.480        20
33.490        27
33.500        40
33.510        53
33.520        20
33.530        33
33.540        13
33.550        20
33.560        33
33.570        20
33.580        40
33.590         7
33.600        33
33.610        20
33.620        60
33.630        47
33.640        47
33.650        53
33.660        20
33.670        13
33.680        33
33.690        20
33.700         7
33.710        20
33.720        27
33.730        47
33.740        47
33.750        27
33.760        53
33.770        13
33.780        47
33.790        47
33.800        20
33.810        40
33.820        20
33.830        47
33.840        27
33.850        27
33.860        13
33.870        67
33.880        20
33.890        40
33.900        33
33.910        20
33.920        33
33.930        27
33.940        27
33.950        40
33.960        47
33.970        13
33.980        40
33.990        40
34.000         0
34.010        33
34.020         7
34.030        13
34.040        20
34.050        53
34.060        13
34.070        13
34.080        13
34.090        20
34.100        27
34.110        20
34.120        20
34.130        27
34.140        33
34.150        13
34.160        13
34.170        27
34.180        20
34.190        33
34.200         7
34.210        40
34.220        27
34.230        40
34.240        40
34.250        33
34.260        27
34.270        13
34.280        13
34.290        47
34.300        33
34.310        27
34.320        20
34.330         7
34.340        13
34.350        60
34.360        40
34.370        13
34.380        27
34.390        33
34.400        20
34.410        40
34.420        33
34.430        27
34.440        20
34.450        20
34.460        13
34.470        13
34.480        13
34.490        27
34.500         7
34.510        20
34.520        40
34.530        27
34.540        13
34.550        40
34.560        40
34.570        33
34.580        27
34.590         0
34.600        20
34.610        33
34.620        73
34.630        33
34.640        20
34.650        33
34.660        27
34.670        27
34.680        20
34.690        60
34.700        33
34.710        40
34.720        13
34.730        27
34.740         7
34.750        27
34.760        13
34.770        27
34.780        33
34.790        33
34.800        13
34.810        20
34.820         7
34.830        47
34.840        33
34.850        33
34.860        33
34.870        27
34.880        33
34.890        33
34.900        27
34.910        20
34.920        40
34.930        27
34.940         0
34.950         7
34.960        27
34.970        13
34.980        13
34.990        20
35.000        60
35.010        33
35.020        20
35.030        53
35.040        13
35.050        33
35.060        47
35.070        20
35.080        60
35.090        47
35.100        33
35.110        47
35.120        73
35.130        93
35.140       113
35.150       113
35.160       140
35.170       200
35.180       133
35.190       193
35.200       147
35.210       133
35.220        40
35.230        93
35.240       113
35.250        53
35.260       107
35.270       113
35.280       173
35.290        53
35.300        93
35.310        67
35.320        80
35.330        40
35.340        20
35.350        40
35.360        27
35.370        13
35.380        33
35.390        27
35.400        20
35.410        13
35.420        53
35.430        33
35.440        13
35.450         0
35.460        53
35.470        20
35.480        60
35.490        20
35.500        13
35.510        33
35.520        13
35.530        40
35.540         7
35.550        13
35.560        27
35.570        20
35.580        33
35.590        20
35.600         0
35.610        40
35.620        20
35.630         7
35.640        27
35.650        13
35.660        27
35.670        13
35.680        13
35.690        33
35.700        40
35.710         7
35.720        53
35.730         7
35.740        20
35.750        60
35.760         0
35.770        20
35.780        27
35.790        20
35.800        13
35.810        20
35.820        27
35.830        27
35.840         7
35.850        13
35.860        33
35.870         7
35.880         7
35.890        20
35.900        13
35.910        53
35.920        13
35.930        13
35.940        27
35.950        20
35.960        20
35.970        27
35.980        40
35.990        20
36.000        13
36.010        33
36.020        33
36.030         7
36.040        13
36.050        13
36.060        13
36.070         7
36.080        13
36.090        27
36.100        60
36.110        33
36.120        27
36.130        27
36.140        33
36.150        20
36.160        20
36.170        20
36.180        47
36.190        13
36.200        13
36.210        20
36.220        20
36.230         7
36.240        20
36.250        33
36.260        13
36.270        27
36.280         7
36.290        47
36.300        13
36.310        53
36.320        20
36.330         7
36.340        40
36.350        20
36.360        27
36.370        13
36.380        27
36.390        27
36.400        27
36.410        33
36.420        60
36.430        27
36.440        27
36.450        27
36.460        13
36.470        13
36.480        20
36.490        27
36.500        20
36.510         7
36.520        13
36.530        13
36.540        33
36.550        13
36.560        13
36.570        40
36.580        40
36.590        53
36.600        27
36.610        47
36.620        13
36.630        27
36.640        33
36.650        13
36.660         7
36.670        20
36.680        13
36.690        33
36.700        20
36.710         7
36.720        13
36.730        13
36.740        20
36.750         0
36.760        33
36.770        20
36.780        20
36.790        13
36.800         7
36.810        27
36.820        13
36.830         7
36.840        27
36.850        53
36.860        40
36.870        53
36.880        33
36.890        40
36.900        40
36.910        33
36.920        27
36.930        13
36.940        33
36.950        33
36.960        20
36.970        27
36.980        20
36.990        33
37.000        40
37.010        33
37.020        20
37.030        27
37.040        13
37.050        13
37.060        27
37.070        33
37.080        33
37.090         7
37.100        33
37.110        20
37.120        20
37.130        27
37.140        33
37.150        20
37.160        13
37.170        27
37.180        40
37.190        20
37.200        47
37.210        20
37.220        33
37.230         7
37.240         7
37.250        33
37.260        27
37.270        20
37.280        13
37.290        47
37.300        13
37.310        40
37.320        27
37.330         0
37.340        20
37.350        20
37.360        13
37.370        13
37.380        60
37.390        27
37.400        33
37.410        47
37.420        40
37.430         0
37.440        27
37.450         0
37.460        20
37.470         7
37.480         0
37.490        20
37.500        33
37.510        60
37.520        33
37.530        13
37.540        47
37.550        33
37.560        40
37.570        20
37.580        33
37.590        27
37.600        20
37.610        20
37.620        13
37.630        40
37.640        33
37.650        20
37.660        13
37.670         7
37.680        20
37.690        13
37.700        27
37.710        27
37.720        27
37.730        40
37.740        13
37.750        53
37.760        33
37.770        27
37.780        40
37.790        20
37.800         0
37.810        20
37.820        20
37.830        53
37.840         7
37.850        27
37.860        13
37.870        33
37.880        40
37.890        13
37.900        40
37.910        33
37.920        33
37.930        13
37.940         7
37.950        20
37.960        53
37.970        13
37.980        20
37.990        40
38.000         7
38.010         7
38.020        13
38.030        13
38.040        13
38.050        20
38.060        13
38.070         7
38.080        13
38.090        27
38.100        27
38.110        27
38.120        40
38.130        27
38.140        33
38.150        33
38.160        33
38.170        27
38.180         7
38.190        20
38.200        13
38.210        27
38.220        20
38.230         7
38.240        27
38.250        33
38.260        33
38.270        27
38.280        27
38.290        27
38.300        60
38.310        47
38.320        20
38.330         0
38.340        40
38.350        33
38.360        13
38.370        27
38.380        20
38.390        13
38.400        33
38.410        53
38.420        27
38.430        20
38.440        33
38.450         0
38.460        20
38.470        13
38.480        27
38.490         7
38.500        27
38.510        13
38.520        13
38.530        27
38.540        20
38.550        20
38.560        27
38.570        33
38.580        13
38.590        20
38.600        27
38.610        13
38.620        20
38.630        40
38.640        53
38.650        27
38.660        27
38.670        20
38.680        33
38.690        27
38.700        33
38.710        33
38.720         7
38.730         7
38.740        33
38.750        40
38.760         7
38.770        20
38.780        20
38.790        13
38.800        27
38.810        13
38.820        20
38.830        20
38.840        20
38.850        13
38.860        33
38.870        13
38.880        27
38.890        27
38.900        33
38.910        20
38.920        13
38.930        13
38.940        27
38.950        33
38.960        40
38.970         7
38.980         7
38.990         7
39.000        20
39.010        33
39.020        13
39.030        40
39.040        20
39.050        20
39.060        20
39.070        27
39.080        47
39.090        20
39.100        27
39.110        27
39.120         7
39.130        20
39.140        13
39.150        20
39.160        13
39.170        13
39.180        20
39.190        20
39.200        20
39.210        33
39.220        13
39.230        13
39.240        47
39.250        40
39.260        27
39.270        27
39.280        40
39.290        27
39.300        47
39.310        27
39.320        47
39.330        20
39.340        20
39.350        27
39.360        40
39.370        47
39.380         7
39.390         7
39.400        20
39.410        27
39.420        33
39.430        33
39.440        20
39.450        33
39.460        40
39.470         7
39.480        27
39.490        20
39.500        27
39.510         7
39.520        33
39.530        33
39.540        33
39.550        27
39.560        27
39.570        40
39.580         7
39.590        33
39.600        13
39.610        60
39.620        27
39.630         7
39.640        27
39.650        47
39.660        40
39.670        40
39.680        27
39.690        27
39.700        33
39.710        13
39.720        27
39.730        33
39.740        33
39.750        13
39.760        60
39.770        33
39.780        27
39.790        20
39.800        53
39.810        13
39.820        27
39.830        40
39.840        27
39.850        60
39.860        53
39.870        67
39.880        20
39.890        27
39.900        53
39.910        20
39.920        33
39.930        13
39.940        27
39.950        27
39.960        13
39.970        33
39.980        47
39.990        33
40.000        40
40.010        47
40.020        20
40.030        40
40.040        40
40.050        67
40.060        60
40.070        40
40.080        60
40.090        40
40.100        53
40.110        40
40.120        47
40.130        13
40.140        33
40.150        40
40.160        20
40.170        40
40.180        27
40.190        33
40.200        27
40.210        40
40.220        27
40.230        33
40.240        27
40.250        20
40.260        33
40.270        27
40.280        33
40.290        33
40.300        53
40.310        27
40.320        27
40.330        47
40.340        33
40.350        27
40.360        27
40.370        40
40.380        33
40.390        33
40.400        13
40.410        13
40.420        20
40.430        27
40.440         7
40.450        33
40.460        33
40.470        20
40.480        20
40.490        27
40.500         0
40.510        20
40.520        13
40.530         0
40.540        33
40.550        40
40.560        20
40.570        33
40.580        27
40.590        27
40.600        33
40.610         7
40.620        33
40.630        13
40.640        40
40.650        27
40.660        20
40.670        27
40.680        13
40.690        13
40.700        20
40.710        33
40.720        20
40.730        13
40.740        47
40.750        40
40.760         7
40.770         7
40.780        33
40.790        60
40.800        53
40.810        33
40.820        27
40.830        27
40.840        40
40.850        13
40.860        13
40.870         7
40.880        20
40.890         7
40.900        33
40.910        53
40.920        47
40.930        20
40.940        20
40.950        53
40.960        13
40.970         7
40.980        27
40.990         7
41.000        33
41.010        20
41.020        40
41.030        27
41.040         7
41.050        20
41.060        33
41.070        27
41.080        20
41.090        13
41.100        13
41.110        20
41.120        33
41.130        27
41.140        20
41.150         7
41.160         0
41.170        47
41.180        27
41.190        27
41.200        33
41.210         7
41.220        27
41.230        20
41.240        47
41.250        20
41.260        47
41.270        20
41.280        33
41.290        20
41.300        33
41.310        27
41.320        47
41.330        13
41.340        53
41.350        27
41.360        53
41.370        33
41.380        33
41.390        33
41.400        40
41.410        47
41.420        53
41.430        60
41.440        33
41.450        53
41.460        33
41.470        47
41.480       120
41.490        53
41.500        27
41.510        27
41.520        80
41.530        60
41.540        60
41.550        67
41.560        53
41.570        93
41.580        53
41.590        73
41.600        87
41.610       127
41.620       147
41.630        93
41.640       133
41.650       173
41.660       220
41.670       273
41.680       233
41.690       347
41.700       247
41.710       187
41.720       220
41.730       200
41.740       200
41.750       113
41.760       107
41.770       120
41.780       187
41.790       120
41.800       133
41.810       173
41.820       160
41.830       100
41.840       107
41.850        67
41.860        47
41.870        27
41.880        67
41.890        20
41.900        20
41.910        33
41.920        20
41.930        33
41.940        27
41.950        40
41.960        40
41.970        33
41.980         7
41.990        27
42.000         7
42.010        47
42.020        27
42.030         7
42.040        33
42.050        33
42.060        27
42.070        20
42.080        40
42.090        27
42.100        27
42.110        20
42.120         7
42.130        20
42.140        27
42.150        20
42.160        40
42.170        13
42.180         0
42.190        27
42.200         0
42.210        33
42.220        13
42.230        33
42.240        13
42.250        33
42.260        20
42.270        27
42.280        27
42.290        27
42.300        27
42.310        33
42.320        13
42.330        27
42.340        40
42.350        60
42.360        13
42.370        53
42.380        27
42.390        33
42.400        13
42.410        60
42.420        13
42.430         7
42.440        13
42.450        33
42.460        20
42.470        33
42.480        47
42.490        20
42.500        20
42.510        40
42.520        13
42.530        20
42.540        20
42.550        13
42.560        27
42.570        33
42.580        27
42.590        20
42.600        20
42.610        13
42.620        40
42.630        13
42.640        27
42.650        20
42.660        27
42.670        33
42.680        20
42.690        13
42.700        27
42.710        20
42.720        67
42.730        60
42.740        13
42.750        13
42.760        60
42.770        27
42.780        33
42.790        33
42.800         7
42.810        13
42.820        20
42.830        20
42.840        13
42.850        53
42.860        20
42.870        33
42.880        20
42.890        27
42.900        40
42.910        40
42.920        40
42.930        27
42.940        27
42.950        33
42.960         0
42.970        27
42.980        33
42.990        13
43.000        13
43.010        13
43.020        27
43.030        20
43.040        33
43.050        47
43.060        60
43.070        53
43.080        20
43.090        53
43.100        20
43.110        27
43.120        40
43.130        20
43.140        33
43.150        27
43.160        53
43.170        53
43.180         0
43.190        53
43.200        33
43.210        33
43.220        40
43.230         7
43.240        27
43.250        13
43.260        33
43.270        40
43.280        60
43.290        13
43.300        53
43.310        40
43.320        53
43.330        40
43.340        40
43.350        60
43.360        67
43.370        47
43.380        53
43.390        33
43.400        60
43.410        27
43.420        40
43.430        53
43.440        13
43.450        27
43.460         7
43.470        33
43.480        60
43.490        13
43.500        47
43.510        33
43.520        47
43.530        40
43.540        40
43.550        47
43.560        13
43.570        47
43.580        20
43.590        33
43.600        13
43.610        27
43.620        13
43.630        27
43.640        60
43.650        13
43.660        27
43.670        33
43.680        20
43.690        13
43.700        13
43.710        60
43.720        47
43.730        33
43.740        40
43.750        33
43.760        27
43.770         7
43.780        40
43.790        67
43.800        27
43.810        33
43.820        20
43.830        27
43.840        33
43.850        33
43.860        27
43.870         7
43.880        20
43.890        27
43.900         7
43.910        33
43.920        33
43.930        27
43.940        20
43.950        20
43.960        20
43.970        53
43.980        20
43.990        53
44.000        33
44.010        20
44.020        40
44.030        20
44.040        27
44.050        20
44.060        73
44.070         7
44.080        27
44.090        60
44.100        67
44.110        47
44.120        13
44.130        13
44.140        27
44.150        47
44.160        27
44.170        27
44.180        33
44.190        47
44.200        20
44.210        53
44.220         7
44.230        40
44.240        20
44.250         7
44.260         7
44.270        40
44.280        33
44.290        47
44.300        33
44.310        53
44.320        47
44.330        40
44.340        73
44.350        47
44.360         7
44.370        27
44.380        80
44.390        60
44.400        73
44.410        60
44.420        47
44.430        47
44.440        60
44.450        40
44.460        93
44.470        73
44.480        40
44.490        47
44.500        60
44.510        87
44.520        67
44.530        60
44.540        53
44.550        53
44.560        80
44.570        53
44.580        73
44.590        87
44.600        60
44.610       100
44.620       107
44.630        53
44.640        60
44.650        47
44.660        40
44.670        80
44.680        53
44.690        53
44.700       113
44.710        73
44.720        73
44.730        87
44.740        47
44.750        40
44.760        67
44.770        67
44.780       100
44.790        40
44.800        60
44.810       133
44.820        67
44.830        87
44.840        67
44.850        93
44.860        67
44.870        53
44.880        87
44.890        93
44.900       100
44.910        53
44.920       107
44.930        67
44.940        60
44.950        87
44.960       120
44.970        67
44.980        87
44.990       120
45.000       127
45.010        80
45.020       107
45.030        93
45.040        80
45.050       113
45.060       127
45.070       133
45.080       113
45.090       133
45.100       133
45.110       113
45.120       100
45.130       127
45.140       180
45.150       173
45.160       167
45.170       153
45.180       153
45.190       187
45.200       167
45.210       147
45.220       167
45.230       193
45.240       167
45.250       240
45.260       233
45.270       200
45.280       200
45.290       233
45.300       193
45.310       227
45.320       240
45.330       307
45.340       260
45.350       287
45.360       307
45.370       333
45.380       280
45.390       320
45.400       333
45.410       247
45.420       327
45.430       247
45.440       253
45.450       307
45.460       233
45.470       240
45.480       506
45.490       313
45.500       440
45.510       340
45.520       466
45.530       373
45.540       413
45.550       320
45.560       480
45.570       480
45.580       526
45.590       566
45.600       513
45.610       473
45.620       526
45.630       613
45.640       513
45.650       620
45.660       506
45.670       640
45.680       606
45.690       700
45.700       666
45.710       660
45.720       806
45.730       713
45.740       806
45.750       840
45.760       646
45.770       680
45.780       706
45.790       780
45.800       860
45.810       826
45.820       866
45.830       826
45.840       826
45.850       920
45.860       966
45.870      1013
45.880       940
45.890       853
45.900       786
45.910      1000
45.920       880
45.930       926
45.940       840
45.950      1100
45.960       820
45.970      1106
45.980       940
45.990       840
46.000      1020
46.010       893
46.020       986
46.030       880
46.040       926
46.050       986
46.060      1013
46.070      1033
46.080       960
46.090      1020
46.100       980
46.110      1186
46.120      1013
46.130       960
46.140      1006
46.150       840
46.160       846
46.170       840
46.180       940
46.190       740
46.200       653
46.210       840
46.220       893
46.230       980
46.240       926
46.250       760
46.260       820
46.270       806
46.280       693
46.290       746
46.300       840
46.310       753
46.320       660
46.330       813
46.340       706
46.350       633
46.360       733
46.370       746
46.380       620
46.390       600
46.400       673
46.410       653
46.420       646
46.430       686
46.440       673
46.450       740
46.460       533
46.470       560
46.480       453
46.490       433
46.500       426
46.510       473
46.520       493
46.530       426
46.540       440
46.550       373
46.560       407
46.570       506
46.580       420
46.590       380
46.600       387
46.610       327
46.620       307
46.630       287
46.640       387
46.650       327
46.660       347
46.670       313
46.680       253
46.690       347
46.700       307
46.710       287
46.720       313
46.730       240
46.740       267
46.750       287
46.760       313
46.770       200
46.780       207
46.790       253
46.800       167
46.810       180
46.820       207
46.830       253
46.840       267
46.850       207
46.860       173
46.870       213
46.880       207
46.890       160
46.900       200
46.910       207
46.920       240
46.930       187
46.940       187
46.950       100
46.960       220
46.970       247
46.980       133
46.990       133
47.000       187
47.010       167
47.020       133
47.030       140
47.040       160
47.050       180
47.060       100
47.070       120
47.080       153
47.090        80
47.100       120
47.110       127
47.120        87
47.130       107
47.140       147
47.150       113
47.160        87
47.170       160
47.180        87
47.190       113
47.200        87
47.210        67
47.220        93
47.230       113
47.240        73
47.250       100
47.260        40
47.270        73
47.280        73
47.290        73
47.300       113
47.310        53
47.320        93
47.330       100
47.340        80
47.350        47
47.360       113
47.370        87
47.380        53
47.390       113
47.400        87
47.410        80
47.420        53
47.430       107
47.440        93
47.450        93
47.460        67
47.470        67
47.480        40
47.490       120
47.500        40
47.510        27
47.520        53
47.530        40
47.540        53
47.550        67
47.560        33
47.570        80
47.580        73
47.590       100
47.600        27
47.610        67
47.620        47
47.630        87
47.640        40
47.650        27
47.660        67
47.670        40
47.680        67
47.690        67
47.700        33
47.710        53
47.720        27
47.730        40
47.740        40
47.750        53
47.760        60
47.770        53
47.780        20
47.790        60
47.800        20
47.810        47
47.820        40
47.830        87
47.840       113
47.850        47
47.860        53
47.870        40
47.880        20
47.890        67
47.900        47
47.910        53
47.920        40
47.930        27
47.940        27
47.950        60
47.960        33
47.970        93
47.980        27
47.990        53
48.000        47
48.010        40
48.020        53
48.030        27
48.040        47
48.050        20
48.060        33
48.070        33
48.080        47
48.090        20
48.100        47
48.110        27
48.120        13
48.130        20
48.140        33
48.150        20
48.160        47
48.170        40
48.180        60
48.190        47
48.200        40
48.210        73
48.220        40
48.230         7
48.240        40
48.250        20
48.260        33
48.270        73
48.280        33
48.290        40
48.300        13
48.310        60
48.320        53
48.330        40
48.340        40
48.350        40
48.360        33
48.370        47
48.380        53
48.390        27
48.400        40
48.410        27
48.420        40
48.430        27
48.440        33
48.450        47
48.460        47
48.470        33
48.480        40
48.490        47
48.500        27
48.510        20
48.520        27
48.530        13
48.540        73
48.550        60
48.560        67
48.570        13
48.580        33
48.590        27
48.600        47
48.610        27
48.620        33
48.630        27
48.640        33
48.650        53
48.660        13
48.670        33
48.680        27
48.690        47
48.700        60
48.710        33
48.720        33
48.730        53
48.740        27
48.750         0
48.760         7
48.770        27
48.780        27
48.790        27
48.800        13
48.810        20
48.820        27
48.830        27
48.840        20
48.850        20
48.860        20
48.870        20
48.880        40
48.890        13
48.900        20
48.910        40
48.920        53
48.930        20
48.940        20
48.950        33
48.960        40
48.970        27
48.980        47
48.990        27
49.000        27
49.010        20
49.020         7
49.030        13
49.040        40
49.050        13
49.060        33
49.070        33
49.080        40
49.090        27
49.100         7
49.110        20
49.120        33
49.130        33
49.140        40
49.150        13
49.160        67
49.170        40
49.180        40
49.190        13
49.200        47
49.210        27
49.220        47
49.230        60
49.240        27
49.250        47
49.260         0
49.270        20
49.280        33
49.290        13
49.300        47
49.310        40
49.320         7
49.330        47
49.340        60
49.350        33
49.360        20
49.370         7
49.380        27
49.390        13
49.400         7
49.410        27
49.420        40
49.430        27
49.440        33
49.450        13
49.460        13
49.470        13
49.480        40
49.490        13
49.500        40
49.510        20
49.520        20
49.530         7
49.540        47
49.550        13
49.560        20
49.570        33
49.580        33
49.590        20
49.600        33
49.610        40
49.620         7
49.630        20
49.640        13
49.650        13
49.660        27
49.670        13
49.680        47
49.690        27
49.700        13
49.710        27
49.720        27
49.730        20
49.740        40
49.750        27
49.760        13
49.770        13
49.780         7
49.790        40
49.800        27
49.810        40
49.820        20
49.830        27
49.840        13
49.850        13
49.860        27
49.870        20
49.880        33
49.890        40
49.900        40
49.910        20
49.920        40
49.930        13
49.940        33
49.950        20
49.960        40
49.970        60
49.980        20
49.990        20
50.000        20
50.010        27
50.020        20
50.030        27
50.040         7
50.050        20
50.060        20
50.070        13
50.080        33
50.090        47
50.100        33
50.110        13
50.120        53
50.130        27
50.140         0
50.150        13
50.160        27
50.170        47
50.180        33
50.190        13
50.200        13
50.210        33
50.220        27
50.230        40
50.240        33
50.250        40
50.260        33
50.270        13
50.280        33
50.290        20
50.300        20
50.310        20
50.320        33
50.330        20
50.340        33
50.350        33
50.360        13
50.370         7
50.380        13
50.390         7
50.400        20
50.410        33
50.420        33
50.430        13
50.440        13
50.450        27
50.460        33
50.470        20
50.480        47
50.490        27
50.500        47
50.510        20
50.520        20
50.530         7
50.540        13
50.550        20
50.560        20
50.570        27
50.580        33
50.590        40
50.600        53
50.610        20
50.620        40
50.630        33
50.640        20
50.650        53
50.660        40
50.670        13
50.680        33
50.690        27
50.700        27
50.710        20
50.720        20
50.730        47
50.740        27
50.750        20
50.760        53
50.770        27
50.780        13
50.790        13
50.800        13
50.810        33
50.820        27
50.830        33
50.840        20
50.850        40
50.860        27
50.870        20
50.880        27
50.890        20
50.900        20
50.910        13
50.920        13
50.930         0
50.940        33
50.950        20
50.960        20
50.970        13
50.980        27
50.990        27
51.000        13
51.010        33
51.020        20
51.030        20
51.040        33
51.050        53
51.060        27
51.070        27
51.080        13
51.090        20
51.100        20
51.110        13
51.120        33
51.130         7
51.140        20
51.150        13
51.160        27
51.170        27
51.180        27
51.190        20
51.200        13
51.210        33
51.220        20
51.230         7
51.240        13
51.250         7
51.260        33
51.270        13
51.280        20
51.290        13
51.300        13
51.310        27
51.320        33
51.330        33
51.340        13
51.350        27
51.360         7
51.370         7
51.380         0
51.390        27
51.400         7
51.410        27
51.420        40
51.430        40
51.440        27
51.450        13
51.460         7
51.470         7
51.480        27
51.490        13
51.500        13
51.510         7
51.520        27
51.530        27
51.540        27
51.550        40
51.560        20
51.570        40
51.580        27
51.590        20
51.600        13
51.610        33
51.620        13
51.630        73
51.640         0
51.650        13
51.660         0
51.670        47
51.680        13
51.690        33
51.700        40
51.710        40
51.720         0
51.730        33
51.740        20
51.750        13
51.760         7
51.770        20
51.780        27
51.790        20
51.800        27
51.810        13
51.820        20
51.830        33
51.840        40
51.850        27
51.860        33
51.870        20
51.880        13
51.890        60
51.900        13
51.910        40
51.920        33
51.930        20
51.940        27
51.950        33
51.960        20
51.970        20
51.980        20
51.990        33
52.000        20
52.010        47
52.020        13
52.030        33
52.040        27
52.050        13
52.060        33
52.070        20
52.080        20
52.090        33
52.100        13
52.110         7
52.120        33
52.130         0
52.140        33
52.150         7
52.160         7
52.170        33
52.180         7
52.190         0
52.200        13
52.210        47
52.220        13
52.230        33
52.240        33
52.250        27
52.260         0
52.270        13
52.280        13
52.290         7
52.300        13
52.310        40
52.320        40
52.330        33
52.340         7
52.350        47
52.360        20
52.370        33
52.380        40
52.390        27
52.400        13
52.410        33
52.420        20
52.430        27
52.440        20
52.450         7
52.460        20
52.470        33
52.480         7
52.490         7
52.500         7
52.510        40
52.520        67
52.530        20
52.540        27
52.550        27
52.560        40
52.570        33
52.580        33
52.590        20
52.600        33
52.610        20
52.620        27
52.630        27
52.640        13
52.650        40
52.660        20
52.670        13
52.680        20
52.690        27
52.700        20
52.710        20
52.720        20
52.730        33
52.740        20
52.750        13
52.760        20
52.770        33
52.780        13
52.790         7
52.800        20
52.810        33
52.820        20
52.830        13
52.840        33
52.850         7
52.860        20
52.870        13
52.880        20
52.890        13
52.900        13
52.910        20
52.920         7
52.930        27
52.940        27
52.950        33
52.960        20
52.970         7
52.980        20
52.990        13
53.000        13
53.010        13
53.020        20
53.030        27
53.040        13
53.050        13
53.060        20
53.070        13
53.080        13
53.090        13
53.100         7
53.110         0
53.120        20
53.130        33
53.140        13
53.150        13
53.160        13
53.170        27
53.180        27
53.190        20
53.200        13
53.210        27
53.220         7
53.230        27
53.240        13
53.250        13
53.260         7
53.270        13
53.280        27
53.290         7
53.300        47
53.310        20
53.320        13
53.330        20
53.340        33
53.350        13
53.360        27
53.370        27
53.380        13
53.390        27
53.400        27
53.410        13
53.420        13
53.430        13
53.440         0
53.450        13
53.460        20
53.470        33
53.480        13
53.490         0
53.500        27
53.510        20
53.520        33
53.530        13
53.540         7
53.550        20
53.560        20
53.570        20
53.580        20
53.590        40
53.600        33
53.610         7
53.620        20
53.630         0
53.640        13
53.650        20
53.660         0
53.670        20
53.680        33
53.690        13
53.700        20
53.710        20
53.720         7
53.730         0
53.740         7
53.750        27
53.760        27
53.770        13
53.780         7
53.790        27
53.800        13
53.810        20
53.820         7
53.830         7
53.840        20
53.850        13
53.860        13
53.870        20
53.880        27
53.890        20
53.900        20
53.910         7
53.920        27
53.930        27
53.940        33
53.950        13
53.960        13
53.970        40
53.980        20
53.990        33
54.000         7
54.010        20
54.020         7
54.030         7
54.040        13
54.050         7
54.060        27
54.070        13
54.080        20
54.090        20
54.100         0
54.110        20
54.120         7
54.130        13
54.140         0
54.150        20
54.160        13
54.170         0
54.180         7
54.190         7
54.200        27
54.210        27
54.220        20
54.230        13
54.240        27
54.250        27
54.260        27
54.270        20
54.280         7
54.290        20
54.300         7
54.310         7
54.320         0
54.330        33
54.340         7
54.350         7
54.360        20
54.370        13
54.380        33
54.390         7
54.400         0
54.410        13
54.420        33
54.430        13
54.440        20
54.450        13
54.460        20
54.470        33
54.480        20
54.490         7
54.500        33
54.510         7
54.520         7
54.530         7
54.540        20
54.550         0
54.560         7
54.570         7
54.580        27
54.590        27
54.600        20
54.610        13
54.620        13
54.630         0
54.640        13
54.650         7
54.660         0
54.670        33
54.680        40
54.690        27
54.700         7
54.710        40
54.720        13
54.730        20
54.740        20
54.750        27
54.760        20
54.770        13
54.780        27
54.790        47
54.800        13
54.810         7
54.820        27
54.830        13
54.840        13
54.850        13
54.860        20
54.870        20
54.880        27
54.890        13
54.900        27
54.910        27
54.920         7
54.930        13
54.940         0
54.950        13
54.960        20
54.970        20
54.980        13
54.990         7
55.000        13
55.010        20
55.020         7
55.030        27
55.040         7
55.050        47
55.060        20
55.070        20
55.080        33
55.090         7
55.100         7
55.110        20
55.120        13
55.130        13
55.140        27
55.150        20
55.160        27
55.170        27
55.180        20
55.190        13
55.200        13
55.210        27
55.220        20
55.230        13
55.240         7
55.250         7
55.260        20
55.270        27
55.280         7
55.290        27
55.300        13
55.310         0
55.320         7
55.330        27
55.340         7
55.350        20
55.360        20
55.370        27
55.380         7
55.390        40
55.400        13
55.410        13
55.420        13
55.430         7
55.440        20
55.450        20
55.460        20
55.470        33
55.480        13
55.490        13
55.500         7
55.510        20
55.520        20
55.530         7
55.540        27
55.550         7
55.560        13
55.570         7
55.580        20
55.590        20
55.600         0
55.610        13
55.620         0
55.630        33
55.640        20
55.650        33
55.660        20
55.670         7
55.680        27
55.690        27
55.700        27
55.710        13
55.720        27
55.730        20
55.740        13
55.750        20
55.760        20
55.770        20
55.780        13
55.790        13
55.800        13
55.810        27
55.820         0
55.830        33
55.840         7
55.850        33
55.860        13
55.870        27
55.880        33
55.890         7
55.900        40
55.910        13
55.920        53
55.930        27
55.940        20
55.950        20
55.960        13
55.970        13
55.980        20
55.990        20
56.000        13
56.010         7
56.020        27
56.030        13
56.040        13
56.050        13
56.060        33
56.070         7
56.080        20
56.090        33
56.100        13
56.110        20
56.120        13
56.130        13
56.140        13
56.150        13
56.160         7
56.170        33
56.180        27
56.190        13
56.200         0
56.210         7
56.220        13
56.230        47
56.240        13
56.250        27
56.260         7
56.270        13
56.280         7
56.290         7
56.300        20
56.310         0
56.320        40
56.330        20
56.340        13
56.350         7
56.360        27
56.370        13
56.380         7
56.390        27
56.400         0
56.410        13
56.420        13
56.430        33
56.440         7
56.450        13
56.460        20
56.470        20
56.480         7
56.490         7
56.500        27
56.510         7
56.520        20
56.530         0
56.540         0
56.550        13
56.560        13
56.570        27
56.580        27
56.590         7
56.600        13
56.610        47
56.620        27
56.630         0
56.640        20
56.650        33
56.660        20
56.670         7
56.680         7
56.690        47
56.700        27
56.710        13
56.720        20
56.730         7
56.740        27
56.750        13
56.760        13
56.770        20
56.780        33
56.790        13
56.800        13
56.810        20
56.820        33
56.830         0
56.840        20
56.850        27
56.860        13
56.870        20
56.880        33
56.890        33
56.900        40
56.910        27
56.920        20
56.930        40
56.940        20
56.950        27
56.960        27
56.970         0
56.980        13
56.990        27
57.000        40
57.010         7
57.020        13
57.030         7
57.040        20
57.050        20
57.060         7
57.070         7
57.080        20
57.090        13
57.100        27
57.110        33
57.120        20
57.130         0
57.140        33
57.150        13
57.160        13
57.170         7
57.180        13
57.190        27
57.200         0
57.210        40
57.220        13
57.230         0
57.240        13
57.250        27
57.260        47
57.270        20
57.280        13
57.290        27
57.300         7
57.310        33
57.320        20
57.330        33
57.340        27
57.350         7
57.360        40
57.370        27
57.380        20
57.390        13
57.400        20
57.410        27
57.420        13
57.430        20
57.440        47
57.450        13
57.460        33
57.470        13
57.480        47
57.490        53
57.500        60
57.510        27
57.520        33
57.530        33
57.540        20
57.550        20
57.560        13
57.570        33
57.580        33
57.590        13
57.600        27
57.610        20
57.620        33
57.630        47
57.640        27
57.650        13
57.660        33
57.670        13
57.680        40
57.690        53
57.700        13
57.710        33
57.720        27
57.730        20
57.740        20
57.750        27
57.760        33
57.770        27
57.780        27
57.790        20
57.800        20
57.810         7
57.820        33
57.830        40
57.840        33
57.850        40
57.860        13
57.870        27
57.880        13
57.890        40
57.900         0
57.910         7
57.920        20
57.930        60
57.940         7
57.950        20
57.960        27
57.970         0
57.980        27
57.990        20
58.000        27
58.010        13
58.020        13
58.030        13
58.040         7
58.050        20
58.060        40
58.070        13
58.080        13
58.090        27
58.100         7
58.110        20
58.120        20
58.130         0
58.140        33
58.150        33
58.160        13
58.170        27
58.180        20
58.190        33
58.200        33
58.210        33
58.220        20
58.230        33
58.240        20
58.250        40
58.260        20
58.270        20
58.280        13
58.290        13
58.300        20
58.310         0
58.320         7
58.330        33
58.340        20
58.350        33
58.360        20
58.370        13
58.380        20
58.390        13
58.400        20
58.410        27
58.420        13
58.430        13
58.440        13
58.450        27
58.460        20
58.470        13
58.480         7
58.490        20
58.500        27
58.510        33
58.520         7
58.530        27
58.540        13
58.550        20
58.560        27
58.570        33
58.580         7
58.590        27
58.600        33
58.610         7
58.620        20
58.630        20
58.640         7
58.650        33
58.660         7
58.670        13
58.680        13
58.690        33
58.700        40
58.710         7
58.720        33
58.730        47
58.740        13
58.750        13
58.760        27
58.770        13
58.780        13
58.790         0
58.800        13
58.810        13
58.820        20
58.830        33
58.840         7
58.850        13
58.860         7
58.870        20
58.880        13
58.890         7
58.900        40
58.910        13
58.920         7
58.930        20
58.940         0
58.950        13
58.960        13
58.970        27
58.980         7
58.990        13
59.000        20
59.010        20
59.020        20
59.030        27
59.040        27
59.050         0
59.060        13
59.070        13
59.080        27
59.090        13
59.100        13
59.110        27
59.120        13
59.130         7
59.140        13
59.150        27
59.160        13
59.170        27
59.180        20
59.190        13
59.200         7
59.210         7
59.220        13
59.230         0
59.240         7
59.250        20
59.260         7
59.270        33
59.280         7
59.290        27
59.300        20
59.310        13
59.320        13
59.330        13
59.340        13
59.350         7
59.360        20
59.370        40
59.380         0
59.390        47
59.400        27
59.410        13
59.420        20
59.430        27
59.440         7
59.450         7
59.460         7
59.470        33
59.480         7
59.490        27
59.500        13
59.510        33
59.520         7
59.530        13
59.540         7
59.550        13
59.560        20
59.570        13
59.580        33
59.590         7
59.600        27
59.610        20
59.620        13
59.630         0
59.640        13
59.650         0
59.660         7
59.670        13
59.680        27
59.690        13
59.700        20
59.710        40
59.720        13
59.730        13
59.740        27
59.750        13
59.760        33
59.770        13
59.780        20
59.790        13
59.800        33
59.810        20
59.820         0
59.830        27
59.840        20
59.850        27
59.860        20
59.870        27
59.880        13
59.890        20
59.900        13
59.910         7
59.920        13
59.930         7
59.940         0
59.950        27
59.960        13
59.970         0
59.980        33
59.990         7
60.000         7
