20.000        53
20.010        53
20.020        67
20.030        33
20.040        67
20.050        60
20.060        67
20.070        27
20.080        60
20.090        27
20.100        47
20.110        20
20.120        67
20.130        40
20.140        33
20.150        73
20.160        40
20.170        27
20.180        53
20.190        33
20.200        53
20.210        33
20.220        27
20.230        20
20.240        73
20.250        40
20.260        27
20.270        47
20.280        47
20.290        27
20.300        27
20.310        40
20.320        67
20.330        40
20.340        27
20.350        33
20.360        33
20.370        67
20.380        53
20.390        33
20.400        60
20.410        67
20.420        67
20.430        47
20.440        53
20.450        53
20.460        33
20.470        87
20.480        53
20.490         7
20.500        47
20.510        40
20.520        27
20.530        40
20.540        33
20.550        53
20.560        60
20.570        27
20.580        60
20.590        27
20.600        53
20.610        47
20.620        40
20.630        33
20.640        47
20.650        47
20.660        27
20.670        47
20.680        33
20.690        20
20.700        60
20.710        47
20.720        40
20.730        40
20.740        33
20.750        33
20.760        27
20.770        13
20.780        20
20.790        53
20.800        40
20.810        53
20.820        67
20.830        40
20.840        33
20.850        27
20.860        27
20.870        33
20.880        40
20.890        67
20.900        33
20.910        60
20.920        40
20.930        33
20.940        33
20.950        20
20.960        27
20.970        40
20.980        47
20.990        33
21.000        33
21.010        67
21.020        60
21.030        47
21.040        53
21.050        53
21.060        13
21.070        67
21.080        20
21.090        27
21.100        20
21.110        53
21.120        27
21.130        33
21.140        20
21.150        67
21.160        47
21.170        40
21.180        20
21.190        67
21.200        53
21.210        20
21.220        33
21.230         7
21.240        53
21.250        53
21.260        27
21.270        40
21.280        53
21.290        27
21.300        27
21.310        33
21.320        33
21.330        80
21.340        40
21.350        40
21.360        53
21.370        40
21.380        67
21.390        80
21.400        60
21.410        47
21.420        67
21.430        33
21.440        40
21.450        40
21.460        67
21.470        27
21.480        33
21.490        13
21.500        67
21.510        40
21.520        67
21.530        60
21.540        27
21.550        27
21.560        53
21.570        53
21.580        40
21.590        47
21.600        33
21.610        13
21.620        53
21.630        47
21.640        13
21.650        47
21.660        33
21.670        27
21.680        60
21.690        40
21.700        33
21.710        40
21.720        53
21.730        60
21.740        20
21.750        40
21.760        60
21.770        27
21.780        53
21.790        67
21.800        53
21.810        47
21.820        40
21.830        27
21.840        40
21.850        53
21.860        27
21.870        60
21.880        60
21.890        67
21.900        40
21.910        67
21.920        33
21.930        47
21.940        40
21.950        53
21.960        20
21.970        53
21.980        53
21.990        47
22.000        20
22.010        27
22.020        60
22.030        60
22.040        73
22.050        20
22.060        40
22.070        40
22.080        27
22.090        40
22.100        80
22.110        53
22.120        47
22.130        67
22.140        60
22.150        87
22.160        60
22.170        27
22.180        53
22.190        40
22.200        87
22.210        93
22.220        60
22.230        53
22.240        87
22.250        73
22.260        87
22.270        80
22.280        53
22.290       127
22.300        73
22.310       100
22.320        67
22.330       100
22.340        60
22.350       133
22.360       120
22.370        47
22.380        67
22.390       120
22.400       133
22.410       120
22.420       120
22.430       127
22.440       100
22.450       127
22.460       127
22.470       140
22.480       113
22.490       107
22.500       207
22.510       167
22.520       200
22.530       227
22.540       167
22.550       180
22.560       140
22.570       213
22.580       180
22.590       200
22.600       160
22.610       207
22.620       153
22.630       133
22.640       173
22.650       200
22.660       220
22.670       113
22.680       193
22.690       153
22.700       113
22.710       133
22.720       193
22.730       180
22.740       200
22.750       147
22.760       193
22.770       147
22.780        87
22.790       133
22.800       113
22.810       100
22.820        87
22.830       107
22.840        67
22.850       133
22.860        93
22.870       127
22.880        80
22.890       120
22.900       127
22.910       107
22.920        73
22.930       133
22.940        87
22.950        93
22.960        80
22.970       120
22.980        87
22.990        87
23.000       113
23.010        60
23.020       140
23.030        53
23.040        80
23.050        60
23.060        33
23.070        67
23.080        73
23.090        73
23.100        67
23.110        73
23.120        60
23.130        47
23.140        80
23.150        27
23.160        47
23.170        80
23.180        60
23.190        80
23.200        53
23.210        33
23.220        67
23.230        33
23.240        73
23.250        33
23.260        20
23.270        60
23.280        60
23.290        73
23.300        33
23.310        73
23.320        47
23.330        67
23.340        40
23.350        53
23.360        60
23.370        60
23.380        53
23.390        53
23.400        27
23.410        13
23.420        40
23.430        40
23.440        60
23.450        53
23.460        40
23.470        60
23.480        27
23.490        20
23.500        53
23.510        73
23.520        80
23.530        33
23.540        33
23.550        27
23.560        27
23.570        47
23.580        20
23.590        27
23.600        53
23.610        20
23.620        73
23.630        40
23.640        33
23.650        67
23.660        47
23.670        47
23.680        53
23.690        53
23.700        47
23.710        40
23.720        20
23.730        47
23.740        67
23.750        53
23.760        60
23.770        33
23.780        47
23.790        20
23.800        47
23.810        87
23.820        53
23.830        60
23.840        33
23.850        33
23.860        47
23.870        40
23.880        47
23.890        60
23.900        53
23.910        80
23.920        47
23.930        13
23.940        53
23.950        27
23.960        60
23.970        27
23.980        20
23.990        47
24.000        53
24.010        13
24.020        47
24.030        47
24.040        40
24.050        47
24.060        40
24.070        53
24.080        47
24.090        40
24.100        47
24.110        93
24.120        53
24.130        47
24.140        27
24.150        40
24.160        27
24.170        27
24.180        27
24.190        33
24.200        60
24.210        27
24.220        40
24.230        40
24.240        20
24.250        47
24.260        27
24.270        47
24.280        53
24.290        53
24.300        33
24.310        47
24.320        60
24.330        40
24.340        40
24.350        47
24.360        13
24.370        60
24.380        47
24.390         7
24.400        53
24.410        20
24.420        40
24.430        73
24.440        20
24.450        73
24.460        20
24.470        60
24.480        47
24.490        40
24.500        73
24.510        33
24.520        53
24.530        47
24.540        27
24.550        27
24.560        47
24.570        67
24.580        27
24.590        27
24.600        33
24.610        20
24.620        33
24.630        27
24.640        47
24.650        33
24.660        60
24.670        53
24.680        20
24.690        47
24.700        33
24.710        53
24.720        40
24.730        47
24.740        80
24.750        53
24.760        93
24.770        53
24.780        33
24.790        47
24.800        60
24.810        27
24.820        73
24.830        27
24.840        67
24.850        47
24.860        47
24.870        20
24.880        33
24.890        73
24.900        27
24.910        40
24.920        33
24.930        60
24.940        47
24.950        40
24.960        67
24.970        13
24.980        33
24.990        27
25.000        40
25.010        53
25.020        13
25.030        27
25.040        40
25.050        47
25.060        33
25.070        27
25.080        60
25.090        40
25.100        53
25.110        27
25.120        40
25.130        60
25.140        53
25.150        27
25.160        53
25.170        27
25.180        40
25.190        33
25.200        40
25.210        53
25.220        20
25.230        47
25.240        47
25.250        20
25.260        53
25.270        40
25.280        40
25.290        40
25.300        27
25.310        60
25.320        33
25.330        47
25.340        27
25.350        80
25.360        33
25.370        33
25.380        80
25.390        20
25.400        60
25.410         0
25.420        33
25.430        47
25.440        53
25.450        47
25.460        33
25.470        67
25.480        33
25.490        27
25.500        47
25.510        47
25.520        40
25.530        60
25.540        73
25.550        33
25.560        27
25.570        47
25.580        47
25.590        47
25.600        27
25.610        20
25.620        20
25.630        47
25.640        47
25.650        80
25.660        20
25.670        27
25.680        20
25.690        47
25.700        27
25.710        47
25.720        47
25.730        47
25.740        47
25.750        33
25.760        13
25.770        20
25.780        60
25.790        13
25.800        47
25.810        27
25.820        13
25.830        13
25.840        47
25.850         7
25.860        40
25.870        40
25.880        40
25.890        47
25.900        53
25.910        33
25.920        47
25.930        33
25.940        40
25.950        27
25.960        47
25.970        47
25.980        67
25.990        27
26.000        33
26.010        33
26.020        47
26.030        13
26.040        33
26.050        20
26.060        40
26.070        60
26.080         7
26.090        40
26.100        47
26.110        40
26.120        27
26.130        33
26.140        53
26.150        40
26.160        20
26.170        27
26.180        47
26.190        53
26.200         7
26.210        20
26.220        33
26.230        47
26.240        20
26.250        40
26.260        40
26.270        33
26.280        40
26.290        20
26.300        47
26.310        20
26.320         0
26.330        33
26.340        53
26.350        20
26.360        40
26.370         7
26.380        13
26.390        40
26.400        27
26.410        40
26.420        47
26.430        27
26.440        40
26.450        47
26.460        47
26.470        20
26.480        33
26.490        27
26.500        67
26.510        53
26.520        53
26.530        20
26.540        33
26.550        40
26.560        47
26.570        33
26.580        27
26.590        33
26.600        20
26.610        53
26.620        27
26.630        47
26.640        47
26.650        13
26.660        60
26.670        47
26.680         0
26.690        27
26.700        67
26.710        53
26.720        40
26.730        47
26.740        20
26.750        20
26.760        33
26.770        53
26.780         7
26.790        60
26.800        40
26.810        60
26.820        27
26.830        27
26.840        33
26.850        33
26.860        33
26.870        33
26.880        20
26.890        47
26.900        93
26.910        53
26.920        20
26.930        60
26.940        40
26.950        40
26.960        33
26.970        20
26.980        20
26.990        40
27.000        20
27.010         0
27.020        13
27.030        47
27.040        27
27.050        20
27.060        27
27.070        33
27.080        20
27.090         7
27.100        27
27.110        40
27.120        93
27.130        47
27.140        60
27.150        40
27.160        53
27.170        20
27.180        13
27.190        60
27.200        67
27.210        13
27.220        13
27.230        47
27.240        13
27.250        47
27.260        60
27.270         0
27.280        40
27.290        40
27.300        13
27.310        20
27.320        33
27.330        33
27.340        80
27.350        27
27.360        60
27.370        13
27.380        27
27.390        60
27.400        53
27.410        47
27.420        40
27.430        27
27.440        53
27.450        27
27.460        27
27.470        47
27.480         7
27.490        33
27.500        13
27.510        13
27.520        27
27.530        20
27.540        53
27.550        27
27.560        53
27.570        20
27.580        20
27.590        27
27.600        67
27.610        20
27.620         0
27.630        20
27.640        20
27.650        33
27.660        20
27.670        13
27.680        60
27.690        33
27.700        20
27.710        20
27.720        27
27.730        47
27.740        53
27.750        80
27.760        40
27.770         7
27.780        33
27.790        33
27.800        27
27.810        40
27.820        27
27.830        27
27.840        33
27.850        40
27.860        47
27.870        67
27.880        53
27.890        27
27.900        40
27.910         7
27.920        40
27.930        40
27.940        47
27.950        40
27.960        53
27.970        40
27.980        53
27.990        53
28.000        47
28.010        33
28.020        13
28.030        33
28.040         7
28.050        20
28.060        13
28.070        40
28.080        33
28.090        47
28.100        33
28.110        20
28.120        27
28.130        20
28.140        40
28.150        20
28.160        47
28.170        33
28.180        13
28.190        13
28.200        47
28.210         7
28.220        33
28.230         7
28.240        33
28.250        27
28.260        20
28.270        33
28.280        27
28.290        13
28.300        47
28.310        33
28.320        20
28.330        27
28.340        27
28.350        40
28.360        20
28.370        53
28.380        27
28.390        27
28.400        33
28.410        33
28.420        27
28.430        27
28.440        27
28.450         7
28.460         7
28.470        27
28.480        33
28.490        47
28.500        27
28.510        47
28.520        27
28.530        20
28.540        20
28.550         7
28.560        47
28.570        20
28.580        33
28.590        27
28.600        13
28.610        73
28.620        13
28.630        27
28.640        40
28.650        20
28.660        33
28.670        33
28.680        33
28.690        13
28.700         7
28.710        33
28.720         7
28.730        33
28.740         7
28.750        67
28.760        20
28.770        27
28.780        27
28.790         7
28.800         7
28.810        33
28.820        13
28.830        33
28.840        13
28.850        27
28.860        40
28.870        27
28.880        33
28.890        20
28.900        33
28.910        33
28.920        40
28.930        27
28.940        33
28.950        13
28.960        40
28.970        40
28.980        47
28.990        13
29.000        40
29.010         0
29.020        27
29.030        13
29.040        47
29.050        27
29.060        13
29.070        27
29.080        53
29.090        60
29.100        67
29.110        40
29.120        33
29.130        20
29.140        60
29.150        40
29.160        60
29.170        53
29.180        40
29.190        33
29.200        53
29.210        40
29.220        40
29.230        53
29.240        33
29.250        47
29.260        40
29.270        40
29.280        27
29.290        33
29.300        53
29.310        40
29.320        60
29.330        80
29.340        80
29.350        47
29.360        27
29.370        40
29.380        47
29.390        93
29.400        73
29.410        33
29.420        53
29.430        40
29.440        73
29.450        60
29.460        27
29.470         7
29.480        67
29.490        40
29.500        20
29.510        53
29.520        20
29.530        33
29.540        27
29.550        20
29.560        27
29.570        47
29.580        20
29.590        27
29.600        27
29.610        33
29.620        40
29.630        27
29.640         7
29.650        40
29.660        40
29.670         7
29.680        20
29.690        33
29.700        20
29.710        27
29.720         7
29.730        13
29.740        20
29.750        13
29.760         7
29.770        20
29.780        27
29.790        20
29.800        40
29.810        27
29.820        33
29.830        13
29.840        27
29.850        47
29.860        47
29.870        33
29.880        40
29.890        33
29.900        27
29.910         7
29.920        13
29.930        40
29.940        47
29.950        27
29.960        40
29.970        20
29.980        40
29.990        27
30.000        33
30.010        13
30.020        13
30.030        40
30.040        27
30.050        20
30.060         7
30.070        13
30.080        13
30.090        20
30.100        40
30.110        47
30.120        13
30.130        27
30.140        27
30.150        20
30.160        33
30.170        40
30.180        20
30.190        13
30.200        20
30.210        20
30.220        40
30.230        20
30.240        13
30.250        53
30.260        13
30.270        40
30.280        53
30.290        20
30.300        27
30.310        47
30.320        27
30.330         0
30.340        13
30.350        13
30.360        27
30.370        13
30.380        53
30.390        33
30.400        40
30.410        13
30.420        47
30.430        40
30.440        27
30.450        20
30.460        27
30.470        13
30.480        40
30.490         7
30.500        27
30.510        33
30.520         7
30.530        40
30.540        47
30.550        27
30.560        20
30.570        33
30.580        20
30.590        47
30.600        27
30.610        27
30.620        13
30.630        13
30.640        20
30.650        27
30.660         7
30.670         7
30.680        20
30.690        20
30.700         7
30.710        27
30.720        33
30.730        27
30.740        40
30.750        67
30.760        20
30.770        20
30.780        27
30.790         7
30.800        33
30.810        40
30.820        20
30.830        27
30.840        47
30.850        20
30.860        27
30.870        47
30.880        13
30.890        20
30.900        60
30.910        20
30.920        47
30.930        13
30.940        27
30.950         7
30.960        27
30.970         7
30.980        13
30.990         7
31.000        20
31.010        13
31.020        33
31.030        20
31.040        40
31.050        20
31.060        40
31.070        40
31.080        40
31.090        13
31.100        53
31.110        27
31.120        47
31.130        13
31.140        33
31.150        20
31.160        40
31.170        27
31.180        47
31.190        20
31.200        20
31.210        20
31.220        47
31.230         7
31.240        33
31.250        33
31.260        27
31.270        27
31.280        27
31.290        47
31.300        47
31.310        33
31.320        33
31.330        33
31.340        20
31.350        27
31.360        33
31.370        47
31.380        33
31.390         7
31.400        53
31.410        20
31.420        47
31.430        40
31.440        40
31.450        13
31.460        20
31.470        47
31.480        87
31.490        40
31.500        27
31.510        47
31.520        40
31.530        47
31.540        40
31.550        40
31.560        27
31.570        33
31.580        47
31.590        40
31.600        47
31.610        13
31.620        33
31.630        20
31.640        20
31.650        27
31.660        33
31.670        13
31.680        27
31.690        27
31.700        27
31.710        27
31.720        33
31.730        47
31.740         0
31.750        27
31.760         7
31.770        60
31.780        13
31.790        47
31.800        47
31.810        33
31.820        47
31.830        40
31.840        33
31.850        40
31.860        40
31.870        40
31.880        27
31.890        27
31.900        60
31.910        67
31.920        47
31.930        73
31.940        47
31.950        40
31.960        33
31.970        27
31.980        60
31.990        67
32.000        60
32.010        93
32.020        40
32.030        27
32.040        87
32.050        73
32.060        93
32.070        93
32.080        87
32.090       140
32.100        47
32.110        73
32.120       127
32.130       107
32.140        87
32.150       100
32.160       153
32.170       113
32.180       160
32.190       167
32.200       120
32.210       107
32.220       193
32.230       100
32.240       187
32.250       140
32.260       180
32.270       147
32.280       107
32.290       127
32.300       187
32.310       260
32.320       220
32.330        93
32.340       167
32.350       227
32.360       213
32.370       147
32.380       200
32.390       173
32.400       167
32.410       220
32.420       193
32.430       173
32.440       193
32.450       200
32.460       147
32.470       200
32.480       153
32.490       153
32.500       133
32.510       107
32.520       147
32.530       140
32.540       100
32.550       120
32.560       153
32.570        87
32.580        93
32.590        47
32.600       133
32.610        93
32.620       107
32.630       113
32.640        67
32.650       100
32.660        60
32.670       100
32.680        80
32.690        73
32.700        47
32.710        53
32.720        60
32.730       107
32.740        47
32.750        80
32.760        87
32.770        33
32.780        73
32.790        33
32.800        47
32.810        53
32.820        33
32.830        33
32.840        33
32.850        20
32.860        27
32.870        33
32.880        20
32.890        87
32.900       107
32.910        13
32.920        33
32.930        33
32.940        27
32.950        27
32.960        40
32.970        33
32.980        47
32.990        27
33.000        33
33.010        33
33.020        33
33.030        20
33.040        53
33.050        20
33.060         7
33.070        20
33.080        27
33.090        20
33.100        47
33.110        20
33.120        53
33.130        13
33.140        27
33.150        47
33.160        27
33.170        20
33.180        47
33.190        20
33.200        20
33.210        13
33.220        27
33.230        53
33.240        40
33.250        33
33.260         7
33.270        27
33.280        20
33.290        47
33.300        47
33.310        27
33.320        20
33.330        27
33.340        33
33.350        33
33.360        60
33.370        13
33.380        33
33.390        13
33.400        27
33.410        27
33.420         7
33.430        27
33.440        33
33.450        47
33.460         0
33.470        13
33.480        13
33.490        40
33.500        13
33.510        53
33.520        27
33.530        27
33.540         7
33.550        13
33.560        40
33.570        13
33.580        20
33.590        20
33.600        27
33.610        13
33.620        20
33.630        13
33.640        20
33.650         7
33.660        20
33.670        53
33.680        33
33.690        20
33.700        13
33.710        40
33.720        33
33.730         7
33.740        33
33.750        13
33.760        20
33.770        27
33.780        53
33.790        27
33.800        27
33.810        47
33.820        27
33.830        33
33.840        27
33.850        40
33.860        27
33.870        33
33.880        27
33.890        47
33.900        40
33.910        27
33.920        20
33.930        53
33.940        13
33.950        27
33.960        27
33.970        13
33.980        47
33.990        13
34.000        20
34.010         7
34.020        47
34.030        27
34.040         0
34.050         7
34.060        13
34.070        33
34.080        20
34.090        47
34.100        47
34.110        33
34.120        27
34.130        27
34.140         7
34.150        27
34.160        47
34.170        13
34.180        40
34.190         7
34.200         7
34.210        40
34.220        20
34.230        47
34.240        20
34.250        33
34.260        40
34.270        13
34.280        20
34.290         0
34.300        20
34.310        27
34.320        47
34.330         7
34.340        20
34.350         0
34.360         7
34.370        20
34.380        27
34.390        33
34.400        13
34.410        13
34.420         7
34.430        47
34.440        47
34.450         0
34.460        13
34.470        13
34.480        13
34.490        20
34.500         7
34.510        40
34.520        40
34.530        20
34.540        40
34.550        27
34.560        20
34.570        40
34.580        20
34.590        13
34.600        13
34.610        27
34.620        13
34.630        33
34.640        27
34.650        13
34.660        20
34.670        27
34.680        20
34.690        33
34.700        20
34.710        20
34.720        27
34.730        13
34.740        20
34.750         7
34.760        20
34.770         7
34.780        13
34.790        27
34.800        13
34.810        13
34.820        13
34.830        27
34.840        40
34.850        27
34.860        40
34.870        20
34.880        20
34.890        33
34.900        20
34.910        67
34.920         7
34.930        47
34.940        27
34.950        20
34.960        20
34.970        27
34.980        13
34.990        20
35.000        20
35.010        13
35.020        20
35.030        27
35.040        33
35.050        33
35.060        20
35.070         7
35.080        40
35.090        27
35.100        20
35.110        13
35.120        40
35.130        20
35.140        20
35.150        20
35.160        13
35.170        27
35.180         7
35.190        20
35.200        40
35.210        27
35.220        33
35.230        20
35.240        13
35.250        20
35.260        13
35.270         7
35.280         7
35.290        27
35.300        13
35.310        20
35.320        13
35.330        13
35.340        13
35.350        13
35.360        20
35.370        27
35.380        20
35.390        20
35.400        13
35.410        20
35.420        27
35.430        13
35.440        33
35.450         7
35.460        13
35.470        27
35.480        60
35.490        33
35.500        33
35.510         7
35.520        47
35.530        20
35.540         7
35.550        33
35.560        27
35.570         7
35.580        27
35.590        13
35.600        20
35.610        40
35.620        27
35.630         7
35.640        33
35.650         7
35.660        47
35.670         7
35.680        40
35.690         7
35.700        13
35.710        20
35.720         7
35.730        27
35.740        40
35.750         7
35.760         7
35.770         0
35.780        27
35.790        20
35.800        20
35.810        47
35.820        27
35.830        13
35.840        27
35.850         7
35.860        40
35.870        27
35.880        13
35.890         0
35.900        20
35.910        47
35.920        33
35.930        33
35.940        40
35.950        47
35.960        20
35.970        33
35.980        53
35.990        27
36.000        33
36.010        27
36.020         7
36.030        40
36.040        20
36.050        27
36.060        33
36.070        27
36.080         7
36.090        27
36.100        40
36.110        33
36.120        33
36.130        20
36.140        27
36.150        20
36.160        33
36.170        13
36.180         7
36.190        47
36.200         7
36.210        40
36.220         7
36.230        13
36.240        13
36.250        27
36.260         7
36.270         7
36.280        13
36.290        13
36.300        20
36.310         7
36.320        33
36.330        20
36.340        20
36.350        20
36.360         0
36.370        33
36.380        33
36.390        20
36.400        33
36.410        27
36.420        20
36.430        13
36.440        33
36.450        13
36.460        27
36.470         7
36.480        13
36.490        13
36.500        13
36.510        33
36.520        33
36.530        20
36.540        27
36.550         7
36.560         0
36.570        40
36.580         0
36.590        13
36.600        40
36.610         7
36.620        20
36.630         7
36.640        13
36.650        40
36.660        13
36.670        27
36.680        13
36.690         7
36.700        20
36.710         7
36.720        33
36.730        13
36.740        27
36.750        13
36.760        40
36.770        20
36.780        20
36.790        40
36.800        33
36.810         7
36.820        20
36.830        27
36.840        33
36.850         7
36.860         0
36.870        13
36.880         7
36.890        33
36.900        27
36.910        20
36.920        13
36.930        13
36.940        27
36.950        27
36.960         0
36.970        33
36.980         7
36.990        20
37.000         7
37.010        20
37.020        27
37.030        20
37.040        20
37.050        33
37.060        27
37.070        40
37.080        27
37.090        33
37.100        13
37.110        20
37.120        27
37.130        13
37.140        13
37.150        13
37.160        33
37.170        33
37.180        13
37.190        27
37.200        20
37.210         7
37.220        13
37.230         7
37.240         0
37.250        27
37.260         7
37.270        13
37.280        13
37.290        40
37.300        27
37.310        33
37.320        27
37.330        27
37.340        47
37.350         7
37.360        33
37.370        20
37.380        13
37.390         7
37.400        13
37.410         7
37.420         7
37.430        27
37.440         0
37.450         7
37.460        13
37.470        27
37.480        13
37.490        20
37.500        27
37.510        20
37.520        20
37.530        27
37.540        47
37.550        33
37.560        27
37.570        33
37.580        27
37.590         7
37.600        27
37.610        40
37.620        27
37.630         7
37.640        13
37.650        27
37.660        20
37.670         7
37.680        27
37.690        33
37.700         7
37.710        40
37.720        33
37.730        33
37.740        13
37.750        40
37.760        20
37.770        33
37.780        33
37.790        27
37.800        33
37.810        40
37.820        27
37.830        20
37.840         7
37.850        27
37.860         7
37.870        13
37.880        33
37.890        13
37.900        20
37.910         7
37.920         0
37.930        20
37.940        13
37.950        20
37.960         7
37.970        20
37.980         7
37.990        67
38.000         7
38.010        13
38.020         7
38.030        20
38.040        27
38.050        33
38.060        13
38.070        33
38.080        20
38.090        13
38.100        27
38.110         0
38.120        13
38.130        13
38.140        20
38.150        20
38.160         7
38.170        13
38.180        20
38.190         7
38.200        40
38.210        13
38.220        20
38.230         7
38.240         7
38.250        33
38.260        33
38.270        27
38.280         7
38.290         7
38.300        47
38.310        33
38.320        20
38.330        40
38.340        33
38.350        27
38.360        40
38.370         7
38.380         7
38.390        13
38.400        40
38.410        13
38.420        13
38.430        27
38.440         0
38.450        20
38.460        13
38.470        40
38.480         7
38.490        20
38.500        27
38.510        13
38.520        13
38.530         7
38.540        27
38.550        13
38.560        27
38.570        20
38.580        13
38.590        47
38.600        20
38.610        20
38.620         7
38.630        33
38.640        40
38.650         7
38.660        20
38.670        27
38.680        13
38.690        13
38.700        20
38.710        33
38.720         0
38.730        27
38.740         7
38.750        20
38.760        27
38.770        27
38.780        13
38.790         0
38.800        20
38.810         7
38.820        20
38.830         7
38.840         7
38.850        27
38.860        13
38.870         7
38.880         7
38.890         7
38.900        27
38.910        33
38.920        20
38.930        20
38.940        20
38.950         7
38.960         7
38.970         0
38.980         0
38.990        13
39.000         7
39.010        13
39.020        13
39.030        20
39.040        27
39.050        27
39.060        27
39.070        20
39.080         0
39.090        27
39.100        47
39.110        20
39.120        33
39.130        60
39.140        33
39.150        13
39.160        33
39.170        20
39.180         7
39.190        13
39.200        20
39.210         7
39.220        20
39.230        33
39.240        33
39.250        13
39.260        20
39.270        13
39.280        13
39.290        47
39.300        13
39.310        27
39.320         0
39.330        47
39.340        27
39.350        27
39.360        33
39.370        40
39.380        20
39.390        40
39.400        47
39.410        27
39.420        27
39.430         0
39.440        33
39.450        13
39.460        13
39.470        13
39.480        27
39.490        47
39.500        13
39.510         0
39.520         7
39.530        20
39.540        47
39.550         7
39.560        13
39.570        13
39.580        13
39.590        13
39.600        33
39.610        27
39.620        20
39.630         7
39.640        20
39.650        13
39.660        33
39.670        20
39.680        40
39.690         7
39.700        13
39.710        27
39.720        20
39.730        20
39.740        13
39.750        20
39.760        33
39.770        27
39.780        20
39.790        27
39.800         7
39.810        33
39.820         0
39.830        33
39.840        53
39.850        33
39.860        27
39.870        27
39.880        33
39.890        20
39.900        20
39.910         7
39.920        27
39.930         7
39.940        13
39.950        20
39.960         7
39.970        20
39.980        27
39.990         7
40.000         7
40.010        27
40.020        40
40.030        47
40.040         7
40.050        53
40.060        33
40.070        27
40.080        33
40.090         0
40.100        20
40.110        20
40.120         7
40.130        33
40.140        27
40.150        40
40.160         7
40.170        27
40.180         7
40.190        40
40.200        47
40.210        20
40.220         0
40.230        27
40.240        47
40.250        40
40.260        33
40.270        13
40.280        20
40.290        33
40.300        13
40.310        20
40.320        20
40.330        27
40.340        13
40.350        33
40.360        20
40.370        13
40.380        13
40.390        33
40.400        20
40.410        13
40.420        20
40.430        20
40.440        33
40.450        27
40.460         0
40.470         7
40.480        20
40.490         7
40.500        40
40.510        13
40.520        33
40.530         0
40.540         7
40.550         7
40.560        27
40.570        27
40.580        13
40.590        40
40.600        33
40.610        20
40.620        27
40.630        20
40.640        20
40.650        33
40.660        27
40.670        20
40.680        20
40.690        13
40.700        27
40.710        27
40.720        27
40.730        27
40.740        27
40.750        13
40.760         7
40.770        27
40.780        33
40.790        27
40.800        33
40.810        27
40.820        33
40.830        13
40.840        20
40.850        27
40.860        33
40.870        27
40.880        67
40.890        13
40.900        20
40.910        47
40.920        20
40.930        27
40.940        20
40.950         7
40.960        27
40.970        13
40.980         7
40.990         0
41.000        13
41.010        33
41.020         7
41.030        13
41.040        27
41.050        33
41.060        27
41.070        13
41.080         7
41.090        33
41.100        33
41.110         7
41.120        20
41.130        20
41.140        47
41.150        27
41.160        33
41.170        33
41.180        20
41.190        33
41.200        33
41.210        13
41.220        27
41.230        13
41.240        13
41.250        40
41.260        20
41.270        40
41.280        20
41.290        20
41.300        47
41.310        27
41.320        40
41.330        13
41.340        47
41.350        13
41.360        27
41.370         0
41.380        33
41.390        27
41.400        33
41.410        13
41.420        47
41.430        40
41.440         7
41.450        20
41.460        47
41.470        27
41.480        20
41.490        13
41.500        27
41.510        27
41.520        33
41.530        13
41.540        33
41.550        40
41.560         7
41.570        13
41.580        20
41.590        27
41.600        27
41.610        13
41.620        20
41.630        20
41.640        33
41.650        27
41.660        27
41.670        40
41.680        87
41.690        40
41.700         7
41.710         7
41.720        20
41.730        27
41.740        27
41.750        20
41.760        20
41.770        47
41.780         7
41.790        13
41.800        47
41.810        20
41.820        13
41.830        20
41.840        13
41.850        20
41.860        27
41.870        33
41.880        13
41.890        20
41.900        40
41.910        33
41.920        27
41.930        27
41.940        20
41.950         7
41.960        13
41.970        13
41.980        13
41.990        13
42.000        47
42.010        27
42.020        13
42.030        60
42.040        33
42.050        20
42.060         7
42.070         7
42.080        40
42.090        20
42.100        13
42.110        20
42.120        40
42.130        47
42.140        27
42.150        13
42.160        20
42.170        27
42.180        13
42.190        27
42.200        20
42.210        27
42.220        27
42.230         0
42.240        13
42.250        13
42.260         7
42.270         7
42.280         7
42.290        33
42.300        20
42.310         7
42.320        27
42.330        20
42.340        20
42.350        40
42.360        13
42.370        47
42.380        20
42.390        20
42.400         0
42.410        13
42.420        13
42.430        27
42.440        13
42.450        27
42.460        47
42.470        13
42.480        27
42.490        20
42.500         7
42.510        13
42.520         0
42.530        13
42.540        13
42.550        13
42.560        27
42.570        13
42.580        20
42.590        33
42.600         7
42.610         7
42.620         7
42.630        40
42.640        13
42.650         7
42.660         0
42.670         7
42.680        20
42.690        33
42.700         7
42.710        20
42.720        20
42.730        20
42.740        13
42.750         0
42.760        13
42.770        53
42.780         7
42.790        20
42.800        13
42.810        33
42.820        27
42.830        13
42.840        53
42.850        13
42.860        20
42.870        20
42.880        47
42.890        20
42.900         0
42.910        40
42.920         7
42.930        33
42.940        60
42.950        20
42.960        27
42.970        20
42.980        27
42.990        47
43.000        33
43.010        33
43.020        40
43.030        33
43.040        27
43.050        33
43.060        27
43.070        13
43.080        33
43.090        40
43.100        47
43.110        13
43.120        20
43.130        13
43.140        47
43.150        73
43.160        27
43.170        20
43.180        40
43.190        13
43.200        27
43.210        27
43.220         7
43.230        27
43.240        20
43.250        13
43.260        20
43.270        33
43.280        20
43.290        27
43.300        33
43.310        27
43.320         7
43.330        20
43.340        33
43.350        20
43.360        33
43.370        40
43.380        20
43.390        53
43.400        40
43.410         7
43.420        27
43.430        33
43.440         7
43.450        13
43.460        33
43.470        40
43.480        47
43.490         7
43.500        47
43.510        20
43.520        20
43.530         7
43.540        27
43.550        20
43.560         0
43.570        40
43.580        13
43.590        47
43.600        40
43.610        13
43.620         7
43.630        40
43.640        13
43.650        27
43.660        13
43.670         0
43.680        27
43.690         7
43.700         7
43.710        60
43.720         7
43.730        40
43.740        20
43.750        20
43.760        20
43.770        40
43.780        40
43.790        33
43.800        40
43.810        33
43.820        40
43.830        33
43.840        13
43.850        13
43.860        67
43.870         7
43.880        20
43.890        33
43.900        27
43.910        13
43.920        40
43.930        27
43.940        13
43.950         7
43.960        27
43.970        27
43.980        20
43.990        33
44.000        27
44.010        40
44.020        27
44.030        33
44.040        27
44.050        53
44.060        13
44.070        53
44.080        47
44.090        27
44.100        20
44.110        33
44.120        20
44.130        13
44.140        27
44.150        13
44.160        20
44.170        13
44.180        33
44.190        33
44.200        33
44.210         7
44.220        27
44.230        33
44.240        47
44.250        47
44.260        47
44.270        40
44.280        40
44.290        40
44.300        33
44.310        33
44.320        53
44.330        27
44.340        27
44.350        33
44.360        40
44.370         7
44.380        20
44.390        33
44.400        73
44.410        40
44.420        47
44.430        47
44.440        33
44.450        27
44.460        40
44.470        40
44.480        40
44.490        40
44.500        40
44.510         0
44.520        27
44.530        53
44.540        33
44.550        80
44.560        40
44.570        60
44.580        47
44.590        60
44.600        53
44.610        93
44.620        80
44.630        73
44.640        60
44.650        47
44.660        47
44.670        67
44.680        47
44.690        73
44.700        67
44.710        67
44.720        53
44.730        67
44.740        40
44.750        53
44.760        73
44.770        67
44.780        40
44.790        93
44.800        47
44.810        53
44.820        67
44.830        40
44.840        40
44.850        73
44.860        73
44.870        73
44.880        47
44.890       133
44.900        53
44.910        87
44.920        80
44.930        40
44.940        67
44.950        60
44.960        40
44.970        73
44.980        87
44.990        87
45.000        80
45.010        73
45.020       113
45.030        73
45.040       100
45.050        73
45.060       113
45.070        80
45.080        93
45.090       127
45.100       100
45.110       107
45.120        60
45.130        87
45.140        73
45.150       133
45.160        67
45.170       107
45.180       113
45.190       140
45.200       133
45.210       127
45.220       133
45.230       160
45.240       127
45.250       140
45.260       107
45.270       127
45.280       127
45.290       133
45.300       173
45.310       153
45.320       133
45.330       127
45.340       193
45.350       180
45.360       207
45.370       247
45.380       180
45.390       193
45.400       213
45.410       253
45.420       313
45.430       207
45.440       273
45.450       187
45.460       220
45.470       293
45.480       247
45.490       340
45.500       233
45.510       280
45.520       393
45.530       247
45.540       367
45.550       340
45.560       373
45.570       333
45.580       327
45.590       367
45.600       347
45.610       440
45.620       446
45.630       440
45.640       506
45.650       526
45.660       540
45.670       480
45.680       560
45.690       553
45.700       540
45.710       566
45.720       513
45.730       600
45.740       666
45.750       686
45.760       666
45.770       673
45.780       586
45.790       720
45.800       720
45.810       833
45.820       826
45.830       726
45.840      1006
45.850      1093
45.860       926
45.870       833
45.880       820
45.890      1000
45.900      1006
45.910       900
45.920       820
45.930      1206
45.940      1113
45.950      1033
45.960      1153
45.970      1120
45.980      1226
45.990      1100
46.000      1306
46.010      1193
46.020      1319
46.030      1299
46.040      1253
46.050      1146
46.060      1299
46.070      1153
46.080      1166
46.090      1319
46.100      1506
46.110      1359
46.120      1373
46.130      1299
46.140      1326
46.150      1473
46.160      1126
46.170      1193
46.180      1506
46.190      1146
46.200      1306
46.210      1299
46.220      1279
46.230      1473
46.240      1279
46.250      1193
46.260      1399
46.270      1299
46.280      1200
46.290      1120
46.300      1173
46.310      1133
46.320      1146
46.330      1193
46.340       986
46.350      1060
46.360      1000
46.370      1140
46.380       993
46.390       940
46.400       926
46.410       893
46.420       926
46.430      1026
46.440       973
46.450       900
46.460       886
46.470       920
46.480       840
46.490       840
46.500       766
46.510       720
46.520       733
46.530       860
46.540       806
46.550       513
46.560       653
46.570       606
46.580       626
46.590       686
46.600       573
46.610       646
46.620       686
46.630       566
46.640       500
46.650       580
46.660       513
46.670       460
46.680       393
46.690       426
46.700       486
46.710       433
46.720       440
46.730       360
46.740       480
46.750       313
46.760       413
46.770       453
46.780       260
46.790       420
46.800       387
46.810       293
46.820       327
46.830       340
46.840       367
46.850       340
46.860       233
46.870       353
46.880       227
46.890       213
46.900       213
46.910       240
46.920       280
46.930       187
46.940       333
46.950       267
46.960       293
46.970       267
46.980       193
46.990       220
47.000       253
47.010       193
47.020       167
47.030       193
47.040       187
47.050       173
47.060       167
47.070       127
47.080       173
47.090       193
47.100       167
47.110       153
47.120       193
47.130       127
47.140       180
47.150       127
47.160       147
47.170       167
47.180       100
47.190       160
47.200       133
47.210       113
47.220       160
47.230       147
47.240       133
47.250       107
47.260       160
47.270       107
47.280       147
47.290        60
47.300        67
47.310        93
47.320       100
47.330       113
47.340        93
47.350       107
47.360        80
47.370       100
47.380       140
47.390        93
47.400        73
47.410        80
47.420        93
47.430       107
47.440        53
47.450       133
47.460        73
47.470       120
47.480        67
47.490        67
47.500       100
47.510       107
47.520        87
47.530       120
47.540        53
47.550        47
47.560       107
47.570        73
47.580        87
47.590        73
47.600       107
47.610       113
47.620        87
47.630        47
47.640        33
47.650        20
47.660        73
47.670        67
47.680        53
47.690        73
47.700        73
47.710        60
47.720        60
47.730        87
47.740        60
47.750        67
47.760        53
47.770        73
47.780        67
47.790        80
47.800        53
47.810        47
47.820        40
47.830        67
47.840        60
47.850        27
47.860        53
47.870        60
47.880        60
47.890        53
47.900        27
47.910        33
47.920        27
47.930        60
47.940        60
47.950        47
47.960        47
47.970        40
47.980        40
47.990        53
48.000        53
48.010        40
48.020        40
48.030        67
48.040        20
48.050        13
48.060        53
48.070        40
48.080        20
48.090        20
48.100        20
48.110        27
48.120        53
48.130        60
48.140        47
48.150        27
48.160        40
48.170        20
48.180        27
48.190        20
48.200        33
48.210        40
48.220        47
48.230        33
48.240        80
48.250        40
48.260        33
48.270        33
48.280        47
48.290        67
48.300        13
48.310        73
48.320        27
48.330        53
48.340        33
48.350        60
48.360        33
48.370        33
48.380        67
48.390        80
48.400        53
48.410        67
48.420        60
48.430        27
48.440        33
48.450        13
48.460        27
48.470        27
48.480        20
48.490        93
48.500        40
48.510        33
48.520        73
48.530        60
48.540        40
48.550        53
48.560        47
48.570        60
48.580        33
48.590        47
48.600        33
48.610        53
48.620        40
48.630        33
48.640        20
48.650        27
48.660        40
48.670        47
48.680        13
48.690        40
48.700        53
48.710        53
48.720        40
48.730        33
48.740        27
48.750        27
48.760        40
48.770        20
48.780        47
48.790        33
48.800        40
48.810        67
48.820        33
48.830        27
48.840        27
48.850        27
48.860        33
48.870        33
48.880        53
48.890        20
48.900        20
48.910        47
48.920        20
48.930        60
48.940        40
48.950        13
48.960        33
48.970        20
48.980        47
48.990        40
49.000        47
49.010        67
49.020        33
49.030        27
49.040        20
49.050        40
49.060        13
49.070        33
49.080        27
49.090        33
49.100        27
49.110        40
49.120        27
49.130        20
49.140        13
49.150        20
49.160        13
49.170        20
49.180        27
49.190        13
49.200        33
49.210        47
49.220        33
49.230        27
49.240        33
49.250        27
49.260        27
49.270        13
49.280        40
49.290        33
49.300        27
49.310        27
49.320        67
49.330        27
49.340        40
49.350        20
49.360        27
49.370        40
49.380        13
49.390        27
49.400        27
49.410        47
49.420        27
49.430        40
49.440        27
49.450        13
49.460        20
49.470        13
49.480         7
49.490        40
49.500        33
49.510        53
49.520        27
49.530        13
49.540        20
49.550        40
49.560        27
49.570        47
49.580        40
49.590        27
49.600        13
49.610        33
49.620        13
49.630        27
49.640        47
49.650        67
49.660        40
49.670        13
49.680        47
49.690        53
49.700        13
49.710        20
49.720        20
49.730        40
49.740        27
49.750        27
49.760        47
49.770        27
49.780        47
49.790        13
49.800        20
49.810        60
49.820        33
49.830        40
49.840        20
49.850        33
49.860        20
49.870        33
49.880        20
49.890        53
49.900        13
49.910        13
49.920        20
49.930        27
49.940        27
49.950        27
49.960        20
49.970         7
49.980        60
49.990        20
50.000        20
50.010        33
50.020        47
50.030        20
50.040         7
50.050        13
50.060        13
50.070        13
50.080        33
50.090        33
50.100        27
50.110        13
50.120        20
50.130        20
50.140        67
50.150        73
50.160        40
50.170        13
50.180        33
50.190        20
50.200        20
50.210        20
50.220        53
50.230        47
50.240        33
50.250         0
50.260         7
50.270        27
50.280        27
50.290        20
50.300        33
50.310        13
50.320        27
50.330        20
50.340        47
50.350        40
50.360        20
50.370        33
50.380        33
50.390        27
50.400        47
50.410        27
50.420        40
50.430        33
50.440        40
50.450        20
50.460        33
50.470        40
50.480        20
50.490         7
50.500        47
50.510        27
50.520        27
50.530        27
50.540        33
50.550        40
50.560        20
50.570        40
50.580        20
50.590        27
50.600        13
50.610        13
50.620        20
50.630        20
50.640        27
50.650        27
50.660        60
50.670        13
50.680        13
50.690        27
50.700         7
50.710        33
50.720        13
50.730        33
50.740        13
50.750        20
50.760        40
50.770        20
50.780        40
50.790        20
50.800        67
50.810        53
50.820        20
50.830        53
50.840        53
50.850        33
50.860        33
50.870        20
50.880        27
50.890        27
50.900        27
50.910        47
50.920        20
50.930        53
50.940        13
50.950        33
50.960         0
50.970        27
50.980         7
50.990        47
51.000        20
51.010        33
51.020        13
51.030        20
51.040        20
51.050        27
51.060        40
51.070        60
51.080        27
51.090        53
51.100        47
51.110        27
51.120        20
51.130        33
51.140        33
51.150        47
51.160        40
51.170        40
51.180        40
51.190        20
51.200        47
51.210        47
51.220        13
51.230        20
51.240        40
51.250        13
51.260        27
51.270        47
51.280        13
51.290        13
51.300        13
51.310        53
51.320        40
51.330        27
51.340        27
51.350        27
51.360        40
51.370        47
51.380        40
51.390        20
51.400        33
51.410        20
51.420        33
51.430        27
51.440        47
51.450        27
51.460         7
51.470        33
51.480        20
51.490        33
51.500        33
51.510        20
51.520        20
51.530        40
51.540         0
51.550        47
51.560        27
51.570        40
51.580        40
51.590         7
51.600        47
51.610        60
51.620        33
51.630         7
51.640        53
51.650         7
51.660        20
51.670        47
51.680        40
51.690        13
51.700        20
51.710        27
51.720        47
51.730        53
51.740        40
51.750        47
51.760        53
51.770        27
51.780        27
51.790        40
51.800        33
51.810        20
51.820        20
51.830        40
51.840        20
51.850        20
51.860        33
51.870        40
51.880        47
51.890        47
51.900        27
51.910        40
51.920        60
51.930        33
51.940        33
51.950        20
51.960        20
51.970        33
51.980        20
51.990        33
52.000        40
52.010        27
52.020        40
52.030        33
52.040        40
52.050        27
52.060        67
52.070        53
52.080        47
52.090        20
52.100        60
52.110        20
52.120        20
52.130        60
52.140        53
52.150        13
52.160        73
52.170        60
52.180        53
52.190        47
52.200        53
52.210        80
52.220        87
52.230       147
52.240       120
52.250       147
52.260        67
52.270        87
52.280       120
52.290        40
52.300       120
52.310       120
52.320        80
52.330       107
52.340       120
52.350        60
52.360        80
52.370        80
52.380       120
52.390        60
52.400       100
52.410        80
52.420        47
52.430       133
52.440        67
52.450        73
52.460        67
52.470        40
52.480        53
52.490        47
52.500        93
52.510        67
52.520        27
52.530        27
52.540        20
52.550        33
52.560        33
52.570        27
52.580        27
52.590        53
52.600        60
52.610        53
52.620        40
52.630        47
52.640        33
52.650        67
52.660        27
52.670        53
52.680        33
52.690        33
52.700        40
52.710        53
52.720        27
52.730        67
52.740        40
52.750        13
52.760        47
52.770        27
52.780        33
52.790        20
52.800        47
52.810        27
52.820        40
52.830        73
52.840        47
52.850        40
52.860        33
52.870        40
52.880        33
52.890        47
52.900        13
52.910        27
52.920        20
52.930        27
52.940        73
52.950        40
52.960        27
52.970        27
52.980        27
52.990        40
53.000        53
53.010        27
53.020        47
53.030        27
53.040        33
53.050        27
53.060        33
53.070        13
53.080        13
53.090        40
53.100        33
53.110        27
53.120        60
53.130        40
53.140        33
53.150        13
53.160        20
53.170        27
53.180        27
53.190        53
53.200        13
53.210        33
53.220        33
53.230        13
53.240         7
53.250        20
53.260        13
53.270        27
53.280        33
53.290        27
53.300        33
53.310        53
53.320         7
53.330        33
53.340        33
53.350        33
53.360        47
53.370        53
53.380        33
53.390        33
53.400        33
53.410        27
53.420        40
53.430        33
53.440        13
53.450        20
53.460        20
53.470        73
53.480        33
53.490        53
53.500        40
53.510        33
53.520        27
53.530        20
53.540        47
53.550        40
53.560        33
53.570        33
53.580        33
53.590        20
53.600        20
53.610        13
53.620         7
53.630        60
53.640        27
53.650        20
53.660        20
53.670        27
53.680        60
53.690        33
53.700        40
53.710        27
53.720        40
53.730        13
53.740        47
53.750        47
53.760        40
53.770        53
53.780        27
53.790       107
53.800        13
53.810        27
53.820        27
53.830        20
53.840        13
53.850        73
53.860        33
53.870        13
53.880        20
53.890        27
53.900        27
53.910        20
53.920        13
53.930        33
53.940        33
53.950        27
53.960        40
53.970        13
53.980        27
53.990        20
54.000        27
54.010        33
54.020        13
54.030        33
54.040        27
54.050        33
54.060        13
54.070        40
54.080        40
54.090        20
54.100        40
54.110        27
54.120        27
54.130         7
54.140        40
54.150        27
54.160        20
54.170        13
54.180        27
54.190         7
54.200        13
54.210         7
54.220        33
54.230        40
54.240        33
54.250        53
54.260        13
54.270        13
54.280        33
54.290        20
54.300        20
54.310         0
54.320        27
54.330         7
54.340        27
54.350         7
54.360        20
54.370        20
54.380         7
54.390        20
54.400         7
54.410        13
54.420        53
54.430        40
54.440        20
54.450        20
54.460        20
54.470        20
54.480        40
54.490        33
54.500        20
54.510        20
54.520         7
54.530        33
54.540        20
54.550        33
54.560         0
54.570        20
54.580        33
54.590        13
54.600        27
54.610        33
54.620        27
54.630        27
54.640        27
54.650        27
54.660        27
54.670        33
54.680        20
54.690        33
54.700        20
54.710        40
54.720        20
54.730        27
54.740        20
54.750        13
54.760        47
54.770        13
54.780        20
54.790        33
54.800        20
54.810        27
54.820        13
54.830        20
54.840        27
54.850        67
54.860        33
54.870        20
54.880        40
54.890        20
54.900        40
54.910        27
54.920        13
54.930        40
54.940        27
54.950        13
54.960         7
54.970        47
54.980        27
54.990        27
55.000        33
55.010         7
55.020        13
55.030         7
55.040        20
55.050        27
55.060        40
55.070        53
55.080        27
55.090        20
55.100        33
55.110        27
55.120        27
55.130        33
55.140        27
55.150        27
55.160        53
55.170        20
55.180        27
55.190         0
55.200        13
55.210        13
55.220        40
55.230        53
55.240         0
55.250        20
55.260         7
55.270         7
55.280        27
55.290        40
55.300        27
55.310         7
55.320        13
55.330        13
55.340        13
55.350        20
55.360        27
55.370        13
55.380        13
55.390        13
55.400         0
55.410        27
55.420         7
55.430        27
55.440        27
55.450        33
55.460        13
55.470        20
55.480         0
55.490         7
55.500         7
55.510        20
55.520        33
55.530         7
55.540        13
55.550         7
55.560        13
55.570        47
55.580        60
55.590        27
55.600         0
55.610         7
55.620        13
55.630        20
55.640        13
55.650         7
55.660         7
55.670         7
55.680        40
55.690        33
55.700        33
55.710        33
55.720        27
55.730        13
55.740         7
55.750        20
55.760        33
55.770        13
55.780        33
55.790        20
55.800        33
55.810        27
55.820        20
55.830        13
55.840        13
55.850         7
55.860        20
55.870        27
55.880        33
55.890         7
55.900         7
55.910        27
55.920        13
55.930         7
55.940        13
55.950        20
55.960         0
55.970        27
55.980         7
55.990         7
56.000        13
56.010         7
56.020         7
56.030         7
56.040         7
56.050        27
56.060        13
56.070        20
56.080        13
56.090        27
56.100        27
56.110        47
56.120        20
56.130         0
56.140         0
56.150         7
56.160        47
56.170        20
56.180        20
56.190        20
56.200        20
56.210        13
56.220        20
56.230        27
56.240        13
56.250         7
56.260        33
56.270        27
56.280        13
56.290        33
56.300         7
56.310        20
56.320        13
56.330        20
56.340        20
56.350         7
56.360         7
56.370         7
56.380         7
56.390         7
56.400        33
56.410         7
56.420        13
56.430        40
56.440        33
56.450        27
56.460         7
56.470        33
56.480        13
56.490         7
56.500         7
56.510         7
56.520        13
56.530        20
56.540        13
56.550         7
56.560        27
56.570        27
56.580        13
56.590         7
56.600        40
56.610        40
56.620        20
56.630        27
56.640        33
56.650        20
56.660        33
56.670        13
56.680        20
56.690        20
56.700        27
56.710         7
56.720        20
56.730         7
56.740        13
56.750        20
56.760        47
56.770        27
56.780        20
56.790         7
56.800        40
56.810         7
56.820         7
56.830        27
56.840        20
56.850        27
56.860        13
56.870        40
56.880        20
56.890        20
56.900        27
56.910        20
56.920        20
56.930        33
56.940         0
56.950        27
56.960         0
56.970        20
56.980        20
56.990        20
57.000        20
57.010        27
57.020        13
57.030        33
57.040        33
57.050        20
57.060        27
57.070        40
57.080        33
57.090        13
57.100        13
57.110        27
57.120        13
57.130        20
57.140        33
57.150        13
57.160        27
57.170        13
57.180         7
57.190        27
57.200        20
57.210        20
57.220        13
57.230        13
57.240         7
57.250        20
57.260        27
57.270        13
57.280        20
57.290        20
57.300        33
57.310        20
57.320        33
57.330        33
57.340        40
57.350        40
57.360        47
57.370         7
57.380        13
57.390        20
57.400        13
57.410        13
57.420        27
57.430        20
57.440        13
57.450        13
57.460        53
57.470        20
57.480        20
57.490        33
57.500        27
57.510        60
57.520        27
57.530        13
57.540        20
57.550        20
57.560        13
57.570        40
57.580         0
57.590        13
57.600        13
57.610        33
57.620         7
57.630         7
57.640        27
57.650        27
57.660         7
57.670        20
57.680        13
57.690        33
57.700        20
57.710        20
57.720        27
57.730         0
57.740        27
57.750        40
57.760        13
57.770         0
57.780        27
57.790        27
57.800        27
57.810        20
57.820        20
57.830        47
57.840         7
57.850        20
57.860        20
57.870        47
57.880        27
57.890         7
57.900        13
57.910        13
57.920         7
57.930         7
57.940        13
57.950        13
57.960        13
57.970        47
57.980        33
57.990        27
58.000        13
58.010         7
58.020        47
58.030        13
58.040        33
58.050        13
58.060        13
58.070        20
58.080        13
58.090        13
58.100        13
58.110        20
58.120         0
58.130        13
58.140         7
58.150        20
58.160         7
58.170         7
58.180         0
58.190        13
58.200         7
58.210         7
58.220        13
58.230        13
58.240        27
58.250        27
58.260        20
58.270        13
58.280        20
58.290        47
58.300        13
58.310        40
58.320         7
58.330        20
58.340        27
58.350        20
58.360        27
58.370        20
58.380        13
58.390        13
58.400        27
58.410         0
58.420        13
58.430         7
58.440        13
58.450         7
58.460        13
58.470         7
58.480        27
58.490        27
58.500        20
58.510        13
58.520        27
58.530         0
58.540         7
58.550        13
58.560         7
58.570        20
58.580         0
58.590        13
58.600        33
58.610         0
58.620        13
58.630        20
58.640         0
58.650        20
58.660         7
58.670        33
58.680        33
58.690        20
58.700        13
58.710        27
58.720        13
58.730        27
58.740         0
58.750        13
58.760        20
58.770        27
58.780        13
58.790        13
58.800         0
58.810        13
58.820        13
58.830        13
58.840        13
58.850        13
58.860         7
58.870         0
58.880         7
58.890        20
58.900        33
58.910        20
58.920        20
58.930        13
58.940        20
58.950        13
58.960         0
58.970        20
58.980        27
58.990        20
59.000        20
59.010        13
59.020         7
59.030        27
59.040         7
59.050        13
59.060        20
59.070        13
59.080        13
59.090        27
59.100        13
59.110        13
59.120        13
59.130        13
59.140         7
59.150        20
59.160         7
59.170         7
59.180        27
59.190        13
59.200        40
59.210         0
59.220        13
59.230        13
59.240         7
59.250        20
59.260        13
59.270         0
59.280        13
59.290        13
59.300         7
59.310        13
59.320        27
59.330        20
59.340        20
59.350        13
59.360        13
59.370         0
59.380        13
59.390        20
59.400        47
59.410         7
59.420        13
59.430         7
59.440        13
59.450        13
59.460        27
59.470        27
59.480        13
59.490        27
59.500         0
59.510        13
59.520        20
59.530        20
59.540        20
59.550        13
59.560        13
59.570         7
59.580        13
59.590         0
59.600         7
59.610        20
59.620        27
59.630        20
59.640         7
59.650        20
59.660        27
59.670        20
59.680        33
59.690        13
59.700         7
59.710         0
59.720        27
59.730         0
59.740         7
59.750        20
59.760        13
59.770         7
59.780        20
59.790        13
59.800        27
59.810        20
59.820        40
59.830        20
59.840         7
59.850        27
59.860        33
59.870         7
59.880        13
59.890         7
59.900        20
59.910        20
59.920        13
59.930        20
59.940        20
59.950        27
59.960         7
59.970        13
59.980         7
59.990         7
60.000        13
