20.000        13
20.010        13
20.020        27
20.030        60
20.040        33
20.050        33
20.060        47
20.070        60
20.080        53
20.090        27
20.100        53
20.110        27
20.120        87
20.130        53
20.140        47
20.150        33
20.160        20
20.170        27
20.180        33
20.190        60
20.200        60
20.210        33
20.220        47
20.230        13
20.240        33
20.250        47
20.260        13
20.270        60
20.280        73
20.290        47
20.300        27
20.310        27
20.320        20
20.330        67
20.340        40
20.350        20
20.360        60
20.370        33
20.380        13
20.390        27
20.400        47
20.410        40
20.420        53
20.430        67
20.440        60
20.450        27
20.460        33
20.470        53
20.480        40
20.490        67
20.500        47
20.510        27
20.520        73
20.530        40
20.540        67
20.550        13
20.560        33
20.570        53
20.580        60
20.590        13
20.600        40
20.610        40
20.620        53
20.630        47
20.640        33
20.650        33
20.660        40
20.670         0
20.680        20
20.690        27
20.700        80
20.710        40
20.720        47
20.730        27
20.740        47
20.750        40
20.760        33
20.770        20
20.780        47
20.790        53
20.800        27
20.810        53
20.820        13
20.830        60
20.840        33
20.850        33
20.860        40
20.870        33
20.880        33
20.890        47
20.900        60
20.910        20
20.920        47
20.930        47
20.940        20
20.950        27
20.960        20
20.970        40
20.980        33
20.990        73
21.000        67
21.010        33
21.020        27
21.030        20
21.040        27
21.050        40
21.060        47
21.070         7
21.080        47
21.090        60
21.100        47
21.110        13
21.120        73
21.130        33
21.140        40
21.150        20
21.160        67
21.170        27
21.180        60
21.190        60
21.200        40
21.210        40
21.220        73
21.230        67
21.240        33
21.250        27
21.260        27
21.270        27
21.280        20
21.290        47
21.300        33
21.310        73
21.320        40
21.330        60
21.340        20
21.350        53
21.360        60
21.370        33
21.380         0
21.390        27
21.400        60
21.410        53
21.420        27
21.430        40
21.440        33
21.450        20
21.460        33
21.470        40
21.480        67
21.490        33
21.500        47
21.510        33
21.520        33
21.530        33
21.540         7
21.550        40
21.560        20
21.570        47
21.580        60
21.590        40
21.600        27
21.610        33
21.620        67
21.630        27
21.640        67
21.650        27
21.660        40
21.670        47
21.680        53
21.690        47
21.700        40
21.710        33
21.720        33
21.730        27
21.740        20
21.750        67
21.760        33
21.770        27
21.780        47
21.790        33
21.800        40
21.810        27
21.820        27
21.830        40
21.840        53
21.850        67
21.860        80
21.870        33
21.880        67
21.890        47
21.900        67
21.910        40
21.920        40
21.930        67
21.940        33
21.950        13
21.960        33
21.970        67
21.980         7
21.990        60
22.000        67
22.010        40
22.020        27
22.030        53
22.040        60
22.050        33
22.060        47
22.070        20
22.080        33
22.090        40
22.100        47
22.110        33
22.120         7
22.130        67
22.140         7
22.150        73
22.160        80
22.170        27
22.180        33
22.190        47
22.200        27
22.210        20
22.220        73
22.230        60
22.240        60
22.250        47
22.260        60
22.270        67
22.280        73
22.290        40
22.300        93
22.310        67
22.320        80
22.330        40
22.340        47
22.350        93
22.360       107
22.370        73
22.380        80
22.390       107
22.400       100
22.410        80
22.420        87
22.430        93
22.440        80
22.450        87
22.460       167
22.470       133
22.480       147
22.490        87
22.500       133
22.510       120
22.520        80
22.530        93
22.540       113
22.550       147
22.560       113
22.570        87
22.580        93
22.590       153
22.600       153
22.610       147
22.620       127
22.630       153
22.640       100
22.650        87
22.660       113
22.670        87
22.680       127
22.690        80
22.700       100
22.710        40
22.720       107
22.730        67
22.740        87
22.750       107
22.760        60
22.770        93
22.780        67
22.790       107
22.800       107
22.810       113
22.820        60
22.830        47
22.840        60
22.850        73
22.860       100
22.870        73
22.880        53
22.890        60
22.900        87
22.910        93
22.920        67
22.930        80
22.940       100
22.950        73
22.960        73
22.970        53
22.980       107
22.990        33
23.000        73
23.010        47
23.020        33
23.030        20
23.040        67
23.050        80
23.060        60
23.070        47
23.080        80
23.090        87
23.100        73
23.110        53
23.120        40
23.130        60
23.140        80
23.150        33
23.160        40
23.170        67
23.180        47
23.190        47
23.200        53
23.210        93
23.220        47
23.230        27
23.240        73
23.250        67
23.260        33
23.270        53
23.280        33
23.290        53
23.300        40
23.310        40
23.320        27
23.330        20
23.340        60
23.350        53
23.360        33
23.370        27
23.380        53
23.390        47
23.400        40
23.410        47
23.420        40
23.430        47
23.440        73
23.450        67
23.460        40
23.470        13
23.480        60
23.490        33
23.500        53
23.510        20
23.520        13
23.530        47
23.540        40
23.550        53
23.560        33
23.570        20
23.580        40
23.590        13
23.600        67
23.610        13
23.620        47
23.630        67
23.640        27
23.650         7
23.660        40
23.670        40
23.680        47
23.690        40
23.700        27
23.710        27
23.720        40
23.730        33
23.740        73
23.750        47
23.760        40
23.770        27
23.780        33
23.790        33
23.800        53
23.810        53
23.820        27
23.830        47
23.840         7
23.850        40
23.860        47
23.870        33
23.880        13
23.890        33
23.900        27
23.910        47
23.920        33
23.930        27
23.940        47
23.950        27
23.960        40
23.970        60
23.980        20
23.990        33
24.000        47
24.010        60
24.020        33
24.030        47
24.040        27
24.050        47
24.060        60
24.070        20
24.080        40
24.090        40
24.100        40
24.110        40
24.120        40
24.130        53
24.140        20
24.150        20
24.160        53
24.170        13
24.180        40
24.190        20
24.200        40
24.210        27
24.220        40
24.230        13
24.240        40
24.250        73
24.260        27
24.270        47
24.280        53
24.290        40
24.300        60
24.310        20
24.320        40
24.330        33
24.340        47
24.350        40
24.360        27
24.370        40
24.380        27
24.390        53
24.400        40
24.410        20
24.420        53
24.430        33
24.440        47
24.450        33
24.460        40
24.470        47
24.480       107
24.490        27
24.500        40
24.510        27
24.520        27
24.530        40
24.540        27
24.550        93
24.560        33
24.570        40
24.580        47
24.590        73
24.600        33
24.610        20
24.620        27
24.630        67
24.640        27
24.650        47
24.660        40
24.670        60
24.680        60
24.690        33
24.700        33
24.710        40
24.720        27
24.730        47
24.740        27
24.750        27
24.760        33
24.770        33
24.780        40
24.790        53
24.800        47
24.810        67
24.820        33
24.830        40
24.840        33
24.850        67
24.860        40
24.870        47
24.880        53
24.890        60
24.900        20
24.910        33
24.920        27
24.930        53
24.940        27
24.950        13
24.960        20
24.970        27
24.980        40
24.990        40
25.000        40
25.010        53
25.020        20
25.030         7
25.040        47
25.050        27
25.060        60
25.070        33
25.080        27
25.090        53
25.100        13
25.110        47
25.120        27
25.130        33
25.140        40
25.150         0
25.160        60
25.170        47
25.180        27
25.190        33
25.200        60
25.210        13
25.220        33
25.230        20
25.240        33
25.250        53
25.260        27
25.270        20
25.280        47
25.290        20
25.300        20
25.310        27
25.320        33
25.330        47
25.340        47
25.350        60
25.360        27
25.370        40
25.380        20
25.390        40
25.400        33
25.410        33
25.420        20
25.430        27
25.440        33
25.450        27
25.460        60
25.470        40
25.480        33
25.490        33
25.500        40
25.510        27
25.520        53
25.530        40
25.540        27
25.550        40
25.560        27
25.570        27
25.580        27
25.590        53
25.600        33
25.610        40
25.620        40
25.630        53
25.640        40
25.650        67
25.660        20
25.670        67
25.680        33
25.690        47
25.700        47
25.710        27
25.720        40
25.730        40
25.740        33
25.750        60
25.760        20
25.770        47
25.780        33
25.790        20
25.800        47
25.810        33
25.820        67
25.830        20
25.840        33
25.850         7
25.860        47
25.870        33
25.880        13
25.890         0
25.900        33
25.910        27
25.920        13
25.930        27
25.940        93
25.950        33
25.960        20
25.970        33
25.980        47
25.990        27
26.000        33
26.010        33
26.020         7
26.030        27
26.040        27
26.050        27
26.060        33
26.070         7
26.080        20
26.090        27
26.100        60
26.110        33
26.120        33
26.130        60
26.140        47
26.150        53
26.160        40
26.170        20
26.180         7
26.190        13
26.200        13
26.210        13
26.220        33
26.230        33
26.240        47
26.250        13
26.260        27
26.270        27
26.280        33
26.290        40
26.300        33
26.310        40
26.320        13
26.330        33
26.340        40
26.350        27
26.360        13
26.370        27
26.380        47
26.390        27
26.400        27
26.410        33
26.420        27
26.430        33
26.440        40
26.450        13
26.460        60
26.470         7
26.480        47
26.490        27
26.500        20
26.510        60
26.520        33
26.530        13
26.540        13
26.550        33
26.560        33
26.570        53
26.580        20
26.590        27
26.600        27
26.610         7
26.620         7
26.630        60
26.640        33
26.650        20
26.660        20
26.670        13
26.680        33
26.690        40
26.700        20
26.710        13
26.720        20
26.730        33
26.740        20
26.750        47
26.760        27
26.770        33
26.780        13
26.790        20
26.800        20
26.810         7
26.820        40
26.830        33
26.840        27
26.850        40
26.860        33
26.870        13
26.880        33
26.890         7
26.900        33
26.910         7
26.920        33
26.930        20
26.940        33
26.950        47
26.960        40
26.970        13
26.980        47
26.990        33
27.000        40
27.010        13
27.020        27
27.030        40
27.040        33
27.050        27
27.060        47
27.070        33
27.080         0
27.090        47
27.100        20
27.110        40
27.120        40
27.130        20
27.140        33
27.150        13
27.160        27
27.170        33
27.180         7
27.190        13
27.200        20
27.210        27
27.220        40
27.230        47
27.240        13
27.250        33
27.260        20
27.270        20
27.280         7
27.290         7
27.300        33
27.310        60
27.320        60
27.330        40
27.340        20
27.350        27
27.360        47
27.370        27
27.380        27
27.390         7
27.400        67
27.410        40
27.420        53
27.430        33
27.440        20
27.450        33
27.460        47
27.470        47
27.480        40
27.490         0
27.500        13
27.510        27
27.520         7
27.530        33
27.540        33
27.550        13
27.560        27
27.570        33
27.580        13
27.590         7
27.600        60
27.610        33
27.620        47
27.630        27
27.640        27
27.650        47
27.660        13
27.670        13
27.680        27
27.690        27
27.700        27
27.710        27
27.720        40
27.730        13
27.740        20
27.750        27
27.760        33
27.770        27
27.780        33
27.790        40
27.800        60
27.810        20
27.820        27
27.830        27
27.840        40
27.850        47
27.860        33
27.870        40
27.880        20
27.890         0
27.900        27
27.910        40
27.920        13
27.930         7
27.940        27
27.950        27
27.960         7
27.970        13
27.980        40
27.990        47
28.000        27
28.010        27
28.020        27
28.030        40
28.040        53
28.050         7
28.060        33
28.070        27
28.080        27
28.090        40
28.100        33
28.110        20
28.120        27
28.130        13
28.140        20
28.150        47
28.160        13
28.170        53
28.180        33
28.190        20
28.200        40
28.210        13
28.220        47
28.230        20
28.240        33
28.250        20
28.260        13
28.270         7
28.280        40
28.290        13
28.300        33
28.310        20
28.320        20
28.330        20
28.340        33
28.350        20
28.360        20
28.370        20
28.380        20
28.390        20
28.400        33
28.410        53
28.420        33
28.430        40
28.440        13
28.450        40
28.460        60
28.470        33
28.480        20
28.490        33
28.500        13
28.510        20
28.520        53
28.530        20
28.540         7
28.550        13
28.560        53
28.570        33
28.580        33
28.590        27
28.600        47
28.610        40
28.620        27
28.630        47
28.640        13
28.650        33
28.660        20
28.670        33
28.680        13
28.690        33
28.700        27
28.710        33
28.720        27
28.730        13
28.740        53
28.750        13
28.760        67
28.770        27
28.780        20
28.790         0
28.800         7
28.810        20
28.820        27
28.830        27
28.840        20
28.850        40
28.860        47
28.870        47
28.880        40
28.890        60
28.900        27
28.910        13
28.920        27
28.930         0
28.940        27
28.950        13
28.960        20
28.970        27
28.980        33
28.990        33
29.000         7
29.010        13
29.020        27
29.030        27
29.040        20
29.050        60
29.060        47
29.070         7
29.080        47
29.090        27
29.100        27
29.110        13
29.120        27
29.130        20
29.140        33
29.150        40
29.160       107
29.170        33
29.180        13
29.190        40
29.200        40
29.210        33
29.220        13
29.230        40
29.240        33
29.250         7
29.260        40
29.270        47
29.280        20
29.290        40
29.300        20
29.310        20
29.320        53
29.330        27
29.340         0
29.350        47
29.360        40
29.370        40
29.380        13
29.390        60
29.400        20
29.410        53
29.420        47
29.430        60
29.440        67
29.450        53
29.460        53
29.470        20
29.480        53
29.490        40
29.500        27
29.510        27
29.520        33
29.530        47
29.540        73
29.550        60
29.560        73
29.570        27
29.580        33
29.590        27
29.600        33
29.610        13
29.620        20
29.630        20
29.640        20
29.650        20
29.660         7
29.670        47
29.680        27
29.690        20
29.700         0
29.710        13
29.720        33
29.730        40
29.740        13
29.750        27
29.760        33
29.770        40
29.780        33
29.790        33
29.800        33
29.810        40
29.820        20
29.830        40
29.840        27
29.850        20
29.860         7
29.870        20
29.880         7
29.890        20
29.900        20
29.910        33
29.920        27
29.930        33
29.940        33
29.950        27
29.960        40
29.970         7
29.980        20
29.990         7
30.000        40
30.010        20
30.020        40
30.030         7
30.040        13
30.050        20
30.060        13
30.070        40
30.080        20
30.090        40
30.100        33
30.110        27
30.120        27
30.130        33
30.140        20
30.150        20
30.160        20
30.170        40
30.180        33
30.190        27
30.200         7
30.210         7
30.220        20
30.230        13
30.240        13
30.250         7
30.260        20
30.270        40
30.280        40
30.290        20
30.300        33
30.310        27
30.320        20
30.330        27
30.340        27
30.350        20
30.360        13
30.370        33
30.380        27
30.390        40
30.400        13
30.410        27
30.420         7
30.430         7
30.440        13
30.450        40
30.460        13
30.470        40
30.480        20
30.490        13
30.500        53
30.510        20
30.520         7
30.530        47
30.540        47
30.550         7
30.560        27
30.570        27
30.580        40
30.590        20
30.600        13
30.610        20
30.620        27
30.630        13
30.640        20
30.650        13
30.660        20
30.670        20
30.680        13
30.690        20
30.700        27
30.710        20
30.720        33
30.730        13
30.740        20
30.750        40
30.760        47
30.770        27
30.780        27
30.790        33
30.800        40
30.810        33
30.820        13
30.830        33
30.840        13
30.850         0
30.860        20
30.870        40
30.880        27
30.890        20
30.900         0
30.910        27
30.920         7
30.930        40
30.940         7
30.950         7
30.960        20
30.970        47
30.980         0
30.990        27
31.000        27
31.010        20
31.020        40
31.030        13
31.040        40
31.050        20
31.060        20
31.070        20
31.080         7
31.090        20
31.100        20
31.110        33
31.120         7
31.130        27
31.140        20
31.150        20
31.160        20
31.170        27
31.180        13
31.190         7
31.200        27
31.210        33
31.220        13
31.230        20
31.240        67
31.250        33
31.260        27
31.270        27
31.280        20
31.290        20
31.300        20
31.310        13
31.320         0
31.330        20
31.340        27
31.350        27
31.360        33
31.370        33
31.380        13
31.390        13
31.400        13
31.410        27
31.420        20
31.430        27
31.440        53
31.450        27
31.460        27
31.470         7
31.480        67
31.490        40
31.500        27
31.510        20
31.520        27
31.530        33
31.540        20
31.550        33
31.560        20
31.570        33
31.580        20
31.590        47
31.600        27
31.610        27
31.620        27
31.630        27
31.640        53
31.650        13
31.660        27
31.670        33
31.680        33
31.690        27
31.700        47
31.710        20
31.720         7
31.730        13
31.740        27
31.750        13
31.760        33
31.770        40
31.780        47
31.790        20
31.800        33
31.810        33
31.820        40
31.830        13
31.840        47
31.850        47
31.860        60
31.870        53
31.880        27
31.890        60
31.900        40
31.910        67
31.920        20
31.930        73
31.940        47
31.950        47
31.960        47
31.970        93
31.980        67
31.990        20
32.000        80
32.010        53
32.020        53
32.030        47
32.040        67
32.050        87
32.060        27
32.070        47
32.080        67
32.090        73
32.100       100
32.110        80
32.120        47
32.130       147
32.140        87
32.150       107
32.160        73
32.170       127
32.180        67
32.190        80
32.200       153
32.210        47
32.220       120
32.230       100
32.240       133
32.250       100
32.260        93
32.270       153
32.280        93
32.290       100
32.300        93
32.310        73
32.320        93
32.330        60
32.340        67
32.350       140
32.360       100
32.370       133
32.380       107
32.390        33
32.400        67
32.410        87
32.420        87
32.430       113
32.440       147
32.450       120
32.460        87
32.470       147
32.480       133
32.490       107
32.500        60
32.510        60
32.520        53
32.530       107
32.540        53
32.550        60
32.560        60
32.570        53
32.580        73
32.590        40
32.600        40
32.610        27
32.620        60
32.630        93
32.640        60
32.650        13
32.660        40
32.670        20
32.680        27
32.690        20
32.700        60
32.710        60
32.720        33
32.730        53
32.740        53
32.750        27
32.760        47
32.770        60
32.780        27
32.790        73
32.800        20
32.810        40
32.820        13
32.830        53
32.840        27
32.850        27
32.860        40
32.870        33
32.880        33
32.890        27
32.900        40
32.910        33
32.920        27
32.930        47
32.940        20
32.950        53
32.960        20
32.970        93
32.980        13
32.990        20
33.000        27
33.010        13
33.020        27
33.030        40
33.040        27
33.050        20
33.060        33
33.070        33
33.080        27
33.090        40
33.100        13
33.110        33
33.120        13
33.130         7
33.140        27
33.150         7
33.160        20
33.170        20
33.180        20
33.190        20
33.200        33
33.210        27
33.220        33
33.230        13
33.240        27
33.250         7
33.260        27
33.270        40
33.280        27
33.290        20
33.300        27
33.310        20
33.320        20
33.330        13
33.340        33
33.350        20
33.360         7
33.370        20
33.380        40
33.390        40
33.400        27
33.410        60
33.420        13
33.430        27
33.440        40
33.450        13
33.460        33
33.470        27
33.480        27
33.490        27
33.500         7
33.510        47
33.520        27
33.530        27
33.540        27
33.550        20
33.560        40
33.570        47
33.580        20
33.590        13
33.600        40
33.610        13
33.620        13
33.630        20
33.640         7
33.650         7
33.660        33
33.670        33
33.680        27
33.690        20
33.700        40
33.710        20
33.720        27
33.730        20
33.740        20
33.750        20
33.760         7
33.770        40
33.780        27
33.790        13
33.800        47
33.810        27
33.820        20
33.830        13
33.840        20
33.850        40
33.860         0
33.870        40
33.880        20
33.890        47
33.900        27
33.910        33
33.920        27
33.930        13
33.940        33
33.950        20
33.960        13
33.970        20
33.980        47
33.990        13
34.000        27
34.010        20
34.020         0
34.030        33
34.040        13
34.050        27
34.060        20
34.070        13
34.080        13
34.090        33
34.100        13
34.110        20
34.120        20
34.130        40
34.140        27
34.150         7
34.160        20
34.170        53
34.180        27
34.190        27
34.200        27
34.210        33
34.220        20
34.230        13
34.240         7
34.250        47
34.260        20
34.270        27
34.280         7
34.290        33
34.300        27
34.310        13
34.320        27
34.330        33
34.340        13
34.350         0
34.360        13
34.370        13
34.380        33
34.390        40
34.400        33
34.410        53
34.420        13
34.430        33
34.440        40
34.450        13
34.460        20
34.470        40
34.480        27
34.490        13
34.500        20
34.510        20
34.520        27
34.530         7
34.540         7
34.550        33
34.560        33
34.570         7
34.580        20
34.590        13
34.600        20
34.610         7
34.620        40
34.630        27
34.640        20
34.650        27
34.660        13
34.670        33
34.680        20
34.690        27
34.700        13
34.710         0
34.720         7
34.730        13
34.740        20
34.750        33
34.760        20
34.770        27
34.780         0
34.790        27
34.800         7
34.810        13
34.820         7
34.830        20
34.840        27
34.850         7
34.860        27
34.870        13
34.880        27
34.890        40
34.900        20
34.910         7
34.920        67
34.930        20
34.940        33
34.950        27
34.960        73
34.970        27
34.980        33
34.990        20
35.000        13
35.010        80
35.020        33
35.030        33
35.040        40
35.050        40
35.060        53
35.070        73
35.080        40
35.090        53
35.100        33
35.110        80
35.120       127
35.130       153
35.140       133
35.150       167
35.160       227
35.170       253
35.180       240
35.190       300
35.200       240
35.210       333
35.220       373
35.230       220
35.240       260
35.250       200
35.260       147
35.270       147
35.280       133
35.290       187
35.300       160
35.310       120
35.320       100
35.330        67
35.340        67
35.350        33
35.360        67
35.370        53
35.380        60
35.390        33
35.400        27
35.410        47
35.420        60
35.430        20
35.440        47
35.450        27
35.460        27
35.470        27
35.480        27
35.490        33
35.500        33
35.510        33
35.520        20
35.530        27
35.540        27
35.550        20
35.560        13
35.570        47
35.580        33
35.590        13
35.600        33
35.610        13
35.620        13
35.630        20
35.640        20
35.650        53
35.660        27
35.670        40
35.680         7
35.690         7
35.700        13
35.710        20
35.720        33
35.730        20
35.740        33
35.750        33
35.760        53
35.770        13
35.780        47
35.790        20
35.800        20
35.810        40
35.820        33
35.830        20
35.840        13
35.850         7
35.860        47
35.870        27
35.880         7
35.890        53
35.900        13
35.910        20
35.920        13
35.930        27
35.940        27
35.950        33
35.960         7
35.970        27
35.980         0
35.990        33
36.000        40
36.010        20
36.020        13
36.030        33
36.040         7
36.050        20
36.060         7
36.070        27
36.080        60
36.090        13
36.100        13
36.110        47
36.120        13
36.130        13
36.140         0
36.150        20
36.160        13
36.170        20
36.180         7
36.190         7
36.200        27
36.210         7
36.220        27
36.230        20
36.240        20
36.250         7
36.260        20
36.270        13
36.280        13
36.290         0
36.300        27
36.310        33
36.320         7
36.330        33
36.340        27
36.350        20
36.360         0
36.370        13
36.380         7
36.390        27
36.400        20
36.410        33
36.420        27
36.430        33
36.440         7
36.450        33
36.460        27
36.470        27
36.480        20
36.490        13
36.500         7
36.510        27
36.520        13
36.530        13
36.540         7
36.550        20
36.560        13
36.570         0
36.580        13
36.590        27
36.600        27
36.610        13
36.620        20
36.630        40
36.640        13
36.650        47
36.660        13
36.670         7
36.680        13
36.690        27
36.700        27
36.710        53
36.720        13
36.730         0
36.740         7
36.750        20
36.760        20
36.770        20
36.780        13
36.790        27
36.800        13
36.810         0
36.820        20
36.830         7
36.840        13
36.850        13
36.860        13
36.870        27
36.880        20
36.890        27
36.900        47
36.910        27
36.920        33
36.930        13
36.940        60
36.950        13
36.960        27
36.970        33
36.980        27
36.990        20
37.000        20
37.010        27
37.020         7
37.030        27
37.040        27
37.050        13
37.060        20
37.070        27
37.080         7
37.090        27
37.100        33
37.110         0
37.120        13
37.130         7
37.140        13
37.150         7
37.160        40
37.170        40
37.180        20
37.190         0
37.200        27
37.210        20
37.220        27
37.230        47
37.240        27
37.250        13
37.260        13
37.270        27
37.280        33
37.290        20
37.300         7
37.310        13
37.320         7
37.330         7
37.340        13
37.350        13
37.360        20
37.370        33
37.380        27
37.390        20
37.400        13
37.410         7
37.420        13
37.430        13
37.440        27
37.450        20
37.460        13
37.470        20
37.480        13
37.490        27
37.500        20
37.510        20
37.520        60
37.530        27
37.540        40
37.550        27
37.560        13
37.570        13
37.580        20
37.590        20
37.600         7
37.610        33
37.620        13
37.630         0
37.640        33
37.650        33
37.660        27
37.670        27
37.680        33
37.690        20
37.700        33
37.710        47
37.720        27
37.730        40
37.740        13
37.750        27
37.760        20
37.770        33
37.780        33
37.790         7
37.800        60
37.810        47
37.820        40
37.830        20
37.840        33
37.850        27
37.860         0
37.870        20
37.880        13
37.890        20
37.900        13
37.910        47
37.920        33
37.930         7
37.940        27
37.950        20
37.960         7
37.970         7
37.980         7
37.990         7
38.000         7
38.010         0
38.020        20
38.030        27
38.040        13
38.050        13
38.060        33
38.070         7
38.080        13
38.090        13
38.100        33
38.110         7
38.120        13
38.130         7
38.140        13
38.150        13
38.160        47
38.170         7
38.180        20
38.190        13
38.200         7
38.210        33
38.220         0
38.230        27
38.240        27
38.250        27
38.260        40
38.270        13
38.280        40
38.290        20
38.300        20
38.310         7
38.320        33
38.330        20
38.340        13
38.350         7
38.360        27
38.370        27
38.380        27
38.390        27
38.400        27
38.410        13
38.420        40
38.430        20
38.440        33
38.450        40
38.460        27
38.470        20
38.480         7
38.490        40
38.500        20
38.510        27
38.520        33
38.530        27
38.540         7
38.550        27
38.560        13
38.570        27
38.580        33
38.590        33
38.600        20
38.610         7
38.620        20
38.630        33
38.640         7
38.650        27
38.660        33
38.670        13
38.680         0
38.690        13
38.700        27
38.710        60
38.720         7
38.730        20
38.740        40
38.750         7
38.760        20
38.770        20
38.780        20
38.790        33
38.800         7
38.810        13
38.820        33
38.830        13
38.840        27
38.850        20
38.860        20
38.870        13
38.880         7
38.890        40
38.900        27
38.910        27
38.920        33
38.930        33
38.940        20
38.950        13
38.960        27
38.970        27
38.980         7
38.990         7
39.000         7
39.010        33
39.020        33
39.030        20
39.040        27
39.050        20
39.060         7
39.070        27
39.080        33
39.090        13
39.100        33
39.110        27
39.120        27
39.130        33
39.140        33
39.150        27
39.160         0
39.170        33
39.180        33
39.190        13
39.200        27
39.210        47
39.220        27
39.230        47
39.240        20
39.250        40
39.260        20
39.270        60
39.280        47
39.290        20
39.300        27
39.310        33
39.320        27
39.330        27
39.340        33
39.350        33
39.360         7
39.370        33
39.380        13
39.390        13
39.400        20
39.410         7
39.420        27
39.430        40
39.440        20
39.450        53
39.460        27
39.470        13
39.480        20
39.490        20
39.500        33
39.510        47
39.520        20
39.530        27
39.540        40
39.550        27
39.560        20
39.570        27
39.580        33
39.590        33
39.600        33
39.610        33
39.620        27
39.630        13
39.640        47
39.650        20
39.660        20
39.670        33
39.680        20
39.690        33
39.700        33
39.710        20
39.720        73
39.730        47
39.740        40
39.750        33
39.760        47
39.770        47
39.780        20
39.790        27
39.800        20
39.810        33
39.820        33
39.830        40
39.840        20
39.850        67
39.860        47
39.870        27
39.880        20
39.890        27
39.900        27
39.910        47
39.920        13
39.930        20
39.940        40
39.950        47
39.960        47
39.970        33
39.980        40
39.990        47
40.000        33
40.010        53
40.020        33
40.030        27
40.040        47
40.050        47
40.060        27
40.070        40
40.080        40
40.090        40
40.100        40
40.110        13
40.120        33
40.130        13
40.140        47
40.150        47
40.160        53
40.170        13
40.180        13
40.190        73
40.200        47
40.210        40
40.220        60
40.230        53
40.240        27
40.250        20
40.260         7
40.270        33
40.280        33
40.290        60
40.300        27
40.310        20
40.320        20
40.330        33
40.340        33
40.350        20
40.360        13
40.370        40
40.380        33
40.390        13
40.400         0
40.410        20
40.420        13
40.430         0
40.440        20
40.450        27
40.460        27
40.470        20
40.480         7
40.490        33
40.500        20
40.510        13
40.520        20
40.530        27
40.540        13
40.550        60
40.560        27
40.570        33
40.580        13
40.590         7
40.600        27
40.610        20
40.620        13
40.630        20
40.640        33
40.650        33
40.660        33
40.670         7
40.680        13
40.690         7
40.700        20
40.710         7
40.720        27
40.730        40
40.740        20
40.750        20
40.760        27
40.770        20
40.780        33
40.790        27
40.800        33
40.810        27
40.820        20
40.830        20
40.840        13
40.850        13
40.860        20
40.870        20
40.880        27
40.890        20
40.900        13
40.910        20
40.920        27
40.930        13
40.940        27
40.950        40
40.960        27
40.970        20
40.980        13
40.990         0
41.000         7
41.010        33
41.020        33
41.030        27
41.040         7
41.050        13
41.060        13
41.070         0
41.080         7
41.090        27
41.100        53
41.110        27
41.120        40
41.130        40
41.140        33
41.150         0
41.160        40
41.170        27
41.180        27
41.190        47
41.200        27
41.210         7
41.220        13
41.230        40
41.240        13
41.250        27
41.260        33
41.270        13
41.280        33
41.290        27
41.300        13
41.310        33
41.320        13
41.330        20
41.340        33
41.350        20
41.360        20
41.370        13
41.380        13
41.390        20
41.400        20
41.410         7
41.420        47
41.430        53
41.440        27
41.450        40
41.460        47
41.470        40
41.480        53
41.490        33
41.500        27
41.510        33
41.520        47
41.530        53
41.540        20
41.550        40
41.560        60
41.570        27
41.580        40
41.590        60
41.600        53
41.610        47
41.620        53
41.630        73
41.640       100
41.650        67
41.660        73
41.670       160
41.680       167
41.690       187
41.700       147
41.710       220
41.720       187
41.730       200
41.740       160
41.750       173
41.760       133
41.770       140
41.780        87
41.790       107
41.800       120
41.810       147
41.820       107
41.830        87
41.840       113
41.850        67
41.860       107
41.870        73
41.880        53
41.890        40
41.900        27
41.910        20
41.920        20
41.930        27
41.940        53
41.950        27
41.960        33
41.970        13
41.980        13
41.990        27
42.000        13
42.010        40
42.020        20
42.030        20
42.040        53
42.050         7
42.060        13
42.070        40
42.080        13
42.090        13
42.100        27
42.110        20
42.120        27
42.130         0
42.140        20
42.150         7
42.160        33
42.170       187
42.180        40
42.190         0
42.200        47
42.210        20
42.220        27
42.230         7
42.240        27
42.250        27
42.260        27
42.270        27
42.280        47
42.290        33
42.300         7
42.310        27
42.320        40
42.330        20
42.340        40
42.350        20
42.360        27
42.370        27
42.380        27
42.390        33
42.400        33
42.410        20
42.420        27
42.430        20
42.440        40
42.450        13
42.460        33
42.470         7
42.480        27
42.490        33
42.500        40
42.510        27
42.520        40
42.530        20
42.540        20
42.550        20
42.560         7
42.570        13
42.580        27
42.590        20
42.600        13
42.610         7
42.620        13
42.630        40
42.640        40
42.650         7
42.660        13
42.670        27
42.680        13
42.690        20
42.700        47
42.710        20
42.720         7
42.730        27
42.740        20
42.750        13
42.760        20
42.770        40
42.780         7
42.790        47
42.800        33
42.810         7
42.820        33
42.830        27
42.840        47
42.850        33
42.860        27
42.870        27
42.880        13
42.890         7
42.900        40
42.910        27
42.920         7
42.930        27
42.940        20
42.950        27
42.960        20
42.970        20
42.980        20
42.990        33
43.000        13
43.010        27
43.020        13
43.030        33
43.040         7
43.050        47
43.060        20
43.070        53
43.080        33
43.090        27
43.100        33
43.110        27
43.120        40
43.130         7
43.140         7
43.150        33
43.160        40
43.170        20
43.180        27
43.190        40
43.200        40
43.210        20
43.220        20
43.230        40
43.240        13
43.250        33
43.260        53
43.270        53
43.280        73
43.290        20
43.300        60
43.310        27
43.320        20
43.330        33
43.340        13
43.350        60
43.360        53
43.370        80
43.380       100
43.390        80
43.400        60
43.410        60
43.420        47
43.430        67
43.440        80
43.450        67
43.460        87
43.470        60
43.480        47
43.490        27
43.500         7
43.510        60
43.520        80
43.530        47
43.540        20
43.550        60
43.560        40
43.570        33
43.580         7
43.590        47
43.600        40
43.610        13
43.620        27
43.630        40
43.640        33
43.650        40
43.660        27
43.670         7
43.680        47
43.690        27
43.700        40
43.710        33
43.720        33
43.730        20
43.740        60
43.750        47
43.760        33
43.770        27
43.780        13
43.790        33
43.800        60
43.810        13
43.820        40
43.830        40
43.840        13
43.850        13
43.860        20
43.870        27
43.880        20
43.890        47
43.900        67
43.910        20
43.920        27
43.930        20
43.940        33
43.950        27
43.960        20
43.970        13
43.980        27
43.990        33
44.000        20
44.010        20
44.020        20
44.030        27
44.040        40
44.050        47
44.060        27
44.070        13
44.080         7
44.090        47
44.100        13
44.110        20
44.120        47
44.130        27
44.140        20
44.150        20
44.160        33
44.170        33
44.180        13
44.190        20
44.200        13
44.210        27
44.220        60
44.230        33
44.240        40
44.250        33
44.260        33
44.270        33
44.280        33
44.290        40
44.300        27
44.310        47
44.320        33
44.330        13
44.340        33
44.350        27
44.360        47
44.370        33
44.380        47
44.390        33
44.400        67
44.410        20
44.420        27
44.430        33
44.440        27
44.450        80
44.460        53
44.470        53
44.480        47
44.490        33
44.500        33
44.510        93
44.520        47
44.530        40
44.540        47
44.550        73
44.560        60
44.570        40
44.580        60
44.590        33
44.600        67
44.610        27
44.620        53
44.630        47
44.640        80
44.650        27
44.660       100
44.670        60
44.680        53
44.690        93
44.700        40
44.710        67
44.720        47
44.730        53
44.740        60
44.750        20
44.760        53
44.770        67
44.780        53
44.790        73
44.800        60
44.810        67
44.820        80
44.830        93
44.840        53
44.850       107
44.860        67
44.870        53
44.880        67
44.890        93
44.900        40
44.910        73
44.920       100
44.930        67
44.940        67
44.950        93
44.960        67
44.970        53
44.980        40
44.990        60
45.000       107
45.010        73
45.020        93
45.030        87
45.040        80
45.050        93
45.060       120
45.070        67
45.080       113
45.090        80
45.100        80
45.110       100
45.120       100
45.130        93
45.140       127
45.150       133
45.160       167
45.170       120
45.180       147
45.190       147
45.200       133
45.210       120
45.220       113
45.230       100
45.240       127
45.250       140
45.260       140
45.270       133
45.280       180
45.290       153
45.300       153
45.310       207
45.320       127
45.330       180
45.340       140
45.350       147
45.360       167
45.370       153
45.380       200
45.390       247
45.400       213
45.410       207
45.420       213
45.430       273
45.440       187
45.450       253
45.460       213
45.470       227
45.480       280
45.490       240
45.500       247
45.510       287
45.520       380
45.530       280
45.540       367
45.550       253
45.560       333
45.570       313
45.580       300
45.590       433
45.600       400
45.610       380
45.620       360
45.630       486
45.640       407
45.650       426
45.660       466
45.670       393
45.680       480
45.690       493
45.700       566
45.710       533
45.720       500
45.730       626
45.740       560
45.750       486
45.760       593
45.770       593
45.780       673
45.790       553
45.800       606
45.810       793
45.820       680
45.830       646
45.840       606
45.850       653
45.860       586
45.870       626
45.880       813
45.890       560
45.900       753
45.910       766
45.920       760
45.930       766
45.940       660
45.950       726
45.960       700
45.970       786
45.980       846
45.990       740
46.000       820
46.010       893
46.020       840
46.030       833
46.040       900
46.050       733
46.060      1000
46.070       780
46.080       933
46.090       693
46.100       746
46.110       820
46.120       893
46.130       793
46.140       626
46.150       846
46.160      1020
46.170       773
46.180       686
46.190       686
46.200       786
46.210       720
46.220       886
46.230       720
46.240       706
46.250       733
46.260       740
46.270       666
46.280       733
46.290       806
46.300       740
46.310       666
46.320       626
46.330       793
46.340       673
46.350       633
46.360       606
46.370       600
46.380       600
46.390       606
46.400       546
46.410       660
46.420       533
46.430       566
46.440       420
46.450       466
46.460       560
46.470       500
46.480       526
46.490       513
46.500       367
46.510       446
46.520       473
46.530       453
46.540       353
46.550       413
46.560       473
46.570       407
46.580       400
46.590       353
46.600       440
46.610       373
46.620       367
46.630       320
46.640       267
46.650       313
46.660       287
46.670       287
46.680       300
46.690       373
46.700       307
46.710       273
46.720       273
46.730       207
46.740       240
46.750       273
46.760       253
46.770       247
46.780       260
46.790       267
46.800       187
46.810       220
46.820       213
46.830       240
46.840       200
46.850       180
46.860       147
46.870       187
46.880       193
46.890       127
46.900       220
46.910       167
46.920       140
46.930       173
46.940       107
46.950       227
46.960       153
46.970       160
46.980       133
46.990       167
47.000       167
47.010       100
47.020       107
47.030       180
47.040        73
47.050       120
47.060        93
47.070        73
47.080        93
47.090        73
47.100       160
47.110       113
47.120        47
47.130       120
47.140       140
47.150       113
47.160       153
47.170        73
47.180       113
47.190       100
47.200       127
47.210       100
47.220       113
47.230        60
47.240       120
47.250        67
47.260       107
47.270       133
47.280        87
47.290        73
47.300        93
47.310        73
47.320        60
47.330       100
47.340       100
47.350        73
47.360        60
47.370        73
47.380        73
47.390        73
47.400        67
47.410        80
47.420        73
47.430        40
47.440        40
47.450        80
47.460        47
47.470        87
47.480        87
47.490        27
47.500        60
47.510        60
47.520        87
47.530        40
47.540        93
47.550        53
47.560        87
47.570        40
47.580        33
47.590        93
47.600        33
47.610        60
47.620        47
47.630        47
47.640        80
47.650       113
47.660        13
47.670        47
47.680        80
47.690        60
47.700        13
47.710        53
47.720        67
47.730        67
47.740        40
47.750        33
47.760        33
47.770        80
47.780        40
47.790        53
47.800        20
47.810        33
47.820        40
47.830        53
47.840        40
47.850        60
47.860        60
47.870        67
47.880        40
47.890        33
47.900        33
47.910        47
47.920        40
47.930        20
47.940        33
47.950        60
47.960        47
47.970        20
47.980        40
47.990        13
48.000        27
48.010        40
48.020        27
48.030        40
48.040        40
48.050        33
48.060        20
48.070        40
48.080        47
48.090        27
48.100        27
48.110        27
48.120        47
48.130        33
48.140        60
48.150        20
48.160        80
48.170        80
48.180        33
48.190        33
48.200        27
48.210        20
48.220        60
48.230        40
48.240        67
48.250        27
48.260        20
48.270        47
48.280        33
48.290         0
48.300        33
48.310        47
48.320        67
48.330        33
48.340        20
48.350        27
48.360        67
48.370        47
48.380        13
48.390        53
48.400        20
48.410        33
48.420        40
48.430        53
48.440        20
48.450        13
48.460        13
48.470        27
48.480        27
48.490        27
48.500        33
48.510        27
48.520        67
48.530        40
48.540        73
48.550        40
48.560        33
48.570        33
48.580        33
48.590        13
48.600        33
48.610        33
48.620        33
48.630        67
48.640        47
48.650        33
48.660        33
48.670        67
48.680        53
48.690        47
48.700        40
48.710        13
48.720        53
48.730        47
48.740        47
48.750        20
48.760        33
48.770        53
48.780        47
48.790        27
48.800        40
48.810        20
48.820        33
48.830         7
48.840        33
48.850        33
48.860        33
48.870        27
48.880        53
48.890        20
48.900        33
48.910        13
48.920        33
48.930        13
48.940        33
48.950        27
48.960        13
48.970        73
48.980        33
48.990        13
49.000        27
49.010        20
49.020        27
49.030        33
49.040        20
49.050        33
49.060        20
49.070        53
49.080        47
49.090        27
49.100        33
49.110        67
49.120         7
49.130        27
49.140         0
49.150        47
49.160        27
49.170        33
49.180        27
49.190        47
49.200         7
49.210         0
49.220        33
49.230         7
49.240        33
49.250        13
49.260        67
49.270        33
49.280        40
49.290         7
49.300        27
49.310        20
49.320        20
49.330        27
49.340        40
49.350        27
49.360        33
49.370        47
49.380         0
49.390        47
49.400        20
49.410        40
49.420        13
49.430        33
49.440        27
49.450        47
49.460        27
49.470        20
49.480        27
49.490         7
49.500        13
49.510        27
49.520        20
49.530        33
49.540         0
49.550        20
49.560         7
49.570        13
49.580        27
49.590        47
49.600        20
49.610         0
49.620        33
49.630         7
49.640         7
49.650        40
49.660        53
49.670         7
49.680        13
49.690        40
49.700        33
49.710        47
49.720        20
49.730        33
49.740        33
49.750        27
49.760        33
49.770        20
49.780         7
49.790        40
49.800        27
49.810        27
49.820        53
49.830        40
49.840        27
49.850        20
49.860        33
49.870        33
49.880        33
49.890        13
49.900        40
49.910        27
49.920        20
49.930        33
49.940        13
49.950        20
49.960        20
49.970        13
49.980        40
49.990        33
50.000        20
50.010        27
50.020        47
50.030        20
50.040        20
50.050        27
50.060        40
50.070         7
50.080        33
50.090        40
50.100        47
50.110        33
50.120        20
50.130         7
50.140        40
50.150        27
50.160        13
50.170        40
50.180        27
50.190        33
50.200        33
50.210        20
50.220        53
50.230        20
50.240        33
50.250        53
50.260        27
50.270        33
50.280         7
50.290        20
50.300        20
50.310        27
50.320        20
50.330        33
50.340        47
50.350        27
50.360        20
50.370        13
50.380        27
50.390        27
50.400        20
50.410        33
50.420        13
50.430        20
50.440        33
50.450        33
50.460        27
50.470        20
50.480        53
50.490        33
50.500        33
50.510        13
50.520         7
50.530        47
50.540        20
50.550        27
50.560        20
50.570        40
50.580        27
50.590        20
50.600        33
50.610        40
50.620        47
50.630        20
50.640        33
50.650        33
50.660        27
50.670        13
50.680        20
50.690        13
50.700        40
50.710        13
50.720        20
50.730        20
50.740        20
50.750        13
50.760        27
50.770        33
50.780         7
50.790        33
50.800        20
50.810        33
50.820        13
50.830        13
50.840         0
50.850        40
50.860        40
50.870        13
50.880        20
50.890        27
50.900        13
50.910        33
50.920        27
50.930         0
50.940        20
50.950        20
50.960        33
50.970        33
50.980        33
50.990        20
51.000        33
51.010        13
51.020         7
51.030        20
51.040        27
51.050        20
51.060        20
51.070        27
51.080        27
51.090        20
51.100        13
51.110         7
51.120        20
51.130        20
51.140        27
51.150        27
51.160        27
51.170        27
51.180        27
51.190         7
51.200        20
51.210        13
51.220        27
51.230        27
51.240        13
51.250         7
51.260        40
51.270        33
51.280        20
51.290        27
51.300        20
51.310        33
51.320         7
51.330        27
51.340        27
51.350        13
51.360        20
51.370        20
51.380        27
51.390         7
51.400        20
51.410        27
51.420        27
51.430         7
51.440        20
51.450        33
51.460        20
51.470        33
51.480         7
51.490        27
51.500        20
51.510        13
51.520        13
51.530         7
51.540        27
51.550        33
51.560        27
51.570        13
51.580        27
51.590        13
51.600         7
51.610        20
51.620        33
51.630        33
51.640        20
51.650        27
51.660        27
51.670        40
51.680        20
51.690         0
51.700        33
51.710        13
51.720         7
51.730         0
51.740        47
51.750        13
51.760        13
51.770        20
51.780        20
51.790         7
51.800        20
51.810        27
51.820        33
51.830         7
51.840         7
51.850        20
51.860        27
51.870         7
51.880        13
51.890         0
51.900        13
51.910        13
51.920        13
51.930        13
51.940        13
51.950        27
51.960         7
51.970        20
51.980        13
51.990        13
52.000         0
52.010        27
52.020        13
52.030        20
52.040        13
52.050        13
52.060        27
52.070        40
52.080         7
52.090        27
52.100        20
52.110         7
52.120        20
52.130         0
52.140        20
52.150        13
52.160        13
52.170        27
52.180         7
52.190         7
52.200        20
52.210        33
52.220         7
52.230        13
52.240        13
52.250         7
52.260        20
52.270         0
52.280         7
52.290        33
52.300        20
52.310         7
52.320        27
52.330        20
52.340        20
52.350        20
52.360        27
52.370        13
52.380        27
52.390         7
52.400        20
52.410        13
52.420        20
52.430         0
52.440        20
52.450        20
52.460         7
52.470        27
52.480        13
52.490        13
52.500        47
52.510        20
52.520        20
52.530         7
52.540        47
52.550        13
52.560        20
52.570        13
52.580        27
52.590        47
52.600        13
52.610        13
52.620        20
52.630        20
52.640         7
52.650        27
52.660         0
52.670        20
52.680        27
52.690        33
52.700        20
52.710         7
52.720        20
52.730        20
52.740         7
52.750        40
52.760         7
52.770         7
52.780        33
52.790        33
52.800        33
52.810         7
52.820        33
52.830        13
52.840        13
52.850        20
52.860        13
52.870        13
52.880        40
52.890        13
52.900        33
52.910         7
52.920        13
52.930        13
52.940        13
52.950        13
52.960        27
52.970        27
52.980        13
52.990         7
53.000        20
53.010         7
53.020        20
53.030         0
53.040        13
53.050         7
53.060        40
53.070         0
53.080        13
53.090        40
53.100        13
53.110        27
53.120        13
53.130        13
53.140        20
53.150        13
53.160        33
53.170        20
53.180        27
53.190        33
53.200         7
53.210        13
53.220        27
53.230        20
53.240        13
53.250        20
53.260        27
53.270        40
53.280         0
53.290        20
53.300        20
53.310        27
53.320         7
53.330        13
53.340        20
53.350         7
53.360        13
53.370        33
53.380         0
53.390        20
53.400         7
53.410         7
53.420        13
53.430        13
53.440        20
53.450        27
53.460        27
53.470        13
53.480        53
53.490        13
53.500        20
53.510        20
53.520        13
53.530         7
53.540         7
53.550        27
53.560        13
53.570        20
53.580        20
53.590         7
53.600         7
53.610         0
53.620         7
53.630        13
53.640        13
53.650        33
53.660        40
53.670         7
53.680        20
53.690        27
53.700        20
53.710        33
53.720         7
53.730        13
53.740        20
53.750        13
53.760        20
53.770        27
53.780         7
53.790        13
53.800        27
53.810         7
53.820        33
53.830        13
53.840        20
53.850        20
53.860        27
53.870         7
53.880        13
53.890        13
53.900         7
53.910        27
53.920        20
53.930        27
53.940        20
53.950         7
53.960        33
53.970        20
53.980        20
53.990        20
54.000        13
54.010        13
54.020         7
54.030        13
54.040         7
54.050         0
54.060        13
54.070        33
54.080         7
54.090         7
54.100        40
54.110        33
54.120         7
54.130        33
54.140         7
54.150        13
54.160        13
54.170         7
54.180        13
54.190         7
54.200         0
54.210         7
54.220         7
54.230        53
54.240         7
54.250         7
54.260         7
54.270        20
54.280        33
54.290        27
54.300        33
54.310        13
54.320        27
54.330        20
54.340        13
54.350         7
54.360         7
54.370        13
54.380         7
54.390        27
54.400        13
54.410        13
54.420        20
54.430        40
54.440        13
54.450        20
54.460        27
54.470         7
54.480        33
54.490        27
54.500        13
54.510         7
54.520         0
54.530         7
54.540        13
54.550         7
54.560        27
54.570         7
54.580        13
54.590         7
54.600        13
54.610        13
54.620        20
54.630        13
54.640        13
54.650        27
54.660         7
54.670        40
54.680         7
54.690         7
54.700        27
54.710        13
54.720        33
54.730        20
54.740        20
54.750        27
54.760        20
54.770        13
54.780        40
54.790        13
54.800        13
54.810        20
54.820        40
54.830        20
54.840        13
54.850         7
54.860        27
54.870        13
54.880        27
54.890         7
54.900        20
54.910        20
54.920         7
54.930        27
54.940        27
54.950        53
54.960        20
54.970         7
54.980        40
54.990         7
55.000         7
55.010        13
55.020         7
55.030        20
55.040        20
55.050        20
55.060        20
55.070        13
55.080        33
55.090         7
55.100        13
55.110        20
55.120        27
55.130         7
55.140        27
55.150        20
55.160        13
55.170         7
55.180        20
55.190         7
55.200        33
55.210         7
55.220        33
55.230        13
55.240        20
55.250        27
55.260        33
55.270         0
55.280        13
55.290        20
55.300        13
55.310        27
55.320        20
55.330         0
55.340        20
55.350        13
55.360         7
55.370        40
55.380        13
55.390        13
55.400        33
55.410        20
55.420        13
55.430        13
55.440         7
55.450        13
55.460        13
55.470        13
55.480        13
55.490        20
55.500        40
55.510         7
55.520        27
55.530         7
55.540        27
55.550        20
55.560        20
55.570         7
55.580        13
55.590        13
55.600        20
55.610         7
55.620        27
55.630        20
55.640        20
55.650        13
55.660        13
55.670         7
55.680        20
55.690        27
55.700         7
55.710        20
55.720        27
55.730        47
55.740        13
55.750         7
55.760        27
55.770         7
55.780        33
55.790        13
55.800        27
55.810         7
55.820         7
55.830        27
55.840         7
55.850         7
55.860        13
55.870        33
55.880         0
55.890        20
55.900        13
55.910        27
55.920        13
55.930        33
55.940         7
55.950         7
55.960        27
55.970        20
55.980        20
55.990        27
56.000        20
56.010        20
56.020        20
56.030        13
56.040        20
56.050        20
56.060        13
56.070        33
56.080        27
56.090        20
56.100        27
56.110         7
56.120         0
56.130        40
56.140        20
56.150        47
56.160        13
56.170        27
56.180        27
56.190        13
56.200        13
56.210         7
56.220        20
56.230         0
56.240         0
56.250        20
56.260        20
56.270         7
56.280        13
56.290         7
56.300        13
56.310         0
56.320        20
56.330        20
56.340        20
56.350        13
56.360         7
56.370        20
56.380        13
56.390        33
56.400         7
56.410        13
56.420        33
56.430        20
56.440        33
56.450         7
56.460         7
56.470        20
56.480         7
56.490        27
56.500        20
56.510        13
56.520        47
56.530        13
56.540        27
56.550        13
56.560         7
56.570         7
56.580        27
56.590         7
56.600         7
56.610        13
56.620        20
56.630         7
56.640         7
56.650        13
56.660        13
56.670        47
56.680        20
56.690        20
56.700         7
56.710         7
56.720         0
56.730        13
56.740        20
56.750        27
56.760        20
56.770         7
56.780         7
56.790         0
56.800         7
56.810        27
56.820        20
56.830        47
56.840        33
56.850         0
56.860         7
56.870         7
56.880        20
56.890        13
56.900        27
56.910         7
56.920        33
56.930         0
56.940         7
56.950         7
56.960        27
56.970         7
56.980        40
56.990        13
57.000        13
57.010         0
57.020        13
57.030        13
57.040        13
57.050        27
57.060        20
57.070        20
57.080        13
57.090        20
57.100        13
57.110        27
57.120         7
57.130         7
57.140         7
57.150        20
57.160        20
57.170        33
57.180        40
57.190        27
57.200        13
57.210        20
57.220        20
57.230        20
57.240         7
57.250        33
57.260         7
57.270        33
57.280        13
57.290        27
57.300        40
57.310        13
57.320        40
57.330        27
57.340         0
57.350        40
57.360         7
57.370        20
57.380        33
57.390        27
57.400        27
57.410        20
57.420        20
57.430        27
57.440         0
57.450        53
57.460        20
57.470        27
57.480        53
57.490         0
57.500        47
57.510        47
57.520        27
57.530        67
57.540        40
57.550        33
57.560       113
57.570        73
57.580        40
57.590        67
57.600        47
57.610        20
57.620        20
57.630        20
57.640        40
57.650        53
57.660        27
57.670        27
57.680        33
57.690        20
57.700        20
57.710        33
57.720        40
57.730        73
57.740        60
57.750        53
57.760        60
57.770        33
57.780        27
57.790         7
57.800        20
57.810         7
57.820        40
57.830        33
57.840        20
57.850        40
57.860        27
57.870        40
57.880        20
57.890        33
57.900        40
57.910        27
57.920        20
57.930        33
57.940        20
57.950         7
57.960        13
57.970        20
57.980         7
57.990        20
58.000         7
58.010        13
58.020        13
58.030         7
58.040         7
58.050         7
58.060        27
58.070        20
58.080        20
58.090        13
58.100        20
58.110        13
58.120         0
58.130         7
58.140        20
58.150        13
58.160        33
58.170        27
58.180         0
58.190        33
58.200         7
58.210        13
58.220         7
58.230        13
58.240        20
58.250        13
58.260         7
58.270         0
58.280        27
58.290         7
58.300        13
58.310        20
58.320        40
58.330        13
58.340        20
58.350        20
58.360        33
58.370         7
58.380        27
58.390        53
58.400         7
58.410        13
58.420        20
58.430        20
58.440        13
58.450        13
58.460        27
58.470        13
58.480        13
58.490        20
58.500         7
58.510         7
58.520        13
58.530         7
58.540         7
58.550        13
58.560         7
58.570         7
58.580        13
58.590        13
58.600        27
58.610         7
58.620        33
58.630        20
58.640        20
58.650         0
58.660         7
58.670         7
58.680        33
58.690        20
58.700        20
58.710         0
58.720         7
58.730        20
58.740        27
58.750        33
58.760        27
58.770         7
58.780         7
58.790        13
58.800         7
58.810        13
58.820         7
58.830        13
58.840         7
58.850        13
58.860        20
58.870        13
58.880        13
58.890        13
58.900        13
58.910         7
58.920        20
58.930        13
58.940        13
58.950        40
58.960        40
58.970         0
58.980        20
58.990         7
59.000         0
59.010         7
59.020         7
59.030        13
59.040        20
59.050        27
59.060        27
59.070         7
59.080         0
59.090         0
59.100        13
59.110        13
59.120         7
59.130        33
59.140         7
59.150        33
59.160         7
59.170         7
59.180         7
59.190        20
59.200        13
59.210         0
59.220        20
59.230         7
59.240        13
59.250        13
59.260         0
59.270        20
59.280        13
59.290        13
59.300        20
59.310         7
59.320        13
59.330        27
59.340         7
59.350        27
59.360        40
59.370        13
59.380         7
59.390        40
59.400        20
59.410         7
59.420        13
59.430        13
59.440        13
59.450        20
59.460        33
59.470         7
59.480        20
59.490        33
59.500        40
59.510        20
59.520        27
59.530        13
59.540        20
59.550        20
59.560        27
59.570        13
59.580        20
59.590        13
59.600        13
59.610        27
59.620        20
59.630        13
59.640         0
59.650         7
59.660         7
59.670        13
59.680        20
59.690        40
59.700         7
59.710        20
59.720        33
59.730         7
59.740        13
59.750         7
59.760         7
59.770        13
59.780        13
59.790        13
59.800        40
59.810        20
59.820         7
59.830         7
59.840        33
59.850        27
59.860         7
59.870         7
59.880        27
59.890        13
59.900        27
59.910         0
59.920        13
59.930         0
59.940         0
59.950         0
59.960        20
59.970         7
59.980        27
59.990        20
60.000        27
