20.000        40
20.010        40
20.020        53
20.030        33
20.040        60
20.050        40
20.060        47
20.070        60
20.080        13
20.090        40
20.100        27
20.110        20
20.120        60
20.130        27
20.140        73
20.150        73
20.160        67
20.170        67
20.180        47
20.190        47
20.200        33
20.210        73
20.220        27
20.230         7
20.240        33
20.250        60
20.260        73
20.270        60
20.280        33
20.290        67
20.300        53
20.310        40
20.320        47
20.330        80
20.340        40
20.350        27
20.360        33
20.370        60
20.380        20
20.390        60
20.400        40
20.410        27
20.420        47
20.430        60
20.440        67
20.450        20
20.460        27
20.470       100
20.480        27
20.490        40
20.500        67
20.510        53
20.520        53
20.530        13
20.540        27
20.550        33
20.560        93
20.570        47
20.580        53
20.590        47
20.600        47
20.610        40
20.620        53
20.630         7
20.640        53
20.650        40
20.660        73
20.670        53
20.680        67
20.690        47
20.700        73
20.710        47
20.720        47
20.730        47
20.740        27
20.750        47
20.760        20
20.770        47
20.780        40
20.790        53
20.800        60
20.810        27
20.820        67
20.830        40
20.840        47
20.850        60
20.860        33
20.870        33
20.880        60
20.890        47
20.900        33
20.910        53
20.920        60
20.930        40
20.940        40
20.950        40
20.960        67
20.970        40
20.980        60
20.990        60
21.000        53
21.010        73
21.020        20
21.030        40
21.040         0
21.050        33
21.060        60
21.070        60
21.080        53
21.090        20
21.100        40
21.110        67
21.120        60
21.130        20
21.140        60
21.150        53
21.160        60
21.170        60
21.180        47
21.190        33
21.200        33
21.210        33
21.220        80
21.230        40
21.240        13
21.250        73
21.260        53
21.270        53
21.280        73
21.290        47
21.300        67
21.310        27
21.320        33
21.330        53
21.340        27
21.350        67
21.360        40
21.370        67
21.380        40
21.390        47
21.400        73
21.410        33
21.420        13
21.430        33
21.440        27
21.450        73
21.460        53
21.470        40
21.480        53
21.490        67
21.500        47
21.510        67
21.520        60
21.530        67
21.540        80
21.550        47
21.560        27
21.570        40
21.580        67
21.590        40
21.600        40
21.610        27
21.620        60
21.630        40
21.640        53
21.650        20
21.660        67
21.670        40
21.680        27
21.690        20
21.700        33
21.710        60
21.720        40
21.730        40
21.740        33
21.750        53
21.760        60
21.770        67
21.780        33
21.790        60
21.800        47
21.810        47
21.820        47
21.830        33
21.840        73
21.850        20
21.860        60
21.870        53
21.880        33
21.890        40
21.900        53
21.910        47
21.920        47
21.930        53
21.940        67
21.950        40
21.960        27
21.970        67
21.980        53
21.990        53
22.000        53
22.010        53
22.020        60
22.030        53
22.040        33
22.050        53
22.060        27
22.070        87
22.080        20
22.090        80
22.100        53
22.110        53
22.120        27
22.130        33
22.140        33
22.150        40
22.160        67
22.170        67
22.180        53
22.190        27
22.200        47
22.210        47
22.220        87
22.230        73
22.240        40
22.250        33
22.260        73
22.270        47
22.280        53
22.290        53
22.300        47
22.310        80
22.320        53
22.330        40
22.340        33
22.350        73
22.360        67
22.370        67
22.380        53
22.390        47
22.400        73
22.410        33
22.420        60
22.430        27
22.440        47
22.450        73
22.460        27
22.470        33
22.480        87
22.490        40
22.500        93
22.510        27
22.520        80
22.530        60
22.540        47
22.550        27
22.560        67
22.570        80
22.580        47
22.590        33
22.600        27
22.610        27
22.620        60
22.630        47
22.640        47
22.650        87
22.660        40
22.670        60
22.680        47
22.690        40
22.700        47
22.710        53
22.720        40
22.730        27
22.740        53
22.750        40
22.760        47
22.770        60
22.780        40
22.790        60
22.800        33
22.810        53
22.820        53
22.830        33
22.840        60
22.850        13
22.860        33
22.870        60
22.880        33
22.890        33
22.900        40
22.910        87
22.920         7
22.930        40
22.940        20
22.950        33
22.960        33
22.970        33
22.980        40
22.990        47
23.000        53
23.010        27
23.020        33
23.030        40
23.040        13
23.050        73
23.060        93
23.070        60
23.080        33
23.090        73
23.100        40
23.110        40
23.120        47
23.130        27
23.140        73
23.150        53
23.160        40
23.170        33
23.180        13
23.190        60
23.200        27
23.210        33
23.220        73
23.230        20
23.240        20
23.250        60
23.260        20
23.270        33
23.280        40
23.290        33
23.300        40
23.310        60
23.320        53
23.330        53
23.340        27
23.350        60
23.360        27
23.370        67
23.380        33
23.390        33
23.400        40
23.410        13
23.420        40
23.430        33
23.440        27
23.450        47
23.460        33
23.470        40
23.480        47
23.490        27
23.500        27
23.510        40
23.520        27
23.530        40
23.540        33
23.550        60
23.560        33
23.570        67
23.580        13
23.590        53
23.600        40
23.610        47
23.620        40
23.630        33
23.640        27
23.650        27
23.660        80
23.670        20
23.680        73
23.690        40
23.700        53
23.710        33
23.720        33
23.730        60
23.740        73
23.750        47
23.760        60
23.770        40
23.780        53
23.790        47
23.800        33
23.810        40
23.820        53
23.830        60
23.840         7
23.850        33
23.860        13
23.870        47
23.880        33
23.890        27
23.900        27
23.910        40
23.920        47
23.930        73
23.940        67
23.950        47
23.960        67
23.970        33
23.980        40
23.990        20
24.000        33
24.010        47
24.020        33
24.030        27
24.040        87
24.050        13
24.060        40
24.070        60
24.080        33
24.090        60
24.100        33
24.110        13
24.120        33
24.130        53
24.140        47
24.150        20
24.160        33
24.170        27
24.180        53
24.190        60
24.200        40
24.210        33
24.220        33
24.230        40
24.240        33
24.250        20
24.260        40
24.270        27
24.280        13
24.290        67
24.300        40
24.310        53
24.320        73
24.330        27
24.340        33
24.350        33
24.360        13
24.370        20
24.380         7
24.390        53
24.400        53
24.410        20
24.420        27
24.430        60
24.440        20
24.450        33
24.460        60
24.470        67
24.480        40
24.490        33
24.500        27
24.510        67
24.520        40
24.530        20
24.540        67
24.550        40
24.560        53
24.570        33
24.580        13
24.590        20
24.600        27
24.610        13
24.620        33
24.630        13
24.640        53
24.650        47
24.660        20
24.670        33
24.680        40
24.690        33
24.700        53
24.710        40
24.720        40
24.730        40
24.740        67
24.750        40
24.760        53
24.770        40
24.780        33
24.790        40
24.800        13
24.810        40
24.820        33
24.830        60
24.840        47
24.850        47
24.860        60
24.870        20
24.880        67
24.890        40
24.900        27
24.910        40
24.920        20
24.930        40
24.940        73
24.950        20
24.960        27
24.970        33
24.980        33
24.990        47
25.000        13
25.010        60
25.020        40
25.030        47
25.040        47
25.050        33
25.060        47
25.070        13
25.080        47
25.090        27
25.100        40
25.110         7
25.120        27
25.130        60
25.140        60
25.150        53
25.160        33
25.170        20
25.180        47
25.190        67
25.200        13
25.210        73
25.220        33
25.230        33
25.240        47
25.250        33
25.260        33
25.270        40
25.280        60
25.290        27
25.300        40
25.310        87
25.320        53
25.330        60
25.340        40
25.350        73
25.360        73
25.370        93
25.380       173
25.390        87
25.400        80
25.410        87
25.420        67
25.430       127
25.440       120
25.450        73
25.460       140
25.470       127
25.480       187
25.490       107
25.500       247
25.510       193
25.520       233
25.530       233
25.540       227
25.550       227
25.560       280
25.570       367
25.580       313
25.590       333
25.600       267
25.610       333
25.620       247
25.630       247
25.640       193
25.650       153
25.660       180
25.670        93
25.680       180
25.690        73
25.700       100
25.710        67
25.720        40
25.730        67
25.740        20
25.750        13
25.760        53
25.770        33
25.780        20
25.790        27
25.800        40
25.810        27
25.820        27
25.830        33
25.840        13
25.850        13
25.860        40
25.870        13
25.880        33
25.890        33
25.900        53
25.910        40
25.920        53
25.930        53
25.940        27
25.950        20
25.960        33
25.970        27
25.980        20
25.990        33
26.000        40
26.010        60
26.020        20
26.030        27
26.040        33
26.050         7
26.060        47
26.070        40
26.080        40
26.090        53
26.100        33
26.110        27
26.120        33
26.130        13
26.140        40
26.150        53
26.160        27
26.170        20
26.180        40
26.190        20
26.200        53
26.210        20
26.220        40
26.230        33
26.240        27
26.250        47
26.260        27
26.270        20
26.280        60
26.290        27
26.300        27
26.310        27
26.320        27
26.330        27
26.340        47
26.350        13
26.360        33
26.370        47
26.380        20
26.390        20
26.400        33
26.410        20
26.420        27
26.430        33
26.440        40
26.450        47
26.460        27
26.470        53
26.480        13
26.490         7
26.500        33
26.510        20
26.520        13
26.530        33
26.540        20
26.550        20
26.560        27
26.570        20
26.580        47
26.590        33
26.600        47
26.610        13
26.620        27
26.630        33
26.640        53
26.650        47
26.660        33
26.670        40
26.680        27
26.690        20
26.700        40
26.710        27
26.720        40
26.730        33
26.740        27
26.750        27
26.760        13
26.770        33
26.780        33
26.790        53
26.800        13
26.810        20
26.820        47
26.830        47
26.840        27
26.850        53
26.860        27
26.870        40
26.880        27
26.890        40
26.900        27
26.910        40
26.920        40
26.930        27
26.940        27
26.950        33
26.960        27
26.970        47
26.980        80
26.990        27
27.000        60
27.010        53
27.020        40
27.030        20
27.040        33
27.050        33
27.060        80
27.070        13
27.080        40
27.090        40
27.100        33
27.110        20
27.120        27
27.130        53
27.140        40
27.150        27
27.160        20
27.170        40
27.180        13
27.190        40
27.200        33
27.210        33
27.220        33
27.230        13
27.240        20
27.250        27
27.260        20
27.270         7
27.280        33
27.290        87
27.300        27
27.310        53
27.320        13
27.330        27
27.340        47
27.350         0
27.360         7
27.370        27
27.380        20
27.390        27
27.400        47
27.410        47
27.420        33
27.430        80
27.440        20
27.450        20
27.460        47
27.470        20
27.480        60
27.490        33
27.500        20
27.510        47
27.520        13
27.530        27
27.540        20
27.550        20
27.560        33
27.570         7
27.580        33
27.590        60
27.600        27
27.610        20
27.620        27
27.630        40
27.640        27
27.650        53
27.660        53
27.670        33
27.680        27
27.690        20
27.700        27
27.710        67
27.720        47
27.730        33
27.740        20
27.750        13
27.760         7
27.770        47
27.780        27
27.790        20
27.800        67
27.810        53
27.820        33
27.830        47
27.840        93
27.850        27
27.860        47
27.870        47
27.880        27
27.890        13
27.900        20
27.910        47
27.920        27
27.930        27
27.940        47
27.950        47
27.960        40
27.970        53
27.980        20
27.990        33
28.000        27
28.010        53
28.020        40
28.030        40
28.040        27
28.050        33
28.060        47
28.070        13
28.080        33
28.090        20
28.100        27
28.110        20
28.120        27
28.130        33
28.140        27
28.150        27
28.160        20
28.170        27
28.180        40
28.190        20
28.200        53
28.210        33
28.220        40
28.230       100
28.240        47
28.250        13
28.260        53
28.270        33
28.280        33
28.290        20
28.300        20
28.310        33
28.320        47
28.330        20
28.340        33
28.350        33
28.360        20
28.370        33
28.380        33
28.390        20
28.400        40
28.410        40
28.420        33
28.430        47
28.440        27
28.450        67
28.460        67
28.470        47
28.480        20
28.490         7
28.500        40
28.510        27
28.520        33
28.530        47
28.540        47
28.550        33
28.560         7
28.570        27
28.580        73
28.590        33
28.600        40
28.610         0
28.620        13
28.630        53
28.640        47
28.650        27
28.660        13
28.670        33
28.680        60
28.690        13
28.700        40
28.710        27
28.720        33
28.730        20
28.740        27
28.750        13
28.760        20
28.770        27
28.780        20
28.790        33
28.800        60
28.810        60
28.820        13
28.830        33
28.840        20
28.850        27
28.860        33
28.870        27
28.880        20
28.890        13
28.900        53
28.910        13
28.920        53
28.930        40
28.940        20
28.950        27
28.960        27
28.970        33
28.980        47
28.990        13
29.000        33
29.010        20
29.020        40
29.030        47
29.040        60
29.050        67
29.060        47
29.070        27
29.080        60
29.090        47
29.100        40
29.110        47
29.120        60
29.130        33
29.140        33
29.150        40
29.160        33
29.170        33
29.180         7
29.190        20
29.200        67
29.210        27
29.220        40
29.230        40
29.240        33
29.250        27
29.260        40
29.270        33
29.280        20
29.290        47
29.300        40
29.310        27
29.320        40
29.330        13
29.340         7
29.350        53
29.360        27
29.370        27
29.380        27
29.390        27
29.400        47
29.410        33
29.420         0
29.430        47
29.440        40
29.450        33
29.460        40
29.470        33
29.480        20
29.490        13
29.500         0
29.510        47
29.520        53
29.530         7
29.540        40
29.550        33
29.560        33
29.570        13
29.580        13
29.590        27
29.600        40
29.610        20
29.620        27
29.630        40
29.640        33
29.650        20
29.660        27
29.670         7
29.680        27
29.690        20
29.700        47
29.710        27
29.720        33
29.730        47
29.740        33
29.750        53
29.760        40
29.770        33
29.780        20
29.790        60
29.800        47
29.810        47
29.820        27
29.830        33
29.840        33
29.850        20
29.860        33
29.870        53
29.880        20
29.890        40
29.900        27
29.910        13
29.920        13
29.930        40
29.940        13
29.950        20
29.960        27
29.970        33
29.980        13
29.990        40
30.000        47
30.010        27
30.020         7
30.030        53
30.040        40
30.050        40
30.060        20
30.070        40
30.080        40
30.090        40
30.100        33
30.110        27
30.120        27
30.130        40
30.140        20
30.150        33
30.160        60
30.170        60
30.180        47
30.190        47
30.200        40
30.210        47
30.220        53
30.230        20
30.240        27
30.250        27
30.260        27
30.270        33
30.280        33
30.290        13
30.300        47
30.310        33
30.320        53
30.330        40
30.340        33
30.350        20
30.360        20
30.370        47
30.380        20
30.390        13
30.400        33
30.410        20
30.420        20
30.430        27
30.440        27
30.450        27
30.460        20
30.470        47
30.480        40
30.490        13
30.500        13
30.510        40
30.520         7
30.530        53
30.540        47
30.550        47
30.560        13
30.570        13
30.580        27
30.590         7
30.600        40
30.610        13
30.620        67
30.630        60
30.640        47
30.650        87
30.660        33
30.670        20
30.680        27
30.690        33
30.700        20
30.710        33
30.720        33
30.730        27
30.740        20
30.750        40
30.760        47
30.770        40
30.780        27
30.790        40
30.800        47
30.810        40
30.820        53
30.830        47
30.840        13
30.850        40
30.860        33
30.870        27
30.880        80
30.890        47
30.900        13
30.910        47
30.920        53
30.930        47
30.940        47
30.950        20
30.960        13
30.970        13
30.980        60
30.990        33
31.000        20
31.010        27
31.020        27
31.030        40
31.040        33
31.050        53
31.060        40
31.070        40
31.080         7
31.090        47
31.100        27
31.110        20
31.120        27
31.130        27
31.140        47
31.150        27
31.160        60
31.170        47
31.180        40
31.190        27
31.200        40
31.210        27
31.220        60
31.230        47
31.240        60
31.250        67
31.260        47
31.270        53
31.280        40
31.290        60
31.300        40
31.310        47
31.320        53
31.330        53
31.340        53
31.350        40
31.360        53
31.370        73
31.380       100
31.390        53
31.400        80
31.410        73
31.420        67
31.430        67
31.440        67
31.450        27
31.460        53
31.470        33
31.480        67
31.490        40
31.500        73
31.510        67
31.520        67
31.530        67
31.540        40
31.550        67
31.560        40
31.570        93
31.580        93
31.590        73
31.600        87
31.610        47
31.620        53
31.630        60
31.640       100
31.650       107
31.660        80
31.670       107
31.680       107
31.690       100
31.700        60
31.710        80
31.720        60
31.730       113
31.740        80
31.750       113
31.760       113
31.770       147
31.780       133
31.790       140
31.800       120
31.810       160
31.820       153
31.830       140
31.840       160
31.850       160
31.860       160
31.870       187
31.880       207
31.890       193
31.900       240
31.910       200
31.920       233
31.930       320
31.940       267
31.950       240
31.960       240
31.970       180
31.980       293
31.990       247
32.000       267
32.010       260
32.020       307
32.030       333
32.040       280
32.050       413
32.060       380
32.070       360
32.080       380
32.090       373
32.100       307
32.110       333
32.120       333
32.130       400
32.140       387
32.150       413
32.160       393
32.170       353
32.180       340
32.190       267
32.200       367
32.210       440
32.220       393
32.230       373
32.240       420
32.250       400
32.260       393
32.270       320
32.280       347
32.290       360
32.300       327
32.310       313
32.320       380
32.330       380
32.340       313
32.350       280
32.360       393
32.370       233
32.380       333
32.390       360
32.400       240
32.410       320
32.420       247
32.430       267
32.440       267
32.450       187
32.460       260
32.470       173
32.480       193
32.490       240
32.500       247
32.510       247
32.520       193
32.530       167
32.540       133
32.550       207
32.560       200
32.570       140
32.580       140
32.590       113
32.600       107
32.610       133
32.620       100
32.630       140
32.640       107
32.650        73
32.660       113
32.670        93
32.680        60
32.690        73
32.700        80
32.710       120
32.720       107
32.730       100
32.740       180
32.750        80
32.760        80
32.770        67
32.780        60
32.790        60
32.800        73
32.810       113
32.820        33
32.830        93
32.840        73
32.850        67
32.860        47
32.870        80
32.880        47
32.890        60
32.900        27
32.910        80
32.920       100
32.930        60
32.940        67
32.950        60
32.960        80
32.970        53
32.980        60
32.990        53
33.000        67
33.010        27
33.020        40
33.030        53
33.040        13
33.050        40
33.060        47
33.070        87
33.080        67
33.090        53
33.100        27
33.110        47
33.120        67
33.130        33
33.140        60
33.150        67
33.160        47
33.170        60
33.180        53
33.190        47
33.200        27
33.210        67
33.220        33
33.230        53
33.240        33
33.250        67
33.260        67
33.270        20
33.280        33
33.290        27
33.300        33
33.310        20
33.320        47
33.330        40
33.340        47
33.350        40
33.360        13
33.370        40
33.380        33
33.390        20
33.400        20
33.410        33
33.420        33
33.430         7
33.440        33
33.450        33
33.460        60
33.470        40
33.480        33
33.490        27
33.500        13
33.510        40
33.520        13
33.530        47
33.540        33
33.550        33
33.560        27
33.570        40
33.580        20
33.590        13
33.600        33
33.610        40
33.620        20
33.630        53
33.640        40
33.650        20
33.660        20
33.670        27
33.680        27
33.690        20
33.700        20
33.710        73
33.720        47
33.730        33
33.740        20
33.750        27
33.760        47
33.770        27
33.780        53
33.790        60
33.800        40
33.810        13
33.820        40
33.830        13
33.840        53
33.850        33
33.860        40
33.870        33
33.880        27
33.890        27
33.900        53
33.910        20
33.920        27
33.930        13
33.940        47
33.950        20
33.960        33
33.970        27
33.980        40
33.990        40
34.000        13
34.010        33
34.020        27
34.030        40
34.040         7
34.050        20
34.060        60
34.070        67
34.080        53
34.090        27
34.100        40
34.110        27
34.120        80
34.130         7
34.140        67
34.150        20
34.160        27
34.170        40
34.180        33
34.190        13
34.200        27
34.210        20
34.220        40
34.230        27
34.240        27
34.250        40
34.260        67
34.270        53
34.280        20
34.290        27
34.300        27
34.310        33
34.320        27
34.330        53
34.340        73
34.350        27
34.360        40
34.370        13
34.380        40
34.390        20
34.400        20
34.410        40
34.420        40
34.430        67
34.440        27
34.450        20
34.460        13
34.470        40
34.480        47
34.490        47
34.500        20
34.510        60
34.520        20
34.530        33
34.540        33
34.550        20
34.560        33
34.570        53
34.580        27
34.590        33
34.600        47
34.610        20
34.620        33
34.630        47
34.640         0
34.650        27
34.660        40
34.670        27
34.680         7
34.690        40
34.700        33
34.710        27
34.720        13
34.730        60
34.740        47
34.750        33
34.760        40
34.770        20
34.780        40
34.790        27
34.800        33
34.810        33
34.820        47
34.830        47
34.840        27
34.850        27
34.860        53
34.870        73
34.880        33
34.890        40
34.900        60
34.910        13
34.920        40
34.930        73
34.940        47
34.950        40
34.960        67
34.970        67
34.980        73
34.990        67
35.000        60
35.010        33
35.020        67
35.030        80
35.040       140
35.050        80
35.060       107
35.070       153
35.080       153
35.090       213
35.100       220
35.110       307
35.120       453
35.130       853
35.140      1053
35.150      1206
35.160      1246
35.170      1133
35.180       980
35.190       753
35.200       626
35.210       493
35.220       520
35.230       526
35.240       740
35.250       680
35.260       440
35.270       526
35.280       307
35.290       233
35.300       173
35.310       100
35.320        80
35.330       107
35.340        53
35.350        40
35.360        53
35.370        33
35.380        27
35.390        47
35.400        47
35.410        20
35.420        27
35.430        47
35.440        40
35.450        20
35.460        20
35.470        40
35.480        27
35.490        13
35.500        33
35.510        60
35.520        33
35.530        40
35.540        20
35.550        33
35.560        27
35.570        13
35.580        20
35.590         0
35.600        20
35.610        73
35.620        20
35.630        27
35.640        13
35.650        47
35.660        40
35.670        33
35.680        27
35.690        53
35.700        40
35.710        27
35.720        53
35.730        20
35.740        33
35.750         7
35.760        13
35.770         7
35.780        20
35.790        40
35.800        27
35.810        27
35.820        60
35.830        40
35.840        60
35.850        27
35.860        13
35.870        47
35.880        20
35.890        27
35.900        33
35.910        27
35.920        33
35.930        20
35.940        33
35.950        13
35.960        33
35.970        33
35.980        40
35.990        13
36.000        13
36.010        40
36.020        27
36.030        27
36.040        20
36.050        33
36.060        27
36.070        13
36.080        13
36.090        33
36.100        47
36.110        33
36.120        20
36.130        20
36.140        13
36.150        40
36.160        33
36.170         7
36.180        40
36.190        40
36.200         7
36.210        47
36.220        53
36.230        20
36.240        27
36.250        33
36.260        40
36.270        33
36.280        27
36.290        20
36.300        47
36.310        40
36.320        27
36.330        27
36.340        20
36.350        33
36.360        20
36.370        20
36.380        47
36.390        13
36.400        47
36.410        40
36.420        13
36.430        40
36.440        13
36.450        20
36.460        53
36.470        33
36.480        40
36.490        20
36.500        27
36.510        67
36.520        27
36.530        33
36.540         0
36.550        47
36.560         7
36.570        27
36.580        27
36.590        20
36.600         7
36.610        27
36.620         7
36.630        27
36.640        20
36.650        40
36.660        27
36.670        33
36.680        20
36.690        13
36.700        20
36.710        13
36.720        13
36.730         7
36.740        40
36.750        27
36.760        20
36.770        13
36.780        33
36.790         0
36.800        20
36.810        33
36.820        33
36.830        40
36.840        13
36.850        20
36.860        27
36.870        27
36.880        27
36.890        13
36.900        47
36.910        53
36.920        40
36.930        53
36.940        53
36.950        40
36.960         7
36.970        27
36.980        20
36.990        60
37.000        13
37.010        40
37.020        40
37.030        27
37.040        47
37.050        40
37.060        27
37.070        27
37.080        27
37.090        13
37.100        33
37.110        33
37.120        13
37.130        27
37.140        20
37.150        27
37.160        20
37.170        13
37.180        13
37.190        13
37.200        20
37.210        13
37.220        20
37.230        13
37.240        40
37.250        33
37.260        20
37.270        27
37.280        20
37.290        33
37.300        27
37.310        53
37.320        40
37.330        13
37.340        40
37.350        20
37.360        27
37.370        40
37.380        20
37.390        27
37.400        33
37.410         7
37.420        20
37.430         7
37.440        27
37.450        47
37.460        53
37.470        33
37.480        40
37.490        27
37.500        13
37.510        27
37.520        40
37.530        33
37.540        33
37.550        67
37.560        40
37.570        20
37.580        27
37.590        67
37.600        73
37.610       107
37.620       153
37.630        87
37.640       113
37.650       127
37.660       127
37.670       140
37.680        73
37.690        67
37.700        60
37.710       107
37.720       100
37.730        93
37.740       147
37.750       120
37.760        80
37.770       113
37.780        87
37.790       120
37.800        73
37.810       120
37.820        67
37.830        53
37.840       107
37.850        40
37.860        67
37.870        53
37.880        33
37.890        67
37.900        27
37.910        40
37.920        53
37.930        73
37.940        40
37.950        33
37.960        33
37.970         0
37.980        33
37.990        27
38.000        33
38.010        40
38.020        13
38.030        33
38.040        33
38.050        20
38.060        27
38.070        13
38.080        27
38.090        13
38.100        40
38.110        13
38.120        33
38.130         7
38.140        13
38.150        13
38.160        33
38.170        13
38.180        27
38.190        20
38.200        33
38.210        27
38.220        60
38.230        40
38.240        20
38.250        33
38.260        13
38.270        47
38.280        27
38.290        27
38.300        27
38.310        13
38.320        20
38.330        20
38.340        47
38.350        27
38.360        20
38.370        27
38.380        20
38.390        33
38.400        27
38.410        27
38.420        33
38.430        40
38.440        13
38.450        13
38.460        47
38.470        33
38.480        20
38.490        53
38.500        20
38.510        27
38.520        27
38.530        27
38.540        27
38.550        27
38.560        20
38.570        13
38.580        40
38.590         7
38.600        13
38.610        13
38.620        27
38.630        33
38.640        33
38.650        47
38.660        20
38.670        27
38.680        20
38.690        27
38.700        20
38.710        27
38.720        27
38.730        13
38.740        20
38.750        27
38.760        40
38.770        13
38.780        13
38.790        27
38.800        47
38.810        13
38.820        27
38.830        20
38.840         7
38.850         7
38.860        47
38.870        60
38.880        20
38.890        27
38.900         7
38.910        40
38.920        40
38.930        13
38.940        47
38.950        33
38.960        33
38.970        33
38.980        27
38.990         7
39.000        20
39.010        13
39.020        40
39.030        33
39.040        40
39.050        33
39.060        33
39.070         7
39.080        60
39.090        40
39.100        60
39.110        13
39.120        20
39.130        13
39.140        27
39.150        33
39.160        13
39.170        20
39.180        20
39.190        20
39.200        13
39.210        27
39.220        20
39.230        13
39.240        13
39.250        20
39.260        60
39.270        40
39.280        20
39.290        20
39.300        27
39.310        20
39.320        27
39.330        20
39.340        33
39.350        27
39.360        27
39.370        20
39.380         7
39.390         7
39.400        13
39.410        20
39.420        20
39.430        27
39.440        13
39.450        33
39.460        27
39.470        60
39.480        53
39.490        20
39.500        27
39.510        13
39.520        27
39.530        27
39.540        33
39.550        27
39.560        40
39.570        27
39.580        53
39.590        67
39.600        67
39.610        27
39.620        53
39.630        53
39.640        53
39.650        40
39.660        73
39.670        27
39.680        47
39.690        47
39.700        67
39.710         7
39.720        27
39.730        67
39.740        60
39.750        53
39.760        33
39.770        27
39.780        60
39.790        27
39.800        47
39.810        47
39.820        40
39.830        40
39.840        73
39.850         7
39.860        47
39.870        60
39.880        53
39.890        40
39.900        33
39.910        60
39.920        20
39.930        60
39.940        60
39.950        20
39.960        47
39.970        27
39.980        33
39.990        40
40.000        40
40.010        60
40.020        27
40.030        47
40.040        13
40.050        27
40.060        20
40.070        27
40.080        27
40.090        33
40.100        40
40.110        67
40.120        60
40.130        33
40.140        27
40.150        33
40.160        33
40.170        27
40.180        13
40.190        20
40.200         7
40.210        47
40.220        40
40.230        40
40.240        20
40.250        40
40.260        33
40.270        40
40.280        47
40.290        53
40.300         7
40.310        13
40.320        33
40.330        13
40.340        40
40.350        20
40.360        53
40.370        20
40.380        20
40.390        20
40.400        40
40.410        13
40.420        13
40.430        40
40.440        13
40.450        40
40.460        13
40.470        20
40.480        47
40.490        33
40.500        33
40.510        47
40.520        27
40.530        20
40.540         7
40.550        47
40.560        40
40.570        27
40.580        20
40.590        20
40.600        13
40.610        27
40.620        20
40.630        40
40.640        33
40.650        33
40.660        60
40.670        47
40.680         0
40.690         7
40.700        13
40.710        40
40.720        20
40.730        60
40.740         7
40.750        20
40.760        13
40.770        40
40.780        33
40.790        40
40.800         7
40.810         7
40.820        13
40.830        13
40.840        20
40.850        13
40.860        20
40.870        27
40.880        20
40.890        13
40.900        27
40.910        20
40.920        13
40.930        13
40.940        47
40.950        27
40.960        47
40.970         7
40.980        13
40.990        33
41.000         7
41.010        33
41.020        27
41.030        20
41.040        47
41.050        13
41.060        33
41.070        27
41.080        13
41.090        27
41.100        33
41.110        27
41.120        27
41.130        27
41.140        20
41.150        27
41.160        20
41.170        27
41.180        20
41.190        13
41.200        13
41.210        40
41.220        33
41.230         7
41.240        20
41.250         7
41.260        13
41.270        13
41.280        33
41.290        13
41.300        33
41.310         7
41.320        20
41.330        13
41.340        20
41.350        20
41.360         7
41.370        27
41.380        20
41.390        47
41.400        20
41.410        27
41.420        33
41.430         7
41.440        33
41.450        20
41.460        33
41.470        40
41.480        40
41.490        27
41.500        20
41.510        13
41.520        33
41.530        13
41.540         7
41.550        40
41.560        47
41.570        33
41.580        20
41.590        73
41.600        40
41.610        53
41.620       107
41.630       100
41.640       147
41.650       147
41.660       140
41.670       147
41.680       113
41.690       113
41.700       113
41.710       113
41.720       127
41.730       107
41.740        53
41.750       160
41.760        87
41.770        80
41.780       167
41.790        93
41.800        73
41.810        27
41.820        53
41.830        60
41.840        60
41.850        60
41.860        20
41.870        13
41.880        27
41.890        33
41.900        47
41.910        20
41.920        13
41.930        33
41.940        20
41.950        40
41.960        20
41.970        33
41.980        33
41.990        27
42.000        47
42.010        40
42.020        27
42.030        27
42.040        20
42.050         7
42.060        20
42.070         7
42.080        40
42.090        20
42.100        27
42.110        53
42.120         7
42.130        27
42.140        13
42.150        20
42.160         7
42.170        13
42.180        13
42.190         7
42.200        27
42.210        13
42.220        13
42.230        40
42.240         7
42.250         7
42.260        47
42.270         7
42.280         0
42.290        47
42.300        20
42.310         0
42.320        13
42.330        27
42.340        27
42.350        33
42.360        33
42.370        27
42.380        20
42.390         7
42.400        13
42.410        27
42.420        20
42.430        40
42.440        40
42.450        27
42.460        40
42.470         7
42.480         7
42.490        13
42.500        27
42.510        20
42.520        20
42.530        20
42.540        20
42.550        40
42.560        20
42.570        13
42.580        20
42.590        13
42.600        33
42.610        27
42.620        20
42.630        13
42.640         0
42.650        20
42.660        33
42.670        40
42.680        40
42.690        13
42.700        27
42.710        27
42.720         7
42.730         7
42.740         0
42.750        40
42.760         7
42.770        33
42.780        27
42.790        33
42.800        13
42.810        13
42.820        20
42.830         7
42.840        27
42.850         7
42.860        13
42.870         7
42.880        13
42.890         0
42.900        13
42.910        47
42.920        27
42.930        27
42.940        13
42.950        13
42.960         7
42.970        33
42.980        13
42.990        67
43.000        53
43.010         7
43.020        67
43.030        47
43.040        13
43.050        27
43.060        13
43.070        13
43.080         7
43.090        20
43.100        20
43.110        20
43.120        33
43.130        33
43.140        73
43.150        20
43.160        33
43.170        40
43.180        53
43.190        47
43.200        27
43.210        47
43.220        33
43.230        47
43.240        60
43.250        33
43.260        80
43.270        67
43.280        53
43.290        47
43.300        73
43.310       187
43.320       147
43.330       253
43.340       287
43.350       307
43.360       433
43.370       333
43.380       353
43.390       333
43.400       333
43.410       373
43.420       267
43.430       287
43.440       120
43.450       173
43.460       240
43.470       173
43.480       233
43.490       253
43.500       200
43.510       187
43.520       153
43.530       173
43.540        67
43.550        93
43.560        47
43.570        73
43.580        20
43.590        33
43.600        60
43.610        27
43.620        27
43.630        53
43.640        20
43.650        13
43.660        20
43.670        20
43.680        40
43.690        40
43.700         7
43.710        13
43.720        27
43.730        33
43.740        33
43.750        40
43.760         7
43.770        20
43.780        27
43.790        20
43.800        27
43.810        13
43.820        20
43.830        33
43.840        13
43.850         7
43.860        27
43.870         0
43.880        20
43.890         0
43.900        20
43.910        47
43.920        20
43.930        27
43.940         7
43.950         7
43.960         7
43.970        20
43.980        27
43.990        40
44.000         7
44.010         0
44.020        67
44.030        20
44.040        20
44.050        13
44.060        33
44.070        13
44.080        27
44.090        20
44.100        13
44.110        20
44.120         0
44.130         7
44.140         7
44.150        33
44.160        20
44.170        13
44.180        20
44.190        27
44.200        27
44.210         0
44.220        13
44.230         0
44.240        13
44.250        13
44.260        27
44.270        47
44.280        27
44.290        27
44.300        53
44.310        27
44.320         7
44.330        27
44.340        20
44.350        13
44.360        13
44.370         7
44.380        13
44.390        20
44.400        20
44.410        20
44.420        27
44.430        27
44.440        53
44.450        20
44.460        13
44.470        47
44.480        27
44.490        13
44.500        47
44.510        27
44.520        33
44.530        27
44.540         7
44.550         7
44.560        27
44.570        40
44.580        13
44.590        20
44.600        20
44.610        40
44.620        60
44.630        20
44.640        20
44.650        20
44.660        13
44.670        13
44.680        13
44.690        27
44.700        13
44.710         7
44.720        20
44.730        20
44.740         7
44.750        33
44.760         7
44.770         0
44.780        13
44.790        27
44.800        33
44.810        13
44.820        20
44.830        13
44.840        20
44.850        33
44.860        13
44.870        27
44.880        47
44.890        33
44.900        20
44.910        33
44.920        27
44.930        40
44.940        47
44.950        13
44.960        27
44.970        47
44.980         0
44.990        20
45.000        27
45.010        13
45.020        27
45.030        33
45.040        20
45.050        33
45.060        20
45.070        13
45.080        33
45.090        20
45.100        27
45.110        27
45.120         7
45.130        47
45.140        20
45.150        13
45.160        13
45.170        33
45.180        27
45.190        27
45.200        33
45.210        27
45.220        47
45.230        40
45.240        33
45.250        27
45.260        13
45.270        20
45.280        53
45.290        27
45.300        20
45.310        27
45.320        20
45.330        33
45.340        27
45.350        27
45.360        33
45.370        20
45.380        47
45.390        33
45.400        53
45.410        53
45.420        40
45.430        27
45.440        40
45.450        13
45.460        53
45.470        27
45.480        20
45.490        20
45.500        47
45.510        60
45.520        27
45.530        40
45.540        33
45.550        33
45.560        40
45.570        47
45.580        47
45.590        40
45.600        67
45.610        20
45.620        13
45.630        60
45.640        60
45.650        47
45.660        20
45.670        73
45.680        33
45.690        40
45.700        40
45.710        40
45.720        60
45.730        53
45.740        60
45.750        33
45.760        40
45.770        87
45.780        40
45.790        80
45.800        53
45.810        33
45.820       120
45.830        80
45.840        33
45.850        60
45.860       107
45.870        73
45.880        93
45.890        80
45.900        73
45.910        60
45.920        87
45.930        60
45.940       107
45.950        60
45.960        73
45.970        80
45.980        67
45.990        93
46.000        80
46.010        60
46.020        93
46.030        53
46.040        67
46.050       113
46.060        40
46.070        73
46.080        67
46.090        80
46.100        53
46.110        80
46.120       107
46.130        33
46.140        80
46.150        73
46.160        80
46.170        47
46.180        73
46.190        53
46.200        73
46.210        73
46.220        40
46.230        93
46.240       140
46.250        73
46.260       100
46.270        40
46.280        60
46.290        87
46.300        67
46.310        67
46.320       120
46.330       100
46.340       107
46.350        73
46.360        60
46.370        60
46.380        73
46.390        40
46.400        80
46.410        40
46.420        67
46.430        60
46.440        53
46.450        60
46.460        60
46.470        40
46.480        47
46.490        47
46.500        47
46.510        47
46.520        60
46.530        53
46.540        27
46.550        47
46.560        27
46.570        33
46.580        67
46.590        40
46.600         7
46.610        40
46.620        27
46.630        27
46.640        53
46.650        27
46.660        47
46.670        73
46.680        27
46.690        47
46.700        40
46.710        13
46.720        80
46.730        53
46.740         0
46.750        13
46.760        27
46.770        20
46.780        20
46.790        53
46.800        33
46.810        33
46.820        40
46.830        13
46.840        40
46.850        27
46.860        27
46.870        20
46.880        40
46.890        20
46.900        33
46.910        47
46.920        27
46.930        67
46.940        33
46.950        47
46.960        53
46.970        67
46.980        33
46.990        53
47.000        40
47.010        13
47.020        33
47.030        20
47.040        20
47.050        47
47.060        27
47.070         7
47.080        13
47.090        20
47.100        20
47.110        27
47.120        27
47.130        27
47.140        20
47.150        20
47.160        20
47.170        13
47.180        27
47.190        20
47.200         0
47.210        33
47.220        27
47.230        40
47.240         0
47.250        33
47.260        47
47.270        33
47.280        13
47.290         7
47.300        13
47.310        20
47.320        33
47.330        20
47.340        20
47.350        27
47.360        20
47.370         7
47.380        20
47.390        33
47.400        20
47.410         0
47.420        27
47.430        20
47.440        13
47.450        33
47.460         7
47.470        27
47.480        20
47.490         7
47.500        20
47.510        20
47.520        13
47.530        20
47.540        33
47.550         7
47.560        33
47.570        27
47.580        20
47.590        40
47.600        27
47.610        20
47.620        13
47.630         7
47.640        27
47.650        27
47.660         7
47.670        33
47.680        20
47.690         0
47.700        20
47.710         0
47.720        13
47.730        13
47.740        13
47.750        20
47.760        20
47.770        27
47.780        20
47.790        40
47.800        27
47.810        20
47.820        27
47.830        13
47.840        20
47.850        27
47.860        20
47.870        13
47.880        13
47.890         0
47.900        13
47.910        13
47.920         7
47.930        33
47.940        13
47.950        13
47.960         7
47.970         7
47.980        27
47.990        33
48.000         7
48.010        20
48.020        20
48.030        40
48.040        13
48.050        13
48.060        20
48.070        27
48.080        40
48.090        13
48.100        13
48.110        20
48.120        20
48.130        20
48.140         7
48.150        20
48.160        13
48.170        33
48.180        33
48.190         0
48.200        13
48.210         7
48.220        20
48.230         7
48.240         0
48.250        27
48.260        27
48.270        13
48.280        13
48.290        20
48.300        20
48.310        27
48.320        27
48.330         7
48.340         7
48.350        13
48.360        13
48.370        13
48.380        20
48.390        33
48.400        20
48.410        33
48.420        20
48.430        27
48.440        20
48.450        20
48.460         7
48.470         0
48.480        27
48.490         0
48.500        27
48.510         0
48.520        27
48.530         7
48.540        27
48.550        20
48.560        20
48.570        27
48.580        13
48.590        13
48.600         7
48.610         7
48.620        27
48.630        13
48.640        27
48.650        20
48.660         7
48.670        33
48.680        13
48.690        27
48.700        20
48.710         7
48.720        20
48.730        27
48.740        13
48.750        27
48.760         7
48.770        20
48.780        20
48.790        20
48.800         0
48.810        20
48.820        13
48.830         0
48.840        13
48.850        13
48.860        20
48.870         0
48.880        27
48.890        40
48.900        13
48.910        20
48.920        13
48.930        13
48.940         7
48.950        13
48.960        20
48.970        20
48.980        20
48.990        13
49.000        27
49.010        13
49.020        20
49.030        20
49.040        20
49.050         0
49.060        20
49.070         7
49.080        13
49.090        20
49.100        13
49.110         0
49.120        20
49.130        20
49.140         7
49.150        13
49.160        20
49.170        27
49.180         7
49.190         7
49.200        13
49.210        20
49.220         7
49.230         7
49.240        33
49.250        33
49.260        27
49.270         7
49.280        27
49.290        20
49.300        13
49.310        20
49.320        20
49.330        20
49.340        20
49.350        13
49.360         7
49.370        13
49.380         7
49.390        27
49.400        20
49.410        27
49.420        20
49.430         0
49.440        27
49.450        13
49.460        13
49.470         7
49.480        20
49.490        13
49.500        13
49.510        40
49.520        20
49.530         7
49.540        20
49.550        13
49.560        13
49.570        20
49.580         7
49.590        13
49.600         7
49.610         7
49.620        20
49.630         0
49.640        20
49.650        13
49.660        20
49.670         7
49.680        20
49.690         0
49.700        20
49.710        27
49.720        27
49.730        27
49.740        20
49.750        27
49.760        20
49.770        20
49.780        20
49.790         7
49.800         0
49.810         7
49.820         0
49.830        13
49.840        27
49.850         7
49.860        13
49.870         7
49.880        13
49.890        20
49.900        20
49.910         7
49.920        13
49.930        13
49.940        20
49.950        20
49.960         7
49.970        20
49.980        20
49.990         0
50.000        13
50.010        20
50.020         0
50.030        13
50.040         7
50.050        20
50.060        33
50.070         7
50.080         0
50.090        13
50.100        13
50.110        13
50.120         7
50.130         0
50.140         7
50.150        33
50.160        20
50.170        13
50.180        33
50.190        13
50.200         7
50.210         0
50.220        13
50.230        13
50.240         7
50.250        13
50.260        13
50.270         7
50.280         7
50.290        13
50.300        13
50.310         7
50.320        27
50.330        40
50.340         7
50.350         0
50.360         7
50.370         7
50.380         7
50.390         0
50.400        20
50.410        20
50.420        20
50.430         0
50.440         0
50.450        27
50.460         7
50.470        20
50.480        13
50.490         0
50.500        40
50.510        13
50.520        13
50.530        13
50.540        27
50.550         7
50.560         7
50.570        13
50.580        33
50.590        13
50.600        33
50.610         0
50.620        13
50.630        20
50.640        13
50.650        20
50.660        33
50.670         0
50.680        20
50.690        40
50.700        27
50.710        20
50.720         7
50.730         7
50.740        27
50.750         7
50.760        27
50.770        27
50.780        13
50.790        13
50.800        27
50.810         7
50.820        20
50.830        13
50.840        27
50.850        20
50.860        27
50.870        20
50.880         7
50.890        27
50.900        20
50.910        13
50.920        27
50.930        20
50.940        20
50.950        20
50.960         0
50.970        33
50.980        20
50.990         0
51.000        13
51.010        27
51.020        20
51.030         7
51.040        13
51.050        27
51.060        13
51.070        20
51.080         0
51.090        27
51.100        13
51.110         7
51.120        27
51.130         0
51.140        13
51.150        20
51.160        27
51.170        27
51.180        13
51.190         0
51.200        13
51.210        40
51.220        40
51.230        27
51.240         7
51.250        27
51.260        13
51.270        20
51.280         7
51.290        20
51.300        33
51.310         0
51.320         7
51.330        33
51.340        27
51.350         7
51.360        20
51.370         7
51.380        20
51.390        13
51.400        20
51.410        40
51.420         7
51.430        20
51.440        13
51.450        40
51.460        33
51.470        20
51.480        40
51.490        20
51.500        13
51.510        47
51.520        13
51.530        47
51.540        20
51.550        20
51.560        60
51.570        27
51.580        47
51.590        47
51.600        13
51.610        40
51.620        40
51.630         7
51.640         0
51.650        20
51.660        13
51.670        47
51.680        27
51.690        20
51.700        13
51.710        13
51.720        20
51.730         0
51.740         0
51.750        20
51.760        27
51.770         7
51.780        13
51.790        20
51.800        27
51.810         7
51.820        20
51.830        27
51.840        27
51.850        13
51.860        20
51.870        27
51.880        13
51.890        20
51.900         0
51.910         7
51.920        27
51.930        27
51.940        13
51.950        13
51.960        13
51.970        20
51.980        13
51.990         7
52.000        40
52.010        20
52.020         0
52.030        13
52.040        13
52.050         0
52.060        20
52.070        13
52.080        20
52.090        27
52.100        33
52.110        27
52.120         7
52.130        27
52.140        27
52.150         7
52.160         0
52.170        33
52.180         7
52.190         7
52.200        20
52.210         7
52.220        13
52.230         7
52.240        27
52.250        33
52.260        13
52.270        20
52.280        20
52.290        20
52.300        20
52.310        20
52.320         7
52.330        27
52.340        33
52.350        33
52.360        13
52.370        13
52.380        27
52.390        13
52.400        20
52.410        33
52.420        20
52.430        13
52.440        33
52.450        20
52.460        33
52.470         7
52.480        33
52.490        80
52.500        53
52.510        27
52.520       100
52.530        53
52.540        87
52.550       120
52.560        80
52.570       113
52.580        73
52.590        87
52.600        87
52.610        67
52.620        40
52.630        60
52.640        33
52.650        60
52.660        33
52.670        67
52.680        73
52.690        87
52.700        40
52.710        47
52.720        53
52.730        80
52.740        20
52.750        53
52.760        60
52.770        13
52.780        27
52.790        33
52.800        47
52.810        13
52.820        20
52.830         7
52.840        20
52.850        13
52.860        13
52.870        20
52.880        27
52.890        13
52.900         0
52.910        13
52.920        13
52.930        20
52.940        33
52.950        20
52.960        20
52.970         7
52.980        13
52.990         0
53.000        13
53.010        13
53.020        13
53.030         0
53.040        27
53.050        40
53.060         0
53.070         0
53.080        20
53.090         7
53.100         7
53.110         0
53.120        13
53.130        20
53.140        13
53.150         7
53.160         7
53.170        13
53.180         0
53.190        20
53.200        20
53.210        13
53.220        13
53.230        20
53.240        13
53.250        27
53.260        27
53.270         7
53.280        13
53.290        40
53.300         7
53.310         0
53.320        20
53.330        20
53.340        27
53.350        13
53.360        20
53.370        20
53.380        13
53.390        33
53.400         0
53.410        27
53.420        27
53.430        27
53.440        13
53.450        33
53.460        27
53.470        13
53.480        33
53.490        27
53.500        27
53.510        13
53.520        13
53.530         7
53.540        27
53.550        13
53.560        20
53.570        27
53.580        13
53.590         0
53.600        20
53.610         7
53.620         7
53.630         7
53.640         7
53.650        13
53.660         0
53.670         0
53.680         0
53.690        33
53.700         7
53.710        13
53.720        13
53.730        20
53.740         7
53.750        40
53.760        13
53.770         7
53.780         7
53.790         7
53.800         0
53.810        20
53.820        27
53.830        27
53.840         7
53.850        27
53.860        20
53.870         7
53.880        20
53.890        20
53.900        13
53.910         7
53.920         7
53.930        20
53.940         0
53.950         7
53.960        27
53.970        13
53.980         7
53.990        13
54.000        13
54.010        13
54.020        20
54.030        13
54.040        20
54.050         7
54.060        20
54.070         0
54.080         7
54.090         7
54.100         7
54.110         7
54.120        13
54.130         0
54.140         7
54.150         0
54.160         7
54.170        13
54.180         7
54.190        13
54.200        13
54.210         0
54.220         7
54.230        20
54.240         7
54.250         7
54.260        40
54.270         0
54.280         7
54.290        13
54.300        13
54.310        13
54.320         0
54.330        13
54.340        13
54.350        13
54.360         7
54.370        13
54.380        20
54.390         7
54.400        13
54.410        20
54.420        13
54.430        13
54.440        27
54.450         0
54.460         7
54.470        20
54.480        20
54.490        13
54.500        13
54.510         7
54.520        13
54.530        13
54.540        13
54.550        13
54.560         7
54.570         0
54.580         0
54.590         0
54.600        13
54.610        20
54.620        20
54.630        13
54.640         7
54.650         7
54.660         7
54.670        13
54.680        13
54.690        20
54.700        13
54.710        47
54.720        13
54.730        20
54.740         7
54.750        20
54.760         7
54.770        20
54.780         7
54.790        13
54.800        13
54.810         7
54.820         7
54.830        27
54.840         7
54.850        27
54.860        13
54.870        27
54.880         7
54.890         7
54.900        20
54.910        13
54.920        20
54.930         7
54.940        27
54.950         7
54.960        13
54.970        20
54.980        20
54.990        13
55.000        20
55.010        13
55.020        13
55.030        13
55.040        13
55.050        13
55.060         7
55.070        13
55.080        20
55.090         7
55.100        27
55.110        27
55.120         7
55.130         7
55.140        20
55.150         0
55.160        20
55.170         7
55.180         7
55.190         7
55.200        20
55.210        20
55.220        40
55.230        13
55.240        27
55.250        27
55.260         7
55.270        13
55.280         0
55.290        20
55.300         7
55.310        20
55.320         7
55.330         7
55.340        27
55.350        27
55.360         7
55.370         7
55.380        13
55.390         7
55.400        13
55.410         0
55.420        20
55.430        20
55.440         7
55.450        13
55.460        13
55.470        13
55.480         7
55.490        27
55.500        33
55.510        20
55.520        40
55.530        33
55.540         0
55.550        27
55.560        20
55.570        33
55.580        33
55.590        20
55.600        47
55.610        13
55.620        27
55.630        13
55.640         7
55.650        20
55.660         0
55.670        13
55.680        13
55.690        20
55.700        27
55.710        27
55.720        20
55.730        13
55.740        20
55.750        27
55.760        20
55.770         7
55.780        27
55.790        33
55.800        27
55.810        20
55.820        53
55.830        20
55.840        40
55.850         7
55.860        27
55.870        47
55.880         7
55.890        13
55.900        27
55.910         7
55.920        27
55.930        13
55.940        13
55.950        20
55.960        27
55.970        20
55.980        27
55.990         0
56.000        33
56.010        20
56.020        33
56.030        27
56.040        13
56.050        53
56.060         7
56.070         7
56.080        13
56.090        13
56.100        13
56.110        20
56.120        13
56.130         0
56.140        20
56.150        20
56.160         0
56.170        47
56.180        20
56.190        13
56.200        13
56.210        13
56.220        20
56.230        27
56.240        27
56.250        20
56.260        13
56.270         7
56.280         7
56.290        40
56.300        13
56.310        27
56.320         7
56.330        13
56.340        33
56.350        20
56.360        27
56.370        27
56.380        13
56.390         7
56.400        40
56.410        20
56.420        20
56.430        27
56.440        13
56.450        13
56.460        20
56.470        20
56.480        27
56.490         7
56.500        13
56.510        13
56.520        33
56.530         7
56.540        20
56.550        27
56.560        20
56.570        27
56.580        13
56.590         7
56.600        13
56.610        13
56.620        47
56.630        13
56.640         7
56.650         7
56.660        20
56.670         0
56.680        20
56.690        33
56.700        20
56.710        13
56.720         0
56.730         7
56.740         7
56.750         7
56.760        13
56.770        33
56.780        27
56.790        13
56.800        33
56.810        27
56.820        27
56.830        33
56.840        27
56.850         0
56.860        47
56.870         0
56.880        20
56.890        20
56.900        27
56.910        40
56.920        13
56.930        27
56.940        20
56.950        40
56.960        20
56.970        20
56.980        33
56.990         7
57.000         7
57.010        27
57.020        47
57.030        27
57.040        47
57.050        20
57.060        20
57.070         0
57.080        27
57.090        40
57.100        27
57.110        27
57.120        40
57.130         7
57.140        27
57.150        27
57.160        80
57.170        40
57.180        53
57.190        47
57.200        40
57.210        40
57.220        40
57.230        60
57.240        53
57.250        33
57.260        80
57.270        67
57.280        67
57.290        40
57.300       100
57.310        87
57.320        87
57.330        73
57.340        80
57.350       100
57.360        73
57.370        87
57.380        87
57.390       133
57.400       140
57.410       187
57.420       227
57.430       213
57.440       247
57.450       387
57.460       533
57.470       766
57.480       853
57.490      1173
57.500      1606
57.510      2059
57.520      2226
57.530      2506
57.540      2452
57.550      2252
57.560      1653
57.570      1299
57.580       780
57.590       546
57.600       473
57.610       440
57.620       486
57.630       486
57.640       666
57.650       780
57.660       920
57.670       973
57.680      1073
57.690      1193
57.700      1180
57.710      1200
57.720       820
57.730       526
57.740       320
57.750       240
57.760       173
57.770       127
57.780       120
57.790       107
57.800        93
57.810        73
57.820        40
57.830        53
57.840        27
57.850        27
57.860       100
57.870        53
57.880        53
57.890        53
57.900        40
57.910        20
57.920        27
57.930        27
57.940        40
57.950        13
57.960        40
57.970        33
57.980        40
57.990        40
58.000        53
58.010        47
58.020        13
58.030        40
58.040        27
58.050        13
58.060        40
58.070         7
58.080        27
58.090        27
58.100        20
58.110        20
58.120        27
58.130        13
58.140        47
58.150        20
58.160        27
58.170        13
58.180        20
58.190        27
58.200         7
58.210        27
58.220        20
58.230        20
58.240        33
58.250        27
58.260        27
58.270         7
58.280        27
58.290        33
58.300        20
58.310        20
58.320         0
58.330        13
58.340        33
58.350        27
58.360        60
58.370        27
58.380        40
58.390        27
58.400        20
58.410         7
58.420        27
58.430        20
58.440        13
58.450        13
58.460         7
58.470        20
58.480        33
58.490        13
58.500        27
58.510        40
58.520        27
58.530         7
58.540        13
58.550        40
58.560        27
58.570        20
58.580        13
58.590         7
58.600        13
58.610        20
58.620        13
58.630        20
58.640        27
58.650         0
58.660        13
58.670        20
58.680        13
58.690         7
58.700        13
58.710        13
58.720         7
58.730        27
58.740        27
58.750        33
58.760        27
58.770        27
58.780        13
58.790        20
58.800         7
58.810        40
58.820        27
58.830        20
58.840        27
58.850        33
58.860         7
58.870         7
58.880        27
58.890        33
58.900        20
58.910         0
58.920        20
58.930        13
58.940        33
58.950        13
58.960         7
58.970         7
58.980        13
58.990        20
59.000        20
59.010         7
59.020        27
59.030        20
59.040        13
59.050        40
59.060        33
59.070        20
59.080         7
59.090        27
59.100        27
59.110        20
59.120        27
59.130         0
59.140        27
59.150        13
59.160        27
59.170        13
59.180        13
59.190         0
59.200         7
59.210        20
59.220        20
59.230         0
59.240        20
59.250        20
59.260        13
59.270        33
59.280        33
59.290        13
59.300        20
59.310        13
59.320         7
59.330        13
59.340        27
59.350        13
59.360        20
59.370        20
59.380         0
59.390         7
59.400        20
59.410        20
59.420        13
59.430         0
59.440        27
59.450        27
59.460        13
59.470        20
59.480        13
59.490        13
59.500        20
59.510         7
59.520        27
59.530         7
59.540        13
59.550        20
59.560        33
59.570         7
59.580        20
59.590        20
59.600        40
59.610        40
59.620         7
59.630        33
59.640        20
59.650        13
59.660        33
59.670         7
59.680        13
59.690        27
59.700        20
59.710        20
59.720        13
59.730        33
59.740        13
59.750        40
59.760        33
59.770        67
59.780        27
59.790        20
59.800         7
59.810        20
59.820        33
59.830        33
59.840        20
59.850        20
59.860        33
59.870        20
59.880        20
59.890        27
59.900        20
59.910        20
59.920        13
59.930        27
59.940         7
59.950        20
59.960        13
59.970        20
59.980         7
59.990        20
60.000        20
