20.000        53
20.010        53
20.020        53
20.030        40
20.040        33
20.050        33
20.060        27
20.070        60
20.080        40
20.090        47
20.100        20
20.110        27
20.120        53
20.130        47
20.140        47
20.150        40
20.160        27
20.170        33
20.180        47
20.190        67
20.200        13
20.210        27
20.220        20
20.230        47
20.240        20
20.250        40
20.260        40
20.270        27
20.280        40
20.290        40
20.300        33
20.310        33
20.320        20
20.330        27
20.340        40
20.350        27
20.360        27
20.370        53
20.380        40
20.390        53
20.400        33
20.410        27
20.420        33
20.430        40
20.440        47
20.450        27
20.460        33
20.470        13
20.480        27
20.490        53
20.500        60
20.510        40
20.520        20
20.530        33
20.540        27
20.550        27
20.560        47
20.570        13
20.580        27
20.590        20
20.600        27
20.610        20
20.620        33
20.630        60
20.640        33
20.650         7
20.660        27
20.670        60
20.680        53
20.690        47
20.700        27
20.710         7
20.720        20
20.730        33
20.740        40
20.750        47
20.760        80
20.770        13
20.780        33
20.790        47
20.800        33
20.810        33
20.820        40
20.830         7
20.840        40
20.850        27
20.860        87
20.870         7
20.880        40
20.890        27
20.900        33
20.910        27
20.920        33
20.930        47
20.940        60
20.950        40
20.960        40
20.970        33
20.980        33
20.990        33
21.000        40
21.010        27
21.020        40
21.030        47
21.040        33
21.050        33
21.060        33
21.070        40
21.080        20
21.090        33
21.100        40
21.110        27
21.120        40
21.130        13
21.140        13
21.150        20
21.160        47
21.170        47
21.180        53
21.190        13
21.200        20
21.210        40
21.220        33
21.230        27
21.240        47
21.250        53
21.260        33
21.270        47
21.280        33
21.290        27
21.300        13
21.310        67
21.320        67
21.330        27
21.340        13
21.350        40
21.360        33
21.370        33
21.380         0
21.390        20
21.400        33
21.410        60
21.420        13
21.430        53
21.440        27
21.450        27
21.460        60
21.470        27
21.480        33
21.490        40
21.500        47
21.510        33
21.520        47
21.530        20
21.540        40
21.550        33
21.560        27
21.570        27
21.580        40
21.590        20
21.600        53
21.610        40
21.620        33
21.630        47
21.640        20
21.650        20
21.660        40
21.670        20
21.680        33
21.690        47
21.700        33
21.710        33
21.720        40
21.730        47
21.740        40
21.750        47
21.760        40
21.770        20
21.780        67
21.790        47
21.800        67
21.810        33
21.820        40
21.830        40
21.840        53
21.850        60
21.860        73
21.870        53
21.880         7
21.890        47
21.900        40
21.910        53
21.920        20
21.930        40
21.940        13
21.950        47
21.960         0
21.970        47
21.980        73
21.990        33
22.000        40
22.010        40
22.020        33
22.030        33
22.040        80
22.050        40
22.060        40
22.070        47
22.080        27
22.090        53
22.100        53
22.110        47
22.120        33
22.130        53
22.140        33
22.150        73
22.160       107
22.170        53
22.180        53
22.190        67
22.200        33
22.210        40
22.220        80
22.230        53
22.240        73
22.250        53
22.260        73
22.270        60
22.280        87
22.290        60
22.300        27
22.310        67
22.320        53
22.330        53
22.340        67
22.350       120
22.360        87
22.370        80
22.380        80
22.390       100
22.400        93
22.410       133
22.420        80
22.430       127
22.440       107
22.450       147
22.460       120
22.470       120
22.480       167
22.490       100
22.500       133
22.510       140
22.520       160
22.530        73
22.540       140
22.550       107
22.560       120
22.570        73
22.580       133
22.590        93
22.600        67
22.610       140
22.620       113
22.630       127
22.640       120
22.650       153
22.660        53
22.670        87
22.680        73
22.690       113
22.700        87
22.710        67
22.720        93
22.730        80
22.740        93
22.750        73
22.760        67
22.770        87
22.780       120
22.790        73
22.800        80
22.810        87
22.820       100
22.830        67
22.840       107
22.850        73
22.860        93
22.870        53
22.880        73
22.890        67
22.900        80
22.910        53
22.920        47
22.930       107
22.940        40
22.950        47
22.960        27
22.970        53
22.980        67
22.990        67
23.000        73
23.010        20
23.020        87
23.030        67
23.040        40
23.050        33
23.060        93
23.070        60
23.080        40
23.090        53
23.100        80
23.110        40
23.120        80
23.130        53
23.140        67
23.150        53
23.160        40
23.170        73
23.180        20
23.190        67
23.200        27
23.210        13
23.220        33
23.230        67
23.240        33
23.250        47
23.260        27
23.270        60
23.280        40
23.290        60
23.300        40
23.310        27
23.320        40
23.330        67
23.340        27
23.350        53
23.360        20
23.370        60
23.380        60
23.390        27
23.400        33
23.410        60
23.420        33
23.430        40
23.440        27
23.450        20
23.460        67
23.470        40
23.480        40
23.490        80
23.500        27
23.510        67
23.520        53
23.530        40
23.540        47
23.550        27
23.560        40
23.570        13
23.580        53
23.590        20
23.600        60
23.610        47
23.620        47
23.630        40
23.640        53
23.650        33
23.660        47
23.670        93
23.680        40
23.690        33
23.700        40
23.710        20
23.720        53
23.730        40
23.740        27
23.750        40
23.760        87
23.770        40
23.780        60
23.790        60
23.800        47
23.810        27
23.820        33
23.830        27
23.840        53
23.850        40
23.860        27
23.870        47
23.880        27
23.890        33
23.900        40
23.910        27
23.920        53
23.930        33
23.940        60
23.950        33
23.960        40
23.970        33
23.980        27
23.990        33
24.000        53
24.010        53
24.020        40
24.030        40
24.040        53
24.050        13
24.060        47
24.070        33
24.080        40
24.090        47
24.100        20
24.110        40
24.120        40
24.130        27
24.140        27
24.150        33
24.160        13
24.170        33
24.180        60
24.190        27
24.200        33
24.210        33
24.220        13
24.230        40
24.240        60
24.250        47
24.260        40
24.270        47
24.280        33
24.290        53
24.300        33
24.310        53
24.320        47
24.330         0
24.340        40
24.350        27
24.360        53
24.370        40
24.380        47
24.390        20
24.400        27
24.410        53
24.420        27
24.430        27
24.440        40
24.450        27
24.460        20
24.470        20
24.480        27
24.490        20
24.500        20
24.510        20
24.520        47
24.530        40
24.540        47
24.550        53
24.560        87
24.570        40
24.580        20
24.590        20
24.600        33
24.610         7
24.620        47
24.630        47
24.640        40
24.650        33
24.660        33
24.670        33
24.680        60
24.690        27
24.700        33
24.710        27
24.720        67
24.730        47
24.740        53
24.750        40
24.760        53
24.770        20
24.780        20
24.790        53
24.800        13
24.810        33
24.820        33
24.830        67
24.840        27
24.850        27
24.860        33
24.870        27
24.880        33
24.890         7
24.900        40
24.910         7
24.920        53
24.930        47
24.940        53
24.950        40
24.960        60
24.970        40
24.980        33
24.990        20
25.000        47
25.010        40
25.020        20
25.030        47
25.040         7
25.050        33
25.060        73
25.070        33
25.080        40
25.090        40
25.100        20
25.110        20
25.120        13
25.130        27
25.140        27
25.150        27
25.160        33
25.170        33
25.180        53
25.190        27
25.200        53
25.210        40
25.220        40
25.230        33
25.240        27
25.250        20
25.260        33
25.270        13
25.280        67
25.290        20
25.300        40
25.310        33
25.320        33
25.330        27
25.340        27
25.350        53
25.360        47
25.370        47
25.380        20
25.390        40
25.400        47
25.410        60
25.420        60
25.430        47
25.440        33
25.450        33
25.460        60
25.470        87
25.480        40
25.490        40
25.500        27
25.510        73
25.520        67
25.530        87
25.540       107
25.550       100
25.560       160
25.570       153
25.580       213
25.590       227
25.600       273
25.610       240
25.620       233
25.630       253
25.640       160
25.650       240
25.660       180
25.670       247
25.680       173
25.690       180
25.700       100
25.710       140
25.720        93
25.730        80
25.740        73
25.750        67
25.760        87
25.770        73
25.780        40
25.790        33
25.800        13
25.810        47
25.820        67
25.830        53
25.840        53
25.850        33
25.860        60
25.870        60
25.880        33
25.890        20
25.900        20
25.910         7
25.920        60
25.930        20
25.940        47
25.950        47
25.960        33
25.970        73
25.980        27
25.990        33
26.000        13
26.010        20
26.020        33
26.030        27
26.040        33
26.050        60
26.060        13
26.070        33
26.080        20
26.090        27
26.100        20
26.110        33
26.120        27
26.130        20
26.140        40
26.150        13
26.160        60
26.170        33
26.180        27
26.190        60
26.200        40
26.210        13
26.220        40
26.230        67
26.240         7
26.250        60
26.260        47
26.270        33
26.280        47
26.290        20
26.300        67
26.310        27
26.320         7
26.330        20
26.340        20
26.350        27
26.360        40
26.370        33
26.380        20
26.390        60
26.400        27
26.410        20
26.420        53
26.430        47
26.440        67
26.450        20
26.460        27
26.470        13
26.480        27
26.490        27
26.500        13
26.510        27
26.520        67
26.530        27
26.540        47
26.550        13
26.560        13
26.570        20
26.580        20
26.590        73
26.600        20
26.610        20
26.620        33
26.630        33
26.640        27
26.650        27
26.660        40
26.670        87
26.680        47
26.690        27
26.700        27
26.710        13
26.720        40
26.730        33
26.740        33
26.750        27
26.760         7
26.770        13
26.780        13
26.790        20
26.800        27
26.810        33
26.820        27
26.830        47
26.840        13
26.850        27
26.860        27
26.870        13
26.880        33
26.890        20
26.900        33
26.910        27
26.920        20
26.930        53
26.940        13
26.950        47
26.960        33
26.970        27
26.980         0
26.990        27
27.000        20
27.010        47
27.020        27
27.030        13
27.040        33
27.050        27
27.060        27
27.070        20
27.080        27
27.090        20
27.100        20
27.110        47
27.120        40
27.130        27
27.140        20
27.150        33
27.160        20
27.170        27
27.180        33
27.190        27
27.200        47
27.210        27
27.220        20
27.230        13
27.240        27
27.250        27
27.260        13
27.270        20
27.280        53
27.290        20
27.300        27
27.310        13
27.320        27
27.330         7
27.340        40
27.350        27
27.360        33
27.370        27
27.380        27
27.390        47
27.400        27
27.410        27
27.420        27
27.430        60
27.440        20
27.450        20
27.460         7
27.470        27
27.480        40
27.490        33
27.500        20
27.510        20
27.520        47
27.530        20
27.540        33
27.550        27
27.560        27
27.570        27
27.580        27
27.590        27
27.600        20
27.610        13
27.620        40
27.630        27
27.640        33
27.650        40
27.660        13
27.670         0
27.680        67
27.690         7
27.700        13
27.710        33
27.720         7
27.730        13
27.740        33
27.750        40
27.760        60
27.770        20
27.780        33
27.790        13
27.800        33
27.810        13
27.820        40
27.830        40
27.840        13
27.850        40
27.860        20
27.870        47
27.880        13
27.890        40
27.900        40
27.910        13
27.920        20
27.930        27
27.940         7
27.950        27
27.960        53
27.970        40
27.980        33
27.990        20
28.000        33
28.010        27
28.020         7
28.030        33
28.040        20
28.050        20
28.060         7
28.070        13
28.080        20
28.090        27
28.100        20
28.110        40
28.120        33
28.130        33
28.140        13
28.150        40
28.160        13
28.170        47
28.180        33
28.190        33
28.200        40
28.210        20
28.220        27
28.230        33
28.240        27
28.250        27
28.260        33
28.270        33
28.280        53
28.290        20
28.300        27
28.310        20
28.320        33
28.330        20
28.340        13
28.350        13
28.360        13
28.370        20
28.380        40
28.390        20
28.400        13
28.410        33
28.420        40
28.430        13
28.440        33
28.450        27
28.460        27
28.470        27
28.480        27
28.490        27
28.500        67
28.510        47
28.520        13
28.530        13
28.540        40
28.550        40
28.560        67
28.570        13
28.580         7
28.590        13
28.600        27
28.610        40
28.620        33
28.630         7
28.640         7
28.650        20
28.660        40
28.670        13
28.680        13
28.690        67
28.700        27
28.710         7
28.720         0
28.730        13
28.740         7
28.750        27
28.760        40
28.770        13
28.780        40
28.790        27
28.800        33
28.810        33
28.820         0
28.830        27
28.840        13
28.850        20
28.860        13
28.870        13
28.880        47
28.890        13
28.900        27
28.910        33
28.920        33
28.930         7
28.940        40
28.950        13
28.960        27
28.970        27
28.980        27
28.990        33
29.000        53
29.010        27
29.020        60
29.030        20
29.040        27
29.050         0
29.060        20
29.070        40
29.080        20
29.090        33
29.100        27
29.110        47
29.120        27
29.130        13
29.140        20
29.150        33
29.160        40
29.170        47
29.180        20
29.190        20
29.200        40
29.210        53
29.220        27
29.230        40
29.240        27
29.250        33
29.260        33
29.270        47
29.280        47
29.290        20
29.300        20
29.310        20
29.320         7
29.330        33
29.340        20
29.350        13
29.360        13
29.370        40
29.380        33
29.390        13
29.400         0
29.410        33
29.420        20
29.430        13
29.440         7
29.450        27
29.460        33
29.470        27
29.480        40
29.490        47
29.500        20
29.510        13
29.520        33
29.530        40
29.540        40
29.550        13
29.560        33
29.570        20
29.580        13
29.590        27
29.600        13
29.610         7
29.620        33
29.630        73
29.640         7
29.650        40
29.660        27
29.670        13
29.680        33
29.690        40
29.700        20
29.710        27
29.720         7
29.730        13
29.740        27
29.750        27
29.760        20
29.770        27
29.780        13
29.790        33
29.800        40
29.810        27
29.820        20
29.830        40
29.840        33
29.850        27
29.860        20
29.870        40
29.880        20
29.890        33
29.900        20
29.910        27
29.920        20
29.930        53
29.940        33
29.950        20
29.960         7
29.970        27
29.980        27
29.990        47
30.000        47
30.010        13
30.020        40
30.030         7
30.040        20
30.050        13
30.060        33
30.070        27
30.080        33
30.090        27
30.100        27
30.110        20
30.120        40
30.130        40
30.140        20
30.150        20
30.160        47
30.170        20
30.180        20
30.190         7
30.200        20
30.210        40
30.220        40
30.230        27
30.240        47
30.250        13
30.260        33
30.270        40
30.280        13
30.290        20
30.300        33
30.310        33
30.320        20
30.330        33
30.340        20
30.350        33
30.360         7
30.370        20
30.380         7
30.390        53
30.400        47
30.410        47
30.420        13
30.430        40
30.440        13
30.450        27
30.460        33
30.470        20
30.480        20
30.490        13
30.500        13
30.510        13
30.520        60
30.530         0
30.540         7
30.550        13
30.560        13
30.570        33
30.580        27
30.590        33
30.600         7
30.610         7
30.620        20
30.630        20
30.640        20
30.650         0
30.660        27
30.670        33
30.680        20
30.690        27
30.700        20
30.710        47
30.720        20
30.730        27
30.740        33
30.750        20
30.760        13
30.770        13
30.780        20
30.790        27
30.800        20
30.810        20
30.820        40
30.830        27
30.840        33
30.850        27
30.860        20
30.870        33
30.880        33
30.890        27
30.900        33
30.910        13
30.920        13
30.930        33
30.940        47
30.950        13
30.960        13
30.970         0
30.980        13
30.990         7
31.000        20
31.010        40
31.020        40
31.030        53
31.040        20
31.050         7
31.060        20
31.070        27
31.080        20
31.090        27
31.100        33
31.110        47
31.120        33
31.130        40
31.140        33
31.150        33
31.160        33
31.170        33
31.180        20
31.190        33
31.200        33
31.210        40
31.220        20
31.230        13
31.240        13
31.250        27
31.260        40
31.270        13
31.280        33
31.290        27
31.300        13
31.310        20
31.320        13
31.330        40
31.340        20
31.350        20
31.360        27
31.370        27
31.380        33
31.390        27
31.400        13
31.410        20
31.420        27
31.430        20
31.440        13
31.450        33
31.460        27
31.470        33
31.480        40
31.490        40
31.500        20
31.510        47
31.520        33
31.530        27
31.540         7
31.550        27
31.560        13
31.570        33
31.580        33
31.590        20
31.600        47
31.610        40
31.620        27
31.630         7
31.640        40
31.650        40
31.660        27
31.670        47
31.680        33
31.690         7
31.700        20
31.710        33
31.720        20
31.730        33
31.740        47
31.750        13
31.760        47
31.770        73
31.780        53
31.790         7
31.800        20
31.810        40
31.820        33
31.830        47
31.840        33
31.850        20
31.860        40
31.870        47
31.880        20
31.890        33
31.900        40
31.910        67
31.920        60
31.930        53
31.940        67
31.950        40
31.960        80
31.970        73
31.980        67
31.990        73
32.000        93
32.010       167
32.020        60
32.030       100
32.040        67
32.050       113
32.060       120
32.070        73
32.080       113
32.090       107
32.100        93
32.110        93
32.120        87
32.130        87
32.140       147
32.150       113
32.160       187
32.170        93
32.180       133
32.190       140
32.200       167
32.210       120
32.220       107
32.230       140
32.240       153
32.250       120
32.260       173
32.270        93
32.280       127
32.290       173
32.300       153
32.310       140
32.320       160
32.330       140
32.340       120
32.350        80
32.360       160
32.370       173
32.380       127
32.390        67
32.400       100
32.410       133
32.420        80
32.430        87
32.440       160
32.450       100
32.460       107
32.470        87
32.480       100
32.490       127
32.500        93
32.510        80
32.520        87
32.530        67
32.540        33
32.550        80
32.560        60
32.570        80
32.580        80
32.590       120
32.600        40
32.610        40
32.620        53
32.630        47
32.640        73
32.650        67
32.660        60
32.670       120
32.680        47
32.690        53
32.700        27
32.710        73
32.720        27
32.730        47
32.740        67
32.750        33
32.760        33
32.770        60
32.780        40
32.790        53
32.800        53
32.810        40
32.820        20
32.830        40
32.840        40
32.850         7
32.860        40
32.870        33
32.880        60
32.890        67
32.900        60
32.910        60
32.920        27
32.930        60
32.940        33
32.950        33
32.960        20
32.970        27
32.980        13
32.990        33
33.000        47
33.010        53
33.020        33
33.030        27
33.040        13
33.050        27
33.060        40
33.070        27
33.080        40
33.090         7
33.100         7
33.110        20
33.120        27
33.130        27
33.140        13
33.150         7
33.160        13
33.170        13
33.180        13
33.190        13
33.200        20
33.210        60
33.220        20
33.230        27
33.240        13
33.250        20
33.260        20
33.270        33
33.280        47
33.290        40
33.300        20
33.310        33
33.320        47
33.330        33
33.340        40
33.350        20
33.360        13
33.370         7
33.380        20
33.390         7
33.400        27
33.410        33
33.420        13
33.430        27
33.440        20
33.450        13
33.460        27
33.470         0
33.480        20
33.490        13
33.500         7
33.510        20
33.520        60
33.530        20
33.540         7
33.550        47
33.560         7
33.570        47
33.580         7
33.590        33
33.600         7
33.610        20
33.620        20
33.630        20
33.640        13
33.650        47
33.660         7
33.670        33
33.680        27
33.690        20
33.700        13
33.710        20
33.720        20
33.730        20
33.740        27
33.750        13
33.760        20
33.770        47
33.780        47
33.790         7
33.800        20
33.810        20
33.820        20
33.830        20
33.840        13
33.850         7
33.860        33
33.870        40
33.880        60
33.890        20
33.900        13
33.910        53
33.920        13
33.930        47
33.940        20
33.950         7
33.960        33
33.970        20
33.980         7
33.990        33
34.000        27
34.010         0
34.020        27
34.030        27
34.040        13
34.050        20
34.060        20
34.070         7
34.080        20
34.090        13
34.100         7
34.110        20
34.120        27
34.130        27
34.140        40
34.150         0
34.160        20
34.170        20
34.180        27
34.190        13
34.200        40
34.210         7
34.220        40
34.230        13
34.240         7
34.250        27
34.260         7
34.270        40
34.280        13
34.290        33
34.300        13
34.310         7
34.320        13
34.330         7
34.340        20
34.350         7
34.360        13
34.370        33
34.380         7
34.390        20
34.400         7
34.410         7
34.420         7
34.430        27
34.440         7
34.450        13
34.460        20
34.470         7
34.480        40
34.490        33
34.500        27
34.510        27
34.520        27
34.530        20
34.540        27
34.550        27
34.560        20
34.570        20
34.580        27
34.590         0
34.600         0
34.610        20
34.620        13
34.630        13
34.640         7
34.650        20
34.660        27
34.670         7
34.680        27
34.690        27
34.700        20
34.710        13
34.720        33
34.730         7
34.740         7
34.750        20
34.760         0
34.770        53
34.780        47
34.790        20
34.800        20
34.810         7
34.820        20
34.830        13
34.840        33
34.850        33
34.860        20
34.870        33
34.880        13
34.890        13
34.900        40
34.910        20
34.920        13
34.930         7
34.940        13
34.950         0
34.960        20
34.970        27
34.980        20
34.990        33
35.000        20
35.010        27
35.020         0
35.030         0
35.040         0
35.050        33
35.060        20
35.070        20
35.080         7
35.090        40
35.100        20
35.110        20
35.120        20
35.130        20
35.140        13
35.150         7
35.160         7
35.170        33
35.180         0
35.190        27
35.200        20
35.210        13
35.220        13
35.230         7
35.240        13
35.250        13
35.260        33
35.270        13
35.280        27
35.290         7
35.300        13
35.310        13
35.320        27
35.330         0
35.340        13
35.350         7
35.360        20
35.370        20
35.380        47
35.390        47
35.400        33
35.410        20
35.420         7
35.430        13
35.440         0
35.450        27
35.460        40
35.470        13
35.480         0
35.490        27
35.500        13
35.510        27
35.520        13
35.530        13
35.540         7
35.550        13
35.560        13
35.570        13
35.580        33
35.590        13
35.600        53
35.610        20
35.620        27
35.630        27
35.640        27
35.650        20
35.660        20
35.670        20
35.680        27
35.690        20
35.700        27
35.710        33
35.720        47
35.730        33
35.740        27
35.750        27
35.760         7
35.770        33
35.780        20
35.790        20
35.800        13
35.810         7
35.820        27
35.830         0
35.840        20
35.850         0
35.860        20
35.870        20
35.880        20
35.890        40
35.900        13
35.910        13
35.920        20
35.930        13
35.940        20
35.950        13
35.960        13
35.970         0
35.980         7
35.990        13
36.000        27
36.010        13
36.020        33
36.030         7
36.040         7
36.050        13
36.060        13
36.070        27
36.080         7
36.090        33
36.100        33
36.110        20
36.120         0
36.130        13
36.140        13
36.150        53
36.160        33
36.170         7
36.180        27
36.190        47
36.200        27
36.210         7
36.220         7
36.230        27
36.240        27
36.250        27
36.260        13
36.270        13
36.280        40
36.290        20
36.300         0
36.310        47
36.320         0
36.330         7
36.340         7
36.350        20
36.360        20
36.370        33
36.380         7
36.390        20
36.400        53
36.410         7
36.420        20
36.430        20
36.440        20
36.450        33
36.460         0
36.470        33
36.480        20
36.490         0
36.500        13
36.510        27
36.520        27
36.530        20
36.540        40
36.550        20
36.560         0
36.570        27
36.580        33
36.590         7
36.600         7
36.610        20
36.620         0
36.630         7
36.640        27
36.650        13
36.660        13
36.670        20
36.680        27
36.690        33
36.700        20
36.710         7
36.720        33
36.730        20
36.740         7
36.750        20
36.760        20
36.770        13
36.780        13
36.790        33
36.800         7
36.810        13
36.820        33
36.830        27
36.840        13
36.850        13
36.860        20
36.870        20
36.880        33
36.890        20
36.900        13
36.910        27
36.920        20
36.930        27
36.940        13
36.950        13
36.960        13
36.970        27
36.980        13
36.990        33
37.000        13
37.010        20
37.020        13
37.030        27
37.040        13
37.050         7
37.060        20
37.070         0
37.080        13
37.090        13
37.100        13
37.110        13
37.120        20
37.130         7
37.140         7
37.150        27
37.160        40
37.170        27
37.180         7
37.190         7
37.200        13
37.210        27
37.220        20
37.230        20
37.240        13
37.250        13
37.260         7
37.270        27
37.280        20
37.290         7
37.300        20
37.310        13
37.320        13
37.330        13
37.340        20
37.350        33
37.360        27
37.370        20
37.380        20
37.390        13
37.400        33
37.410         0
37.420         7
37.430        27
37.440        33
37.450         7
37.460        13
37.470        13
37.480        20
37.490        33
37.500        20
37.510        13
37.520        13
37.530        13
37.540        20
37.550         7
37.560        20
37.570         7
37.580        20
37.590         7
37.600        13
37.610        33
37.620        33
37.630         7
37.640        13
37.650        27
37.660        33
37.670        13
37.680        47
37.690        47
37.700        27
37.710        27
37.720        27
37.730        33
37.740         7
37.750        13
37.760        13
37.770        13
37.780         7
37.790        20
37.800        13
37.810        20
37.820         0
37.830        13
37.840        13
37.850         0
37.860        13
37.870        20
37.880        13
37.890         0
37.900        20
37.910        27
37.920         7
37.930        20
37.940        20
37.950        20
37.960         7
37.970        20
37.980        13
37.990         7
38.000        33
38.010         7
38.020        20
38.030        13
38.040         7
38.050         7
38.060        20
38.070        13
38.080        20
38.090         0
38.100         7
38.110        33
38.120        40
38.130         7
38.140        13
38.150         7
38.160        33
38.170        33
38.180         0
38.190        27
38.200        27
38.210        53
38.220        33
38.230        33
38.240        13
38.250        27
38.260        33
38.270        13
38.280        27
38.290        27
38.300        40
38.310        40
38.320         7
38.330        13
38.340        13
38.350        13
38.360         7
38.370        20
38.380        20
38.390        20
38.400         0
38.410        20
38.420        13
38.430        20
38.440        13
38.450        40
38.460        13
38.470        33
38.480        13
38.490        13
38.500        40
38.510        20
38.520        13
38.530         7
38.540        27
38.550        20
38.560        47
38.570        40
38.580        13
38.590        27
38.600        13
38.610        40
38.620        27
38.630         7
38.640        13
38.650        47
38.660        40
38.670        20
38.680        27
38.690        20
38.700        20
38.710        13
38.720         7
38.730         7
38.740         0
38.750        33
38.760         7
38.770         0
38.780        27
38.790        33
38.800        33
38.810        27
38.820         7
38.830        13
38.840        40
38.850        27
38.860         7
38.870        27
38.880         7
38.890         7
38.900        13
38.910         0
38.920         7
38.930        13
38.940         0
38.950        33
38.960        20
38.970        27
38.980        13
38.990        20
39.000         0
39.010        33
39.020        40
39.030        13
39.040         7
39.050        27
39.060        27
39.070        13
39.080        33
39.090        47
39.100        40
39.110        33
39.120        27
39.130        13
39.140         0
39.150         0
39.160        13
39.170        40
39.180        20
39.190        13
39.200        20
39.210        13
39.220        13
39.230        40
39.240        27
39.250         7
39.260        20
39.270         0
39.280        33
39.290        27
39.300         7
39.310         7
39.320        27
39.330        13
39.340         7
39.350        33
39.360        13
39.370        27
39.380        40
39.390        47
39.400        20
39.410        40
39.420        20
39.430         7
39.440        47
39.450        27
39.460        20
39.470        27
39.480        13
39.490        27
39.500         7
39.510         7
39.520        13
39.530        20
39.540        60
39.550        20
39.560        13
39.570        27
39.580        20
39.590        13
39.600        20
39.610        33
39.620        27
39.630        13
39.640         7
39.650        13
39.660        27
39.670        20
39.680         7
39.690        13
39.700        20
39.710         0
39.720        67
39.730        27
39.740        27
39.750        13
39.760        20
39.770         7
39.780        20
39.790        20
39.800        33
39.810         0
39.820        13
39.830         7
39.840        27
39.850        53
39.860        20
39.870        13
39.880        20
39.890        27
39.900        33
39.910        20
39.920        13
39.930        27
39.940        20
39.950        13
39.960         7
39.970         7
39.980         7
39.990        27
40.000        33
40.010        47
40.020        20
40.030        27
40.040        13
40.050        27
40.060        27
40.070         7
40.080         7
40.090        13
40.100        33
40.110        13
40.120        40
40.130        13
40.140        13
40.150        27
40.160        40
40.170        13
40.180         7
40.190        27
40.200        27
40.210        27
40.220        27
40.230         0
40.240        27
40.250        13
40.260         7
40.270        33
40.280         7
40.290        33
40.300        27
40.310        33
40.320        20
40.330        13
40.340        40
40.350        13
40.360         7
40.370        20
40.380        40
40.390        20
40.400        20
40.410        33
40.420        20
40.430        40
40.440        27
40.450        13
40.460        13
40.470        47
40.480        27
40.490         7
40.500        20
40.510        33
40.520         7
40.530         0
40.540        20
40.550        20
40.560         7
40.570         7
40.580         7
40.590        27
40.600        27
40.610        33
40.620         7
40.630        33
40.640        20
40.650        20
40.660        33
40.670        13
40.680         7
40.690         0
40.700         7
40.710         7
40.720        20
40.730        20
40.740        20
40.750        13
40.760        20
40.770        27
40.780        33
40.790        27
40.800        20
40.810        27
40.820        13
40.830         7
40.840         7
40.850         0
40.860        60
40.870        20
40.880        27
40.890        33
40.900        20
40.910        13
40.920        20
40.930        13
40.940        13
40.950         7
40.960        27
40.970        13
40.980         7
40.990        13
41.000        33
41.010         7
41.020        13
41.030         7
41.040        13
41.050        20
41.060         0
41.070        20
41.080        20
41.090        13
41.100        33
41.110        40
41.120        27
41.130        20
41.140        27
41.150        27
41.160        13
41.170        33
41.180         7
41.190        13
41.200        33
41.210        27
41.220        20
41.230        47
41.240        13
41.250        33
41.260        13
41.270        20
41.280        20
41.290        13
41.300         7
41.310        27
41.320         7
41.330        33
41.340        27
41.350        27
41.360        27
41.370        53
41.380        40
41.390        33
41.400        13
41.410        40
41.420        27
41.430        13
41.440        27
41.450        40
41.460        33
41.470        27
41.480        20
41.490        27
41.500        20
41.510        13
41.520         7
41.530        33
41.540        20
41.550        27
41.560        13
41.570        40
41.580        40
41.590        20
41.600        13
41.610        13
41.620        13
41.630        40
41.640        20
41.650        33
41.660        27
41.670        47
41.680         7
41.690        13
41.700        27
41.710        13
41.720        27
41.730        27
41.740        27
41.750        13
41.760        33
41.770        33
41.780        13
41.790        13
41.800         7
41.810        40
41.820         0
41.830        27
41.840        40
41.850        13
41.860        33
41.870        20
41.880        27
41.890        13
41.900        27
41.910        13
41.920        33
41.930        40
41.940        20
41.950        20
41.960        20
41.970        20
41.980        20
41.990         7
42.000        20
42.010        33
42.020        13
42.030        20
42.040         7
42.050        27
42.060         7
42.070        20
42.080        27
42.090        13
42.100        13
42.110        20
42.120        13
42.130        20
42.140        33
42.150        27
42.160        27
42.170        20
42.180        33
42.190         7
42.200        13
42.210        27
42.220        27
42.230        27
42.240        27
42.250        27
42.260        20
42.270        53
42.280        33
42.290        20
42.300        20
42.310        13
42.320        40
42.330        13
42.340         7
42.350         7
42.360        13
42.370        13
42.380        40
42.390        27
42.400        27
42.410        20
42.420        27
42.430         7
42.440         0
42.450        20
42.460        27
42.470        20
42.480        27
42.490         7
42.500        27
42.510        40
42.520        33
42.530        47
42.540        13
42.550        27
42.560         7
42.570        13
42.580        33
42.590        13
42.600         7
42.610        40
42.620        27
42.630        13
42.640        33
42.650        33
42.660        13
42.670        33
42.680        20
42.690        33
42.700        20
42.710        33
42.720        40
42.730        13
42.740        13
42.750        13
42.760         7
42.770        27
42.780        40
42.790        33
42.800         7
42.810        33
42.820        20
42.830        27
42.840        40
42.850        20
42.860        33
42.870        13
42.880        33
42.890        40
42.900        53
42.910        33
42.920        20
42.930        33
42.940        40
42.950        27
42.960        40
42.970        27
42.980        27
42.990         7
43.000       167
43.010        27
43.020        33
43.030        40
43.040         7
43.050        20
43.060        27
43.070         7
43.080        20
43.090        20
43.100        20
43.110        33
43.120        20
43.130        20
43.140        33
43.150        20
43.160        33
43.170        33
43.180        20
43.190        53
43.200        20
43.210        33
43.220        13
43.230        33
43.240        33
43.250        33
43.260        40
43.270        27
43.280        40
43.290        13
43.300        47
43.310        27
43.320        20
43.330         7
43.340        33
43.350        27
43.360        13
43.370         7
43.380        40
43.390        47
43.400        20
43.410        33
43.420        20
43.430        33
43.440         7
43.450         0
43.460        20
43.470        40
43.480        33
43.490        47
43.500        20
43.510        13
43.520         7
43.530        20
43.540        40
43.550        80
43.560        27
43.570        27
43.580        60
43.590         7
43.600        40
43.610        40
43.620        27
43.630        27
43.640        40
43.650        13
43.660        20
43.670        27
43.680        13
43.690        33
43.700        60
43.710        40
43.720        20
43.730        27
43.740        20
43.750        60
43.760        33
43.770        40
43.780        27
43.790        40
43.800        33
43.810        20
43.820        27
43.830        53
43.840        27
43.850         7
43.860        40
43.870        27
43.880        13
43.890        20
43.900        33
43.910        40
43.920        40
43.930        40
43.940        27
43.950        27
43.960        27
43.970         7
43.980        60
43.990        13
44.000        40
44.010        53
44.020        47
44.030        53
44.040        33
44.050         7
44.060        67
44.070        40
44.080        53
44.090        20
44.100        73
44.110        33
44.120        47
44.130         7
44.140        53
44.150        27
44.160        53
44.170        27
44.180        53
44.190        33
44.200        27
44.210        33
44.220        53
44.230        53
44.240        47
44.250        40
44.260        40
44.270        40
44.280        33
44.290        40
44.300        33
44.310        47
44.320        40
44.330        27
44.340        67
44.350        60
44.360        40
44.370        53
44.380        73
44.390        60
44.400        47
44.410        40
44.420        60
44.430        53
44.440        73
44.450        73
44.460        60
44.470        33
44.480        53
44.490        40
44.500        67
44.510        80
44.520        60
44.530        60
44.540        67
44.550        27
44.560        60
44.570        20
44.580        87
44.590        73
44.600        33
44.610       120
44.620        53
44.630        80
44.640        67
44.650        73
44.660        67
44.670        53
44.680        53
44.690        40
44.700        47
44.710        47
44.720        73
44.730        67
44.740        60
44.750        67
44.760        73
44.770        40
44.780       107
44.790        53
44.800        53
44.810        47
44.820        40
44.830        53
44.840        40
44.850       113
44.860        47
44.870        47
44.880        67
44.890       107
44.900        93
44.910        80
44.920        60
44.930        60
44.940        87
44.950        80
44.960        80
44.970       147
44.980        80
44.990        87
45.000       127
45.010       113
45.020       100
45.030       113
45.040       107
45.050       120
45.060       113
45.070       140
45.080       133
45.090       140
45.100       100
45.110       100
45.120       127
45.130       147
45.140       107
45.150       147
45.160       127
45.170       207
45.180       147
45.190       140
45.200       133
45.210       153
45.220       220
45.230       160
45.240       253
45.250       220
45.260       200
45.270       200
45.280       207
45.290       173
45.300       227
45.310       160
45.320       187
45.330       227
45.340       187
45.350       313
45.360       207
45.370       280
45.380       260
45.390       273
45.400       240
45.410       407
45.420       267
45.430       360
45.440       320
45.450       347
45.460       267
45.470       446
45.480       453
45.490       380
45.500       293
45.510       493
45.520       367
45.530       367
45.540       500
45.550       360
45.560       453
45.570       400
45.580       540
45.590       506
45.600       433
45.610       533
45.620       513
45.630       520
45.640       633
45.650       586
45.660       600
45.670       580
45.680       660
45.690       680
45.700       606
45.710       740
45.720       673
45.730       726
45.740       806
45.750       746
45.760       720
45.770       866
45.780       720
45.790       853
45.800       746
45.810       933
45.820       993
45.830       846
45.840       886
45.850       953
45.860       840
45.870       800
45.880      1040
45.890       960
45.900      1026
45.910       926
45.920       986
45.930       986
45.940       933
45.950       980
45.960      1006
45.970       806
45.980       926
45.990      1013
46.000      1046
46.010       860
46.020      1020
46.030       953
46.040       926
46.050      1093
46.060       826
46.070       953
46.080       946
46.090      1120
46.100      1046
46.110       933
46.120       960
46.130       953
46.140       880
46.150       753
46.160       913
46.170       946
46.180       960
46.190       980
46.200       846
46.210       726
46.220       853
46.230       813
46.240       733
46.250       773
46.260       700
46.270       800
46.280       800
46.290       806
46.300       633
46.310       646
46.320       720
46.330       606
46.340       653
46.350       673
46.360       486
46.370       613
46.380       773
46.390       613
46.400       493
46.410       626
46.420       566
46.430       546
46.440       486
46.450       493
46.460       526
46.470       546
46.480       466
46.490       247
46.500       466
46.510       446
46.520       453
46.530       413
46.540       373
46.550       466
46.560       446
46.570       413
46.580       333
46.590       420
46.600       433
46.610       307
46.620       393
46.630       300
46.640       353
46.650       333
46.660       267
46.670       347
46.680       180
46.690       313
46.700       273
46.710       300
46.720       287
46.730       253
46.740       273
46.750       287
46.760       360
46.770       293
46.780       287
46.790       193
46.800       260
46.810       273
46.820       180
46.830       193
46.840       247
46.850       220
46.860       213
46.870       227
46.880       180
46.890       247
46.900       187
46.910       180
46.920       193
46.930       173
46.940       260
46.950       160
46.960       160
46.970       193
46.980       133
46.990       153
47.000       153
47.010       140
47.020       133
47.030       173
47.040        87
47.050       133
47.060       120
47.070       127
47.080        87
47.090       153
47.100       147
47.110       160
47.120       133
47.130       133
47.140        80
47.150        87
47.160       147
47.170       133
47.180       147
47.190       140
47.200       113
47.210       140
47.220       140
47.230        87
47.240       113
47.250       127
47.260        80
47.270       113
47.280        60
47.290       107
47.300       100
47.310       167
47.320        93
47.330       120
47.340        47
47.350        80
47.360        60
47.370       127
47.380       107
47.390        53
47.400        67
47.410        53
47.420        67
47.430       107
47.440        60
47.450        60
47.460        60
47.470       100
47.480        80
47.490       127
47.500        67
47.510        73
47.520        27
47.530        60
47.540        80
47.550        80
47.560        60
47.570        67
47.580        80
47.590        20
47.600        87
47.610        40
47.620        60
47.630        87
47.640        47
47.650        60
47.660        47
47.670        80
47.680        20
47.690        67
47.700        93
47.710        47
47.720        67
47.730        53
47.740        67
47.750        47
47.760        93
47.770        73
47.780        47
47.790        33
47.800        40
47.810        73
47.820        73
47.830        40
47.840        67
47.850        67
47.860        73
47.870        60
47.880        27
47.890        40
47.900        40
47.910        40
47.920        27
47.930        53
47.940        80
47.950        53
47.960        53
47.970        27
47.980        13
47.990        60
48.000        40
48.010        33
48.020        40
48.030        67
48.040        40
48.050        40
48.060        40
48.070        40
48.080        60
48.090        40
48.100        47
48.110        47
48.120        33
48.130        40
48.140        27
48.150        27
48.160        47
48.170        13
48.180        53
48.190        33
48.200        40
48.210        53
48.220        67
48.230        27
48.240        40
48.250        80
48.260        27
48.270        20
48.280        40
48.290        40
48.300        67
48.310        60
48.320        27
48.330        27
48.340        53
48.350        27
48.360        40
48.370        20
48.380         7
48.390        53
48.400        27
48.410        47
48.420        53
48.430        20
48.440        40
48.450        20
48.460        47
48.470        33
48.480         7
48.490        87
48.500        73
48.510        27
48.520        40
48.530         7
48.540        40
48.550        33
48.560        47
48.570         7
48.580        20
48.590        33
48.600        20
48.610        33
48.620        40
48.630        13
48.640        67
48.650        53
48.660        27
48.670        40
48.680        27
48.690        33
48.700        60
48.710        27
48.720        60
48.730        40
48.740        13
48.750        33
48.760        13
48.770        47
48.780        33
48.790        33
48.800        13
48.810        13
48.820        40
48.830        13
48.840        20
48.850        40
48.860        47
48.870        13
48.880        60
48.890        53
48.900        47
48.910        13
48.920        27
48.930        40
48.940        27
48.950         0
48.960        53
48.970        47
48.980        13
48.990        20
49.000        40
49.010        47
49.020        27
49.030        47
49.040        27
49.050         0
49.060        20
49.070        33
49.080        40
49.090        47
49.100        60
49.110        73
49.120        47
49.130        13
49.140        13
49.150        33
49.160        20
49.170        33
49.180        27
49.190         0
49.200        27
49.210        13
49.220        33
49.230        13
49.240        40
49.250        67
49.260        33
49.270        20
49.280        33
49.290        20
49.300        40
49.310        33
49.320        27
49.330        27
49.340        27
49.350        27
49.360        33
49.370        20
49.380        13
49.390        53
49.400        13
49.410         7
49.420        27
49.430        27
49.440        20
49.450        33
49.460        33
49.470        40
49.480        53
49.490        33
49.500        13
49.510        47
49.520        20
49.530        27
49.540        27
49.550        13
49.560        20
49.570        40
49.580        40
49.590        13
49.600        13
49.610         7
49.620        67
49.630         7
49.640        33
49.650        20
49.660        27
49.670        13
49.680        40
49.690        40
49.700        60
49.710        27
49.720        13
49.730        33
49.740        13
49.750        53
49.760        20
49.770        27
49.780        13
49.790        20
49.800        40
49.810        20
49.820        27
49.830        40
49.840        20
49.850        20
49.860        27
49.870        20
49.880        40
49.890        47
49.900        47
49.910        67
49.920        20
49.930        20
49.940        47
49.950        47
49.960        40
49.970        47
49.980        27
49.990        20
50.000        40
50.010        33
50.020        33
50.030        27
50.040        13
50.050        27
50.060        40
50.070        27
50.080        40
50.090        20
50.100         7
50.110        20
50.120        40
50.130        53
50.140        40
50.150         0
50.160        33
50.170        27
50.180        40
50.190        27
50.200        40
50.210        20
50.220        20
50.230        20
50.240        40
50.250        53
50.260        33
50.270        13
50.280        40
50.290        20
50.300        47
50.310        40
50.320        13
50.330        20
50.340        13
50.350        40
50.360        40
50.370        33
50.380        20
50.390        40
50.400        40
50.410        60
50.420        33
50.430        47
50.440        53
50.450         7
50.460        20
50.470        33
50.480        27
50.490        47
50.500        20
50.510        20
50.520        33
50.530        27
50.540        20
50.550        20
50.560        40
50.570        20
50.580        40
50.590        13
50.600        40
50.610        13
50.620        13
50.630        33
50.640        20
50.650        20
50.660        20
50.670        27
50.680        60
50.690        40
50.700        27
50.710        40
50.720        40
50.730        27
50.740        47
50.750        20
50.760        47
50.770        47
50.780        27
50.790        53
50.800        60
50.810        67
50.820        47
50.830        60
50.840        67
50.850        33
50.860        80
50.870        73
50.880        40
50.890       120
50.900        33
50.910        60
50.920        80
50.930        73
50.940        60
50.950        33
50.960        13
50.970        60
50.980        60
50.990        60
51.000        47
51.010        73
51.020        73
51.030        80
51.040       100
51.050       107
51.060        67
51.070        53
51.080        53
51.090        40
51.100        60
51.110        53
51.120        47
51.130        73
51.140        27
51.150        80
51.160        53
51.170        80
51.180        27
51.190        33
51.200        53
51.210        53
51.220        33
51.230        47
51.240        80
51.250        80
51.260        60
51.270        33
51.280        73
51.290        53
51.300       107
51.310        27
51.320        47
51.330        53
51.340        47
51.350        47
51.360        60
51.370        53
51.380        13
51.390        40
51.400        47
51.410        73
51.420        60
51.430        73
51.440        67
51.450       100
51.460        40
51.470        67
51.480        60
51.490        20
51.500        47
51.510        47
51.520        40
51.530        73
51.540        80
51.550        47
51.560        33
51.570       100
51.580        67
51.590        73
51.600        47
51.610        33
51.620        93
51.630        73
51.640        93
51.650        93
51.660        60
51.670       113
51.680        60
51.690        60
51.700        73
51.710        93
51.720        27
51.730        73
51.740        73
51.750        67
51.760        67
51.770        87
51.780        47
51.790       100
51.800        60
51.810       100
51.820        73
51.830        33
51.840       100
51.850        73
51.860        93
51.870        60
51.880        53
51.890        87
51.900        93
51.910        67
51.920       107
51.930        93
51.940        67
51.950       100
51.960       113
51.970        80
51.980        67
51.990        80
52.000       100
52.010        73
52.020       100
52.030        93
52.040       127
52.050       100
52.060        87
52.070       127
52.080        73
52.090        80
52.100        87
52.110       113
52.120       120
52.130        80
52.140       100
52.150       127
52.160        87
52.170       127
52.180       173
52.190       113
52.200        80
52.210       127
52.220       153
52.230        67
52.240       133
52.250        93
52.260       127
52.270       107
52.280       207
52.290       153
52.300       227
52.310       240
52.320       200
52.330       267
52.340       353
52.350       313
52.360       387
52.370       240
52.380       393
52.390       373
52.400       400
52.410       407
52.420       393
52.430       466
52.440       413
52.450       480
52.460       553
52.470       626
52.480       920
52.490       933
52.500      1053
52.510      1586
52.520      1753
52.530      3165
52.540      5471
52.550      9856
52.560     13148
52.570     14221
52.580     13981
52.590     12795
52.600     11269
52.610      9589
52.620      8190
52.630      6904
52.640      5991
52.650      5758
52.660      6011
52.670      6711
52.680      8756
52.690     10689
52.700     12362
52.710     12668
52.720     11842
52.730     10629
52.740      8590
52.750      7284
52.760      5624
52.770      4398
52.780      3625
52.790      3712
52.800      2972
52.810      2959
52.820      3119
52.830      2906
52.840      2786
52.850      2779
52.860      2266
52.870      2179
52.880      1586
52.890      1233
52.900       860
52.910       733
52.920       433
52.930       407
52.940       327
52.950       320
52.960       227
52.970       287
52.980       333
52.990       253
53.000       293
53.010       307
53.020       187
53.030       187
53.040       180
53.050       213
53.060       227
53.070       167
53.080       107
53.090       193
53.100       193
53.110       100
53.120       133
53.130       147
53.140       120
53.150       127
53.160       133
53.170        93
53.180       133
53.190       120
53.200       160
53.210       120
53.220        80
53.230       113
53.240       127
53.250       133
53.260        87
53.270       187
53.280       153
53.290       113
53.300       127
53.310       113
53.320       160
53.330       167
53.340        87
53.350        67
53.360       107
53.370       173
53.380       107
53.390       107
53.400       147
53.410        87
53.420        87
53.430       107
53.440        93
53.450       120
53.460       113
53.470       140
53.480        87
53.490       100
53.500       113
53.510        87
53.520        87
53.530       107
53.540       113
53.550        80
53.560       140
53.570       127
53.580        53
53.590       127
53.600        87
53.610        80
53.620        87
53.630       100
53.640        73
53.650        80
53.660        67
53.670       100
53.680        67
53.690        33
53.700       107
53.710       127
53.720       113
53.730        80
53.740       100
53.750       147
53.760        47
53.770       127
53.780        67
53.790        73
53.800        80
53.810        47
53.820       100
53.830       107
53.840        53
53.850       133
53.860        73
53.870        87
53.880        93
53.890        47
53.900       100
53.910       100
53.920        80
53.930        87
53.940       100
53.950       127
53.960        80
53.970       100
53.980        73
53.990        67
54.000       120
54.010       120
54.020        60
54.030        80
54.040        53
54.050        80
54.060        87
54.070       100
54.080       113
54.090       100
54.100       120
54.110        87
54.120        80
54.130        67
54.140        67
54.150        80
54.160       120
54.170        60
54.180        73
54.190       113
54.200        27
54.210        73
54.220        53
54.230        40
54.240        87
54.250        40
54.260        87
54.270        60
54.280        53
54.290        47
54.300        87
54.310        33
54.320        60
54.330        73
54.340        80
54.350        73
54.360       107
54.370       100
54.380        80
54.390        87
54.400       113
54.410        67
54.420        60
54.430        47
54.440       100
54.450        80
54.460        73
54.470        87
54.480        67
54.490        60
54.500        73
54.510        73
54.520        67
54.530        53
54.540        80
54.550        60
54.560        87
54.570       100
54.580        80
54.590        87
54.600       127
54.610        87
54.620        67
54.630        93
54.640        40
54.650       113
54.660        73
54.670        73
54.680        33
54.690        40
54.700        33
54.710       133
54.720        27
54.730       140
54.740        80
54.750        40
54.760       100
54.770        67
54.780        73
54.790        60
54.800        67
54.810        80
54.820        80
54.830        93
54.840        87
54.850       113
54.860        73
54.870        80
54.880        93
54.890        93
54.900       100
54.910        40
54.920        93
54.930       100
54.940        67
54.950        67
54.960        47
54.970        80
54.980       113
54.990        53
55.000        60
55.010       140
55.020       100
55.030        40
55.040        53
55.050        80
55.060        87
55.070        40
55.080        93
55.090        67
55.100        53
55.110        93
55.120       107
55.130        93
55.140        60
55.150        93
55.160        73
55.170        53
55.180        80
55.190        47
55.200        40
55.210        93
55.220        73
55.230        60
55.240        67
55.250        67
55.260        93
55.270        80
55.280        87
55.290        87
55.300        60
55.310        93
55.320        53
55.330        93
55.340        80
55.350        80
55.360        87
55.370        60
55.380        73
55.390        53
55.400        67
55.410       107
55.420        80
55.430        93
55.440       127
55.450       100
55.460        60
55.470        80
55.480        93
55.490       100
55.500        40
55.510       100
55.520        67
55.530        80
55.540       107
55.550       107
55.560        87
55.570        80
55.580       107
55.590        27
55.600       113
55.610        40
55.620        67
55.630        40
55.640        93
55.650       113
55.660        53
55.670        53
55.680       140
55.690        47
55.700        80
55.710        47
55.720       100
55.730        80
55.740        53
55.750        80
55.760        73
55.770       113
55.780       133
55.790        67
55.800        73
55.810        20
55.820       133
55.830        60
55.840        87
55.850        73
55.860        87
55.870        80
55.880        80
55.890        67
55.900        73
55.910       100
55.920        93
55.930       107
55.940        73
55.950       100
55.960        73
55.970        60
55.980        47
55.990        53
56.000        60
56.010        73
56.020        67
56.030        87
56.040        67
56.050        87
56.060       100
56.070        60
56.080        60
56.090        27
56.100        87
56.110        73
56.120        47
56.130       120
56.140        53
56.150        47
56.160        60
56.170        67
56.180        80
56.190       120
56.200        53
56.210        67
56.220       113
56.230        33
56.240        87
56.250        60
56.260        73
56.270        67
56.280        60
56.290        93
56.300        47
56.310        80
56.320       100
56.330        87
56.340       100
56.350        73
56.360        87
56.370        87
56.380       127
56.390       100
56.400        80
56.410        93
56.420        47
56.430        67
56.440        93
56.450        53
56.460        47
56.470        47
56.480        87
56.490       120
56.500       100
56.510       100
56.520        87
56.530        80
56.540        93
56.550        47
56.560        80
56.570       100
56.580       107
56.590        80
56.600        87
56.610       127
56.620        87
56.630        47
56.640       120
56.650        87
56.660        93
56.670        67
56.680        60
56.690        67
56.700        80
56.710        80
56.720        80
56.730        73
56.740        60
56.750        60
56.760       100
56.770        80
56.780        87
56.790        73
56.800        60
56.810        60
56.820        87
56.830        67
56.840        80
56.850        73
56.860        27
56.870        73
56.880       100
56.890       140
56.900       113
56.910        80
56.920        80
56.930       133
56.940       127
56.950       140
56.960        87
56.970        67
56.980        27
56.990       100
57.000        87
57.010        87
57.020        73
57.030        67
57.040       113
57.050       147
57.060       113
57.070       107
57.080        87
57.090        93
57.100       100
57.110       113
57.120        87
57.130        93
57.140       140
57.150       107
57.160        87
57.170       133
57.180       100
57.190       100
57.200       120
57.210       153
57.220       113
57.230       127
57.240        87
57.250       127
57.260        73
57.270       120
57.280       127
57.290       100
57.300        73
57.310        80
57.320        80
57.330       107
57.340       107
57.350        67
57.360        60
57.370        60
57.380        93
57.390        53
57.400       107
57.410       140
57.420       127
57.430       100
57.440        87
57.450        60
57.460        87
57.470        80
57.480        93
57.490        80
57.500        87
57.510       107
57.520        67
57.530       120
57.540       107
57.550       100
57.560        93
57.570        87
57.580       113
57.590       127
57.600       120
57.610        73
57.620       113
57.630       127
57.640       120
57.650       140
57.660        87
57.670       127
57.680        60
57.690       120
57.700        87
57.710        80
57.720       120
57.730       120
57.740       100
57.750       127
57.760        73
57.770       167
57.780        87
57.790        93
57.800       100
57.810       140
57.820        87
57.830       113
57.840       113
57.850       133
57.860        80
57.870       113
57.880       127
57.890        93
57.900       153
57.910       107
57.920        60
57.930       127
57.940       120
57.950       133
57.960       160
57.970       147
57.980       100
57.990       167
58.000        87
58.010       120
58.020       100
58.030        47
58.040        73
58.050       113
58.060       127
58.070       133
58.080       127
58.090       100
58.100        93
58.110       127
58.120       107
58.130        73
58.140       133
58.150        73
58.160       147
58.170        93
58.180       113
58.190        87
58.200        80
58.210       107
58.220        47
58.230        93
58.240       120
58.250        67
58.260        80
58.270        93
58.280       153
58.290        80
58.300        80
58.310       127
58.320        67
58.330       167
58.340       127
58.350       107
58.360        73
58.370       133
58.380       153
58.390       140
58.400        80
58.410       167
58.420        93
58.430       120
58.440        87
58.450       100
58.460       100
58.470       133
58.480       140
58.490        80
58.500       113
58.510       100
58.520       147
58.530       120
58.540       153
58.550        93
58.560       147
58.570        93
58.580        93
58.590       113
58.600       100
58.610       113
58.620        93
58.630        67
58.640       153
58.650        87
58.660       133
58.670       127
58.680        87
58.690       113
58.700       127
58.710       140
58.720       120
58.730       113
58.740       113
58.750       127
58.760        93
58.770        53
58.780       127
58.790       127
58.800       120
58.810        67
58.820       120
58.830       127
58.840       100
58.850        93
58.860       113
58.870       133
58.880       127
58.890       160
58.900       153
58.910       113
58.920       127
58.930       133
58.940       120
58.950        93
58.960       167
58.970       153
58.980       133
58.990       107
59.000       100
59.010       127
59.020       127
59.030        87
59.040        93
59.050        87
59.060       173
59.070       160
59.080        93
59.090       100
59.100       113
59.110       127
59.120       173
59.130       100
59.140       140
59.150       113
59.160       113
59.170        93
59.180       140
59.190       100
59.200        93
59.210       133
59.220        93
59.230       160
59.240        40
59.250       127
59.260        87
59.270       107
59.280        93
59.290       107
59.300        93
59.310       160
59.320       120
59.330       100
59.340        87
59.350       153
59.360        73
59.370       113
59.380        73
59.390       147
59.400       187
59.410       107
59.420       127
59.430       113
59.440       120
59.450       100
59.460       107
59.470       127
59.480       140
59.490       153
59.500       120
59.510       140
59.520       120
59.530       180
59.540       113
59.550       147
59.560       180
59.570       173
59.580       147
59.590       133
59.600       133
59.610       133
59.620       147
59.630       140
59.640       113
59.650       113
59.660       100
59.670       120
59.680       107
59.690        93
59.700        73
59.710       147
59.720       107
59.730        93
59.740       100
59.750       147
59.760       120
59.770       140
59.780       113
59.790        80
59.800       160
59.810       127
59.820       147
59.830       153
59.840       100
59.850       133
59.860        93
59.870        87
59.880       107
59.890       113
59.900       120
59.910       100
59.920       147
59.930        87
59.940        93
59.950       107
59.960        93
59.970       187
59.980       147
59.990        33
60.000        33
