20.000        40
20.010        20
20.020        27
20.030        53
20.040        53
20.050        33
20.060        20
20.070        73
20.080        60
20.090        20
20.100        40
20.110        33
20.120        40
20.130        33
20.140        33
20.150        20
20.160        60
20.170        33
20.180        53
20.190        33
20.200        33
20.210        53
20.220        47
20.230        40
20.240        27
20.250        40
20.260        20
20.270        40
20.280        40
20.290        27
20.300        47
20.310        47
20.320        33
20.330         7
20.340        27
20.350        27
20.360        20
20.370        53
20.380        33
20.390        53
20.400        13
20.410        40
20.420        13
20.430        40
20.440        47
20.450        27
20.460        33
20.470        80
20.480        40
20.490        47
20.500        53
20.510        20
20.520        40
20.530        47
20.540        40
20.550        20
20.560        47
20.570        27
20.580        47
20.590        80
20.600        47
20.610        40
20.620        53
20.630        53
20.640        20
20.650        33
20.660        53
20.670        53
20.680        40
20.690        33
20.700        67
20.710        27
20.720        67
20.730        60
20.740        67
20.750        27
20.760        40
20.770        53
20.780        60
20.790        47
20.800        60
20.810        33
20.820        67
20.830        13
20.840        60
20.850        60
20.860        67
20.870        27
20.880        40
20.890        27
20.900        67
20.910        47
20.920        33
20.930        20
20.940        60
20.950        60
20.960        27
20.970        40
20.980        40
20.990        47
21.000        53
21.010        80
21.020        33
21.030        73
21.040        40
21.050        33
21.060        60
21.070        80
21.080        20
21.090        40
21.100        40
21.110        47
21.120        33
21.130        20
21.140        27
21.150        60
21.160        40
21.170        40
21.180        40
21.190        27
21.200        60
21.210        47
21.220        20
21.230        47
21.240        53
21.250        20
21.260        33
21.270        40
21.280        33
21.290        27
21.300        60
21.310        20
21.320        73
21.330        47
21.340        33
21.350        13
21.360        47
21.370        60
21.380        40
21.390        60
21.400        27
21.410        27
21.420        47
21.430        47
21.440        80
21.450        33
21.460        40
21.470        40
21.480        27
21.490        47
21.500        40
21.510        60
21.520        20
21.530        27
21.540        33
21.550        27
21.560        33
21.570        67
21.580        40
21.590        33
21.600        33
21.610        60
21.620         0
21.630        33
21.640        27
21.650        27
21.660        33
21.670        27
21.680        33
21.690        20
21.700        27
21.710        33
21.720        53
21.730        40
21.740        27
21.750        47
21.760        60
21.770        27
21.780        47
21.790        47
21.800        47
21.810        33
21.820        40
21.830        40
21.840        47
21.850        27
21.860        67
21.870        47
21.880        13
21.890        40
21.900        60
21.910        27
21.920        33
21.930        47
21.940        27
21.950        33
21.960        53
21.970        13
21.980        47
21.990        40
22.000        47
22.010        60
22.020        40
22.030        73
22.040        20
22.050        40
22.060        33
22.070        33
22.080        33
22.090        33
22.100        53
22.110        40
22.120        67
22.130        47
22.140        40
22.150        40
22.160        40
22.170        27
22.180        40
22.190        47
22.200        27
22.210        47
22.220        47
22.230        80
22.240        47
22.250        53
22.260        40
22.270        47
22.280        33
22.290        47
22.300        40
22.310        40
22.320        53
22.330        47
22.340        33
22.350        53
22.360        73
22.370        80
22.380        60
22.390        53
22.400        67
22.410        53
22.420        53
22.430        33
22.440        40
22.450        20
22.460        33
22.470        67
22.480        47
22.490        53
22.500        40
22.510        47
22.520        33
22.530        93
22.540        20
22.550        33
22.560        60
22.570        47
22.580        67
22.590        40
22.600        53
22.610        53
22.620        73
22.630        80
22.640        53
22.650        80
22.660        60
22.670        47
22.680       100
22.690        53
22.700        73
22.710        47
22.720        53
22.730        60
22.740        47
22.750        80
22.760        47
22.770        87
22.780        93
22.790        80
22.800       107
22.810        60
22.820        47
22.830       120
22.840        80
22.850        60
22.860        80
22.870        67
22.880        60
22.890        87
22.900        33
22.910        60
22.920        80
22.930        67
22.940        53
22.950        20
22.960       107
22.970        47
22.980        33
22.990        13
23.000        40
23.010        40
23.020        60
23.030        20
23.040        60
23.050        20
23.060        47
23.070        60
23.080        33
23.090        47
23.100        27
23.110        47
23.120        47
23.130        53
23.140        33
23.150        20
23.160        13
23.170        20
23.180        33
23.190        40
23.200        47
23.210        33
23.220        20
23.230        20
23.240        53
23.250        47
23.260        27
23.270        67
23.280         7
23.290        33
23.300        27
23.310        47
23.320        27
23.330        47
23.340        13
23.350        67
23.360        53
23.370        47
23.380        47
23.390        13
23.400        47
23.410        13
23.420        13
23.430        20
23.440        53
23.450        47
23.460        20
23.470        33
23.480        20
23.490        40
23.500        40
23.510        53
23.520        60
23.530        53
23.540        13
23.550        20
23.560        20
23.570         7
23.580        27
23.590        20
23.600         7
23.610        20
23.620        27
23.630        27
23.640        47
23.650        27
23.660        33
23.670        47
23.680        33
23.690        47
23.700        47
23.710        33
23.720        27
23.730        27
23.740        40
23.750        27
23.760        27
23.770        40
23.780        40
23.790        27
23.800        20
23.810        40
23.820        27
23.830         0
23.840         7
23.850        60
23.860        40
23.870        40
23.880        53
23.890        27
23.900        20
23.910        53
23.920        27
23.930        33
23.940        27
23.950        20
23.960         7
23.970        40
23.980        33
23.990        20
24.000        40
24.010        20
24.020        33
24.030        53
24.040        40
24.050        13
24.060        27
24.070        20
24.080         0
24.090        33
24.100        33
24.110        33
24.120        27
24.130        27
24.140        33
24.150        47
24.160        40
24.170        40
24.180        40
24.190        40
24.200        47
24.210        60
24.220        33
24.230        27
24.240        40
24.250        33
24.260        53
24.270        40
24.280        40
24.290        40
24.300        33
24.310        67
24.320        33
24.330        53
24.340        40
24.350        60
24.360        33
24.370        47
24.380        27
24.390        40
24.400        20
24.410        33
24.420        33
24.430        67
24.440        27
24.450        33
24.460        47
24.470        33
24.480        20
24.490        27
24.500        20
24.510        27
24.520        20
24.530        20
24.540         7
24.550        33
24.560        27
24.570        40
24.580        27
24.590        40
24.600        13
24.610        20
24.620        53
24.630        33
24.640        67
24.650         7
24.660        13
24.670        13
24.680        60
24.690        27
24.700        20
24.710        40
24.720        27
24.730        33
24.740        27
24.750        47
24.760        40
24.770        33
24.780        33
24.790        40
24.800        47
24.810        13
24.820        40
24.830        27
24.840        40
24.850        33
24.860        27
24.870         0
24.880        20
24.890        20
24.900        40
24.910        67
24.920        20
24.930        27
24.940        33
24.950        33
24.960        20
24.970        33
24.980        40
24.990        20
25.000        20
25.010        13
25.020        40
25.030        47
25.040        27
25.050        40
25.060        20
25.070         7
25.080        33
25.090        47
25.100        47
25.110        20
25.120        60
25.130        53
25.140        33
25.150        40
25.160        27
25.170        27
25.180        47
25.190        27
25.200        20
25.210        60
25.220        40
25.230         7
25.240        40
25.250        27
25.260        13
25.270        33
25.280        33
25.290        13
25.300        53
25.310        53
25.320         7
25.330        47
25.340        33
25.350        33
25.360        20
25.370        53
25.380        67
25.390        33
25.400        53
25.410        67
25.420        67
25.430        80
25.440        40
25.450       100
25.460        60
25.470       113
25.480        47
25.490       100
25.500       127
25.510       100
25.520       107
25.530        87
25.540        80
25.550        93
25.560        80
25.570       147
25.580        67
25.590       100
25.600       107
25.610        80
25.620        27
25.630        40
25.640        53
25.650        87
25.660        67
25.670        67
25.680        33
25.690        73
25.700        73
25.710        73
25.720        47
25.730        53
25.740        60
25.750        47
25.760        47
25.770        47
25.780        33
25.790        27
25.800        53
25.810        40
25.820        47
25.830        53
25.840        47
25.850        27
25.860        40
25.870        27
25.880        33
25.890        20
25.900        33
25.910        33
25.920        27
25.930        33
25.940        20
25.950        33
25.960        33
25.970        47
25.980        27
25.990        27
26.000        20
26.010        33
26.020        33
26.030        20
26.040        33
26.050        27
26.060         7
26.070         7
26.080        20
26.090        40
26.100         7
26.110        33
26.120        33
26.130        33
26.140        27
26.150        53
26.160        40
26.170        40
26.180        33
26.190        13
26.200        20
26.210        60
26.220        20
26.230         7
26.240        27
26.250        33
26.260        40
26.270        20
26.280        40
26.290        33
26.300        20
26.310         7
26.320        27
26.330        20
26.340        40
26.350        13
26.360        33
26.370        40
26.380        33
26.390        47
26.400        40
26.410        33
26.420        20
26.430        33
26.440        27
26.450        20
26.460        40
26.470        27
26.480        27
26.490        47
26.500        20
26.510         7
26.520        27
26.530        27
26.540        20
26.550         7
26.560        33
26.570        40
26.580        20
26.590        20
26.600        40
26.610        20
26.620        20
26.630         7
26.640        20
26.650        40
26.660        27
26.670        33
26.680        47
26.690        40
26.700        33
26.710        47
26.720        20
26.730        13
26.740        40
26.750        40
26.760        40
26.770         0
26.780        20
26.790        27
26.800        27
26.810        13
26.820        40
26.830        20
26.840        40
26.850        13
26.860        27
26.870        47
26.880        27
26.890        47
26.900        47
26.910        27
26.920        47
26.930        27
26.940        47
26.950        20
26.960         0
26.970        27
26.980        27
26.990        20
27.000        33
27.010        40
27.020        27
27.030        33
27.040        27
27.050        20
27.060        20
27.070        20
27.080        33
27.090        53
27.100        20
27.110        20
27.120        13
27.130        47
27.140         7
27.150        53
27.160        27
27.170        27
27.180        20
27.190        67
27.200        27
27.210        13
27.220         0
27.230        27
27.240        20
27.250        13
27.260        40
27.270        27
27.280        27
27.290        47
27.300        27
27.310        40
27.320        27
27.330        40
27.340        13
27.350        27
27.360        27
27.370        40
27.380        13
27.390        40
27.400        33
27.410        13
27.420        53
27.430        40
27.440        53
27.450        40
27.460        40
27.470        27
27.480        33
27.490        47
27.500        33
27.510        40
27.520        27
27.530        67
27.540        27
27.550        40
27.560        40
27.570        27
27.580        33
27.590        53
27.600        20
27.610        20
27.620        13
27.630        40
27.640        40
27.650        40
27.660        40
27.670        33
27.680        27
27.690        20
27.700        33
27.710        20
27.720        40
27.730        40
27.740        47
27.750         7
27.760         7
27.770        33
27.780        27
27.790        40
27.800        33
27.810         7
27.820        27
27.830        53
27.840        47
27.850         7
27.860        20
27.870        47
27.880        33
27.890        27
27.900        40
27.910        27
27.920        33
27.930        80
27.940        33
27.950        47
27.960        40
27.970        33
27.980        33
27.990        67
28.000        53
28.010        27
28.020        87
28.030        33
28.040        60
28.050        47
28.060        53
28.070        33
28.080        47
28.090        40
28.100        27
28.110        40
28.120        47
28.130        40
28.140        40
28.150        53
28.160        20
28.170        33
28.180        47
28.190        60
28.200        40
28.210        40
28.220        27
28.230        33
28.240        87
28.250        53
28.260        33
28.270        40
28.280        60
28.290        27
28.300        60
28.310        47
28.320        60
28.330        60
28.340        33
28.350        53
28.360        53
28.370        33
28.380        67
28.390        53
28.400        80
28.410        80
28.420        53
28.430        40
28.440        53
28.450        60
28.460        53
28.470        47
28.480        73
28.490        80
28.500        40
28.510        53
28.520        73
28.530       100
28.540        93
28.550        47
28.560       100
28.570        87
28.580       120
28.590       127
28.600       120
28.610       127
28.620       213
28.630       153
28.640        80
28.650       200
28.660       107
28.670       133
28.680       140
28.690       140
28.700       140
28.710       147
28.720       173
28.730       100
28.740       140
28.750       213
28.760       220
28.770       153
28.780       127
28.790       193
28.800       193
28.810       187
28.820       287
28.830       140
28.840       160
28.850       227
28.860       207
28.870       127
28.880       147
28.890       180
28.900       180
28.910       287
28.920       160
28.930       153
28.940       173
28.950       200
28.960       193
28.970       187
28.980       160
28.990       207
29.000       140
29.010       193
29.020       133
29.030       147
29.040       160
29.050       173
29.060       153
29.070       147
29.080       140
29.090       133
29.100       127
29.110        80
29.120       127
29.130        80
29.140       120
29.150       100
29.160       113
29.170       107
29.180        93
29.190       113
29.200       120
29.210       127
29.220        93
29.230       107
29.240        67
29.250        73
29.260        53
29.270       140
29.280        87
29.290       107
29.300       113
29.310       113
29.320        87
29.330        73
29.340       100
29.350        53
29.360        87
29.370        93
29.380       120
29.390        93
29.400        87
29.410       133
29.420        73
29.430       127
29.440       100
29.450       127
29.460       133
29.470       127
29.480       107
29.490        80
29.500       107
29.510        93
29.520       100
29.530       113
29.540        93
29.550        67
29.560        93
29.570       133
29.580       113
29.590        80
29.600       100
29.610        93
29.620        87
29.630        60
29.640        93
29.650        53
29.660        60
29.670        80
29.680        47
29.690        60
29.700        33
29.710        53
29.720        67
29.730        27
29.740        60
29.750        53
29.760        47
29.770        33
29.780        80
29.790        53
29.800        27
29.810        47
29.820        27
29.830        67
29.840        13
29.850        53
29.860        40
29.870        60
29.880        60
29.890        67
29.900        33
29.910        47
29.920        13
29.930        40
29.940        40
29.950        33
29.960        60
29.970        27
29.980        20
29.990        60
30.000        33
30.010        33
30.020        60
30.030        40
30.040        40
30.050        47
30.060        27
30.070        33
30.080        20
30.090        33
30.100        33
30.110        53
30.120        60
30.130        27
30.140        47
30.150        53
30.160        13
30.170        47
30.180        20
30.190        33
30.200        53
30.210        20
30.220        13
30.230        47
30.240        53
30.250        13
30.260        67
30.270        53
30.280        27
30.290        67
30.300        67
30.310        47
30.320        13
30.330        33
30.340        53
30.350        73
30.360        60
30.370        47
30.380        53
30.390        67
30.400        47
30.410        27
30.420        47
30.430        80
30.440        73
30.450        73
30.460        13
30.470        27
30.480        60
30.490        87
30.500        53
30.510        53
30.520        47
30.530        53
30.540        20
30.550        47
30.560        53
30.570        60
30.580        27
30.590        60
30.600        47
30.610        33
30.620        47
30.630        67
30.640        33
30.650        53
30.660        47
30.670       100
30.680        33
30.690        60
30.700        20
30.710        87
30.720        53
30.730        47
30.740        53
30.750        20
30.760        67
30.770        27
30.780        93
30.790        60
30.800        40
30.810        47
30.820        53
30.830        60
30.840        33
30.850        27
30.860        67
30.870        33
30.880        40
30.890        47
30.900        73
30.910        47
30.920        53
30.930        60
30.940        33
30.950        47
30.960        20
30.970        27
30.980        60
30.990        53
31.000        40
31.010        27
31.020        47
31.030        80
31.040        47
31.050        33
31.060        27
31.070        47
31.080        27
31.090        20
31.100        27
31.110        47
31.120        93
31.130        33
31.140        33
31.150        73
31.160        33
31.170        67
31.180        53
31.190        40
31.200        60
31.210        47
31.220        60
31.230        33
31.240        33
31.250        40
31.260        60
31.270        47
31.280        33
31.290        27
31.300        27
31.310        40
31.320       107
31.330        33
31.340        53
31.350        33
31.360        47
31.370        40
31.380        40
31.390        20
31.400         7
31.410        33
31.420        20
31.430        40
31.440        47
31.450        47
31.460         7
31.470        40
31.480        33
31.490        40
31.500        33
31.510        27
31.520        13
31.530        40
31.540        20
31.550        20
31.560        47
31.570        33
31.580        67
31.590        27
31.600        33
31.610        40
31.620        27
31.630        40
31.640        73
31.650         7
31.660        40
31.670        33
31.680        40
31.690        33
31.700        27
31.710        40
31.720        33
31.730        40
31.740        33
31.750        33
31.760        40
31.770        27
31.780        13
31.790        47
31.800        33
31.810        20
31.820        20
31.830        13
31.840        33
31.850        40
31.860        40
31.870         0
31.880        47
31.890        40
31.900        33
31.910        33
31.920        60
31.930        27
31.940        20
31.950        40
31.960        20
31.970       100
31.980        40
31.990        53
32.000        40
32.010        60
32.020        73
32.030        33
32.040        53
32.050        53
32.060        67
32.070        60
32.080        60
32.090        80
32.100        40
32.110        67
32.120        33
32.130        40
32.140        47
32.150        40
32.160        67
32.170        67
32.180        27
32.190        33
32.200        33
32.210        67
32.220        33
32.230        53
32.240        13
32.250        27
32.260        27
32.270        33
32.280        47
32.290        60
32.300        40
32.310        73
32.320        40
32.330        33
32.340        60
32.350        33
32.360        67
32.370        27
32.380        60
32.390        60
32.400        13
32.410        47
32.420        67
32.430        33
32.440        87
32.450        40
32.460        73
32.470        67
32.480        40
32.490        40
32.500        40
32.510        27
32.520        67
32.530        53
32.540        27
32.550        40
32.560        27
32.570        60
32.580        67
32.590        27
32.600        47
32.610        20
32.620        40
32.630        60
32.640        47
32.650        33
32.660        13
32.670        27
32.680        40
32.690        13
32.700        47
32.710        33
32.720        33
32.730        13
32.740         7
32.750        13
32.760        47
32.770        20
32.780        33
32.790        20
32.800        20
32.810        40
32.820        27
32.830         0
32.840        20
32.850        20
32.860        67
32.870        33
32.880        27
32.890         7
32.900        13
32.910        20
32.920        20
32.930        27
32.940        33
32.950        27
32.960         7
32.970         0
32.980        33
32.990        27
33.000        27
33.010        20
33.020        20
33.030        27
33.040        27
33.050        13
33.060        33
33.070        13
33.080         7
33.090        27
33.100        13
33.110        33
33.120        33
33.130        13
33.140        13
33.150        20
33.160        33
33.170        13
33.180        33
33.190        33
33.200        20
33.210        33
33.220        33
33.230        67
33.240        20
33.250         0
33.260        13
33.270        27
33.280        20
33.290        40
33.300        13
33.310        27
33.320        20
33.330        13
33.340        20
33.350        13
33.360        27
33.370         7
33.380        13
33.390        13
33.400        40
33.410        13
33.420        33
33.430        20
33.440        27
33.450        13
33.460        20
33.470        20
33.480        20
33.490        40
33.500        27
33.510        20
33.520        13
33.530        27
33.540         7
33.550        20
33.560        13
33.570        40
33.580        33
33.590        13
33.600        20
33.610         0
33.620        20
33.630        13
33.640        13
33.650        20
33.660        27
33.670        20
33.680        20
33.690        33
33.700        40
33.710        27
33.720        27
33.730        27
33.740         0
33.750        13
33.760        20
33.770        13
33.780        27
33.790        13
33.800        20
33.810        27
33.820        20
33.830        20
33.840        20
33.850        27
33.860        27
33.870        47
33.880        13
33.890        20
33.900        27
33.910        13
33.920        33
33.930        47
33.940        47
33.950        13
33.960        20
33.970        27
33.980        20
33.990        13
34.000        13
34.010        47
34.020        13
34.030        13
34.040        13
34.050        33
34.060        33
34.070        33
34.080        33
34.090        33
34.100        20
34.110        40
34.120        20
34.130        27
34.140        13
34.150         7
34.160        20
34.170         7
34.180        20
34.190        27
34.200        33
34.210        33
34.220        20
34.230        27
34.240        13
34.250        13
34.260        27
34.270        53
34.280        60
34.290         0
34.300         7
34.310        20
34.320        33
34.330         7
34.340        33
34.350        20
34.360        27
34.370        20
34.380        20
34.390        33
34.400        20
34.410        20
34.420        20
34.430        27
34.440        33
34.450        20
34.460        33
34.470         7
34.480        20
34.490        13
34.500        13
34.510        40
34.520        20
34.530        13
34.540        40
34.550        20
34.560        13
34.570        13
34.580        13
34.590         7
34.600        20
34.610        27
34.620        20
34.630        40
34.640        40
34.650         0
34.660        20
34.670        33
34.680        33
34.690        20
34.700        20
34.710        60
34.720        33
34.730        33
34.740        33
34.750        13
34.760         7
34.770        27
34.780        33
34.790         7
34.800        13
34.810        20
34.820        20
34.830        33
34.840        40
34.850        33
34.860        33
34.870        27
34.880        47
34.890        13
34.900        20
34.910        73
34.920        27
34.930        40
34.940        60
34.950        33
34.960        40
34.970        47
34.980        53
34.990       100
35.000        73
35.010        73
35.020        93
35.030        80
35.040       133
35.050       107
35.060       193
35.070       173
35.080       187
35.090       153
35.100       153
35.110       167
35.120       200
35.130       167
35.140       247
35.150       167
35.160       153
35.170       113
35.180        87
35.190        87
35.200        87
35.210       107
35.220       100
35.230       107
35.240        60
35.250        67
35.260        60
35.270        27
35.280        33
35.290        20
35.300        27
35.310        47
35.320        53
35.330        40
35.340         7
35.350         7
35.360        53
35.370        20
35.380        40
35.390        33
35.400        33
35.410        27
35.420        27
35.430        47
35.440        33
35.450        47
35.460         0
35.470        13
35.480        13
35.490         7
35.500        13
35.510        13
35.520        60
35.530        27
35.540        33
35.550        33
35.560        53
35.570        27
35.580        13
35.590        27
35.600         7
35.610         7
35.620        20
35.630        20
35.640        27
35.650        27
35.660         7
35.670        47
35.680        27
35.690        27
35.700        27
35.710         7
35.720        13
35.730        13
35.740        20
35.750        33
35.760        40
35.770        20
35.780         0
35.790         0
35.800        27
35.810         7
35.820        33
35.830        20
35.840        20
35.850        80
35.860        53
35.870        20
35.880        40
35.890        20
35.900        20
35.910        33
35.920        33
35.930        13
35.940        40
35.950        13
35.960        27
35.970        27
35.980        40
35.990        47
36.000        33
36.010        13
36.020        20
36.030        33
36.040        47
36.050        33
36.060        13
36.070        20
36.080        13
36.090        53
36.100        27
36.110        40
36.120        33
36.130        27
36.140        27
36.150         7
36.160        27
36.170        40
36.180        20
36.190        53
36.200        27
36.210        20
36.220        27
36.230        20
36.240        13
36.250        27
36.260         7
36.270        20
36.280        20
36.290        13
36.300        13
36.310        20
36.320        27
36.330        27
36.340        27
36.350        67
36.360         0
36.370         7
36.380        13
36.390        47
36.400        13
36.410        33
36.420        13
36.430        20
36.440        13
36.450        20
36.460        33
36.470        40
36.480        60
36.490         7
36.500        27
36.510        27
36.520        33
36.530        33
36.540        13
36.550        33
36.560        13
36.570        33
36.580        13
36.590        27
36.600        20
36.610        47
36.620        20
36.630        13
36.640        13
36.650        33
36.660        13
36.670        33
36.680        27
36.690        33
36.700        33
36.710        20
36.720        27
36.730        20
36.740        33
36.750        47
36.760        53
36.770        33
36.780        27
36.790        33
36.800        27
36.810        40
36.820        20
36.830         7
36.840        27
36.850        60
36.860        27
36.870         7
36.880        40
36.890        67
36.900        20
36.910        33
36.920        13
36.930        40
36.940        20
36.950        13
36.960        20
36.970        20
36.980        53
36.990        27
37.000        33
37.010        27
37.020        33
37.030        27
37.040        40
37.050        20
37.060        40
37.070        33
37.080        13
37.090        13
37.100         7
37.110        33
37.120        20
37.130        40
37.140        33
37.150        20
37.160        20
37.170        13
37.180         7
37.190        33
37.200        20
37.210        27
37.220        27
37.230        33
37.240        40
37.250        47
37.260        20
37.270        27
37.280        33
37.290        13
37.300        20
37.310         0
37.320        13
37.330        27
37.340        20
37.350        27
37.360        40
37.370        13
37.380        27
37.390        13
37.400        33
37.410        13
37.420        20
37.430        33
37.440        13
37.450        27
37.460        40
37.470        20
37.480        13
37.490        27
37.500        20
37.510        33
37.520        27
37.530        33
37.540        27
37.550        13
37.560        53
37.570        27
37.580        27
37.590        27
37.600        27
37.610         7
37.620        33
37.630        47
37.640        20
37.650         7
37.660        27
37.670        33
37.680        47
37.690        80
37.700        67
37.710        93
37.720        67
37.730        40
37.740        20
37.750        47
37.760        67
37.770        40
37.780        33
37.790        33
37.800        33
37.810        40
37.820         7
37.830        40
37.840        27
37.850        27
37.860        67
37.870        33
37.880         7
37.890        33
37.900         7
37.910        20
37.920        53
37.930        27
37.940        13
37.950        33
37.960         7
37.970         7
37.980        13
37.990        27
38.000        20
38.010        27
38.020        13
38.030        13
38.040        33
38.050        13
38.060        27
38.070        47
38.080        20
38.090        13
38.100         7
38.110        20
38.120        40
38.130        20
38.140        33
38.150        27
38.160         7
38.170        20
38.180        13
38.190        20
38.200        20
38.210        20
38.220        20
38.230        27
38.240        27
38.250        20
38.260        13
38.270        20
38.280        33
38.290        27
38.300        13
38.310         7
38.320        13
38.330        13
38.340        20
38.350        33
38.360        20
38.370         7
38.380        33
38.390        13
38.400        47
38.410        20
38.420        27
38.430        27
38.440         7
38.450        47
38.460         7
38.470        33
38.480         7
38.490        27
38.500        20
38.510        27
38.520        13
38.530        13
38.540         7
38.550        27
38.560        20
38.570        13
38.580        27
38.590        13
38.600        20
38.610        33
38.620        20
38.630        20
38.640        33
38.650        13
38.660        27
38.670        13
38.680         7
38.690         0
38.700         7
38.710        27
38.720        13
38.730         0
38.740        20
38.750        20
38.760        27
38.770        47
38.780        20
38.790        13
38.800        13
38.810        13
38.820        13
38.830        47
38.840        20
38.850        53
38.860         7
38.870        27
38.880        20
38.890        13
38.900        33
38.910         7
38.920        13
38.930        20
38.940        40
38.950        40
38.960        33
38.970        13
38.980        33
38.990        20
39.000        27
39.010        13
39.020        33
39.030        33
39.040        13
39.050         7
39.060        13
39.070        33
39.080        20
39.090        20
39.100        27
39.110        27
39.120        27
39.130        27
39.140        53
39.150        20
39.160        13
39.170         7
39.180        13
39.190        20
39.200        33
39.210        20
39.220        20
39.230        33
39.240        27
39.250         7
39.260        27
39.270        13
39.280        13
39.290        13
39.300        27
39.310         7
39.320        33
39.330        27
39.340        20
39.350        27
39.360        13
39.370        27
39.380        27
39.390        20
39.400        33
39.410        20
39.420        47
39.430         7
39.440        27
39.450        20
39.460         7
39.470         7
39.480        40
39.490        27
39.500        13
39.510         7
39.520        13
39.530        33
39.540        33
39.550        20
39.560        60
39.570        20
39.580        27
39.590        20
39.600        13
39.610        20
39.620         7
39.630        27
39.640         0
39.650        20
39.660         7
39.670         7
39.680        33
39.690        33
39.700        40
39.710        20
39.720         7
39.730        13
39.740        53
39.750        60
39.760         0
39.770        20
39.780        20
39.790        33
39.800        47
39.810        20
39.820         7
39.830        40
39.840         7
39.850        20
39.860        27
39.870        33
39.880        20
39.890        13
39.900        27
39.910         7
39.920        27
39.930        33
39.940        27
39.950        27
39.960        33
39.970        27
39.980         7
39.990        33
40.000        13
40.010         0
40.020        20
40.030         7
40.040        27
40.050        20
40.060        13
40.070        27
40.080        53
40.090        13
40.100        40
40.110        27
40.120        33
40.130        33
40.140        13
40.150         0
40.160        40
40.170        20
40.180        27
40.190        47
40.200        20
40.210        53
40.220         7
40.230        33
40.240        33
40.250        40
40.260        20
40.270        33
40.280        13
40.290        27
40.300        40
40.310        33
40.320        20
40.330        27
40.340        27
40.350        13
40.360        20
40.370        20
40.380        33
40.390         7
40.400        13
40.410        33
40.420        27
40.430        13
40.440        33
40.450         7
40.460        40
40.470        27
40.480        33
40.490        20
40.500        20
40.510        33
40.520        47
40.530        33
40.540        13
40.550        20
40.560        20
40.570        33
40.580        27
40.590        20
40.600        20
40.610        40
40.620        27
40.630        27
40.640        33
40.650        13
40.660        27
40.670        33
40.680        27
40.690        40
40.700        40
40.710        40
40.720        27
40.730        27
40.740        27
40.750        13
40.760        13
40.770        13
40.780        27
40.790        33
40.800        20
40.810        13
40.820        27
40.830        40
40.840         7
40.850        33
40.860         7
40.870        27
40.880        33
40.890        20
40.900        33
40.910        47
40.920        27
40.930        33
40.940        33
40.950        27
40.960        13
40.970        33
40.980        13
40.990         7
41.000        27
41.010        13
41.020        40
41.030         7
41.040        33
41.050        13
41.060        20
41.070         7
41.080        20
41.090        13
41.100        20
41.110        27
41.120        20
41.130        20
41.140        20
41.150        33
41.160        13
41.170        20
41.180        20
41.190        27
41.200        20
41.210         7
41.220         7
41.230        13
41.240        20
41.250         7
41.260        33
41.270        20
41.280        27
41.290         7
41.300        27
41.310         7
41.320        27
41.330        40
41.340        27
41.350        13
41.360        27
41.370        13
41.380        27
41.390        27
41.400        33
41.410        33
41.420        53
41.430        47
41.440        20
41.450        40
41.460        20
41.470        47
41.480        20
41.490        40
41.500        27
41.510        47
41.520        53
41.530        13
41.540        33
41.550        40
41.560        47
41.570        27
41.580        53
41.590        53
41.600        60
41.610        87
41.620        87
41.630        80
41.640       100
41.650        80
41.660        87
41.670       100
41.680        47
41.690        60
41.700        80
41.710        33
41.720        33
41.730        80
41.740        80
41.750        80
41.760        67
41.770        33
41.780        73
41.790        40
41.800         7
41.810        47
41.820        40
41.830        27
41.840        13
41.850        27
41.860        27
41.870        33
41.880        20
41.890        33
41.900        20
41.910        27
41.920        27
41.930        20
41.940        47
41.950        33
41.960         7
41.970        27
41.980        40
41.990        27
42.000        40
42.010        60
42.020        27
42.030        33
42.040        27
42.050        27
42.060        13
42.070        27
42.080         7
42.090        27
42.100        27
42.110        33
42.120        20
42.130        13
42.140        33
42.150        20
42.160        27
42.170        33
42.180        40
42.190        27
42.200         7
42.210        27
42.220        27
42.230        27
42.240        27
42.250        33
42.260        47
42.270        13
42.280        27
42.290        47
42.300        53
42.310        13
42.320        20
42.330        47
42.340        40
42.350        27
42.360        20
42.370        27
42.380        20
42.390        40
42.400        33
42.410        20
42.420        27
42.430        40
42.440        27
42.450        20
42.460        13
42.470        40
42.480         7
42.490        33
42.500        13
42.510        27
42.520        33
42.530        40
42.540        20
42.550        13
42.560        20
42.570        13
42.580        60
42.590        20
42.600        13
42.610        20
42.620        27
42.630        40
42.640        40
42.650        40
42.660        13
42.670        20
42.680        20
42.690        20
42.700        13
42.710        20
42.720        33
42.730        33
42.740        33
42.750        27
42.760        27
42.770        40
42.780        27
42.790        40
42.800        27
42.810        13
42.820        33
42.830        20
42.840        27
42.850        33
42.860        20
42.870         0
42.880        27
42.890        27
42.900        27
42.910        33
42.920        27
42.930        20
42.940        20
42.950        33
42.960         7
42.970        20
42.980        20
42.990        47
43.000        60
43.010        20
43.020       207
43.030        13
43.040        13
43.050        53
43.060        13
43.070        13
43.080        40
43.090        20
43.100        33
43.110        40
43.120        33
43.130        33
43.140         7
43.150        47
43.160        33
43.170        47
43.180        67
43.190        27
43.200        27
43.210        60
43.220        27
43.230        40
43.240        47
43.250        60
43.260        73
43.270        67
43.280        93
43.290       100
43.300       147
43.310       107
43.320       147
43.330       140
43.340       193
43.350       180
43.360       160
43.370       153
43.380       127
43.390        93
43.400       100
43.410        40
43.420        53
43.430        53
43.440       113
43.450        73
43.460        73
43.470       113
43.480        67
43.490       113
43.500        53
43.510        67
43.520        20
43.530        40
43.540        27
43.550        13
43.560        27
43.570         0
43.580        40
43.590        13
43.600        20
43.610        13
43.620        47
43.630        40
43.640        13
43.650        20
43.660        40
43.670         7
43.680        27
43.690         0
43.700        13
43.710        13
43.720        20
43.730        40
43.740        53
43.750        13
43.760        13
43.770        20
43.780        33
43.790        20
43.800        40
43.810        33
43.820        47
43.830        33
43.840        13
43.850        27
43.860        13
43.870        27
43.880        47
43.890        20
43.900        20
43.910        13
43.920        40
43.930        20
43.940        27
43.950        47
43.960        27
43.970        13
43.980        47
43.990         7
44.000        33
44.010        20
44.020        33
44.030        40
44.040        13
44.050        27
44.060         7
44.070        60
44.080        40
44.090        40
44.100        27
44.110        33
44.120        40
44.130        33
44.140        13
44.150        13
44.160        13
44.170        20
44.180        20
44.190        20
44.200        27
44.210        20
44.220        47
44.230        20
44.240        20
44.250        47
44.260        20
44.270        47
44.280        20
44.290        13
44.300        20
44.310        13
44.320        40
44.330        27
44.340        33
44.350        40
44.360        27
44.370        20
44.380        20
44.390         7
44.400        27
44.410         7
44.420        47
44.430        27
44.440        20
44.450        13
44.460        27
44.470        33
44.480        40
44.490        33
44.500        33
44.510        20
44.520        33
44.530        27
44.540        20
44.550        20
44.560        53
44.570        20
44.580        13
44.590        13
44.600        27
44.610        27
44.620        27
44.630        33
44.640        27
44.650        13
44.660        60
44.670        13
44.680        53
44.690        20
44.700        20
44.710         7
44.720        20
44.730        20
44.740        40
44.750         7
44.760        40
44.770         7
44.780        20
44.790        13
44.800         7
44.810        27
44.820        33
44.830        20
44.840        47
44.850        33
44.860        33
44.870        13
44.880        20
44.890        27
44.900        40
44.910        27
44.920        27
44.930        13
44.940        20
44.950        13
44.960         7
44.970         7
44.980        27
44.990        33
45.000        13
45.010        47
45.020         7
45.030        40
45.040         7
45.050        33
45.060        33
45.070        53
45.080        13
45.090        13
45.100        33
45.110        33
45.120        40
45.130        47
45.140         7
45.150        33
45.160        13
45.170         0
45.180        33
45.190        20
45.200         7
45.210        53
45.220        13
45.230        33
45.240         7
45.250        20
45.260        20
45.270        47
45.280        47
45.290        33
45.300        20
45.310        47
45.320        27
45.330        20
45.340        27
45.350         0
45.360        33
45.370        13
45.380        13
45.390        27
45.400        20
45.410        27
45.420        13
45.430        20
45.440        27
45.450        27
45.460         7
45.470         7
45.480        27
45.490        40
45.500        40
45.510        33
45.520        20
45.530         7
45.540        33
45.550        33
45.560        40
45.570        20
45.580        33
45.590        20
45.600        27
45.610        13
45.620        20
45.630         7
45.640        27
45.650        33
45.660        60
45.670         7
45.680        27
45.690        20
45.700        27
45.710        47
45.720        27
45.730         0
45.740        53
45.750        13
45.760        33
45.770        47
45.780        47
45.790        73
45.800        27
45.810        47
45.820        27
45.830        33
45.840        40
45.850        20
45.860        27
45.870        33
45.880        73
45.890        33
45.900        27
45.910        27
45.920        60
45.930        13
45.940        47
45.950        47
45.960        53
45.970        20
45.980        13
45.990        53
46.000        33
46.010        40
46.020        40
46.030        27
46.040        33
46.050        27
46.060        47
46.070        40
46.080        27
46.090        53
46.100        47
46.110        67
46.120        53
46.130        47
46.140        73
46.150        87
46.160        87
46.170        40
46.180        47
46.190        47
46.200        27
46.210        27
46.220        20
46.230        27
46.240        33
46.250        40
46.260        53
46.270        60
46.280        60
46.290        53
46.300        40
46.310        27
46.320        20
46.330        13
46.340        53
46.350        27
46.360        33
46.370        27
46.380        13
46.390        67
46.400        40
46.410        20
46.420        27
46.430        60
46.440        53
46.450         7
46.460        27
46.470        33
46.480        67
46.490        13
46.500         7
46.510        27
46.520        33
46.530        13
46.540        20
46.550        20
46.560        67
46.570        13
46.580        20
46.590        40
46.600        53
46.610        47
46.620        27
46.630        53
46.640        67
46.650        33
46.660        60
46.670        47
46.680        47
46.690        40
46.700        33
46.710        60
46.720        73
46.730        73
46.740        60
46.750        47
46.760        40
46.770        40
46.780        33
46.790        60
46.800        67
46.810        47
46.820        67
46.830        33
46.840        60
46.850        20
46.860        33
46.870        40
46.880        60
46.890        53
46.900        33
46.910        27
46.920        73
46.930        33
46.940        40
46.950        33
46.960        40
46.970        47
46.980        47
46.990        33
47.000        33
47.010        27
47.020        60
47.030        20
47.040        27
47.050        27
47.060        20
47.070        27
47.080        13
47.090        53
47.100        20
47.110        13
47.120        47
47.130        13
47.140        13
47.150        20
47.160        33
47.170        27
47.180        33
47.190         7
47.200        33
47.210        27
47.220         7
47.230        20
47.240        20
47.250        27
47.260        20
47.270        13
47.280        53
47.290        13
47.300        20
47.310        27
47.320        33
47.330        27
47.340        13
47.350        13
47.360         7
47.370        20
47.380        13
47.390        13
47.400        20
47.410        20
47.420        33
47.430        27
47.440        20
47.450        20
47.460        27
47.470        20
47.480        33
47.490        27
47.500        20
47.510        27
47.520         7
47.530        27
47.540        13
47.550        40
47.560        13
47.570         0
47.580        33
47.590        33
47.600        20
47.610        40
47.620        13
47.630        13
47.640         7
47.650        20
47.660        20
47.670        20
47.680        13
47.690        13
47.700         7
47.710         7
47.720        27
47.730        13
47.740        20
47.750        47
47.760         7
47.770        33
47.780         0
47.790         7
47.800        13
47.810        27
47.820        13
47.830         7
47.840        20
47.850        20
47.860        20
47.870        40
47.880         0
47.890        20
47.900        20
47.910        27
47.920        13
47.930        20
47.940        20
47.950        27
47.960        13
47.970         7
47.980        27
47.990        20
48.000        27
48.010        20
48.020        27
48.030        13
48.040        27
48.050        20
48.060         0
48.070        13
48.080        20
48.090        13
48.100        20
48.110        13
48.120         0
48.130        27
48.140        13
48.150        27
48.160        13
48.170         7
48.180        13
48.190        20
48.200        33
48.210         7
48.220        33
48.230        20
48.240        13
48.250        20
48.260         0
48.270         7
48.280        47
48.290         7
48.300        20
48.310        27
48.320         0
48.330         0
48.340        27
48.350        33
48.360        13
48.370         0
48.380        20
48.390        20
48.400        33
48.410        27
48.420        20
48.430        20
48.440        33
48.450        20
48.460        40
48.470        13
48.480         0
48.490        13
48.500         0
48.510         7
48.520        33
48.530         7
48.540        13
48.550        27
48.560        27
48.570        13
48.580        40
48.590        27
48.600        33
48.610        13
48.620         7
48.630        27
48.640        40
48.650         7
48.660        20
48.670        20
48.680        13
48.690        13
48.700        13
48.710        33
48.720        13
48.730        13
48.740        20
48.750         7
48.760        20
48.770        13
48.780        20
48.790         7
48.800        20
48.810        27
48.820        20
48.830        27
48.840        33
48.850        20
48.860        27
48.870         7
48.880        40
48.890        20
48.900        47
48.910        27
48.920        20
48.930        53
48.940         7
48.950        27
48.960        33
48.970        20
48.980        20
48.990        27
49.000        33
49.010        20
49.020        27
49.030        73
49.040        47
49.050        20
49.060        27
49.070        33
49.080        27
49.090        27
49.100        20
49.110        40
49.120        33
49.130        47
49.140        13
49.150        27
49.160        13
49.170        47
49.180        40
49.190        27
49.200        27
49.210        40
49.220        13
49.230        67
49.240        13
49.250        27
49.260        13
49.270        20
49.280        40
49.290        27
49.300        20
49.310        20
49.320        13
49.330        47
49.340        47
49.350        33
49.360        47
49.370        20
49.380         7
49.390        47
49.400        13
49.410        40
49.420        40
49.430        33
49.440        40
49.450        13
49.460        27
49.470        13
49.480        27
49.490        20
49.500        20
49.510        13
49.520        33
49.530        20
49.540        27
49.550        13
49.560        13
49.570        40
49.580        27
49.590        27
49.600        13
49.610        40
49.620        20
49.630        20
49.640        93
49.650        33
49.660        20
49.670        13
49.680        47
49.690        13
49.700        47
49.710        20
49.720        33
49.730        27
49.740        47
49.750        47
49.760        40
49.770        20
49.780        27
49.790        47
49.800        40
49.810        20
49.820        27
49.830        33
49.840        27
49.850        20
49.860        27
49.870        33
49.880        33
49.890        47
49.900        33
49.910        33
49.920        33
49.930        20
49.940        27
49.950        40
49.960        27
49.970        13
49.980        40
49.990        33
50.000        27
50.010        27
50.020        40
50.030        47
50.040        13
50.050        40
50.060        27
50.070        47
50.080        27
50.090        27
50.100        27
50.110        40
50.120        13
50.130        20
50.140        20
50.150        33
50.160        13
50.170        20
50.180        13
50.190        20
50.200        47
50.210        13
50.220        47
50.230        33
50.240        47
50.250        20
50.260        20
50.270        20
50.280        27
50.290        33
50.300        13
50.310        13
50.320        27
50.330        47
50.340        13
50.350        20
50.360        20
50.370         7
50.380        47
50.390        47
50.400        27
50.410        33
50.420        27
50.430        27
50.440        33
50.450        27
50.460        33
50.470         7
50.480         0
50.490        33
50.500        27
50.510        13
50.520        33
50.530        33
50.540         7
50.550         7
50.560        47
50.570        27
50.580        33
50.590        33
50.600         7
50.610        27
50.620        27
50.630        13
50.640        53
50.650        40
50.660        20
50.670        27
50.680        47
50.690        27
50.700        13
50.710        47
50.720        47
50.730         7
50.740        33
50.750        27
50.760        27
50.770         0
50.780        27
50.790        20
50.800        27
50.810        47
50.820         7
50.830        13
50.840        13
50.850        20
50.860        27
50.870         7
50.880        13
50.890        40
50.900        20
50.910        13
50.920        13
50.930        27
50.940         7
50.950        27
50.960         0
50.970         0
50.980        27
50.990        40
51.000        27
51.010        20
51.020        20
51.030        40
51.040        20
51.050         7
51.060        20
51.070        13
51.080        13
51.090        53
51.100        13
51.110        47
51.120        20
51.130        13
51.140        20
51.150         7
51.160        33
51.170        33
51.180        47
51.190        20
51.200        20
51.210        47
51.220        47
51.230        47
51.240         7
51.250        20
51.260         7
51.270        27
51.280        20
51.290        13
51.300        33
51.310        27
51.320        27
51.330        20
51.340        33
51.350        27
51.360        20
51.370        27
51.380        13
51.390         7
51.400        47
51.410        27
51.420        40
51.430         7
51.440        27
51.450        20
51.460        40
51.470        33
51.480        47
51.490        20
51.500        20
51.510        33
51.520        13
51.530        33
51.540        20
51.550        27
51.560        20
51.570        33
51.580         7
51.590        40
51.600        27
51.610        40
51.620        13
51.630        13
51.640        33
51.650        40
51.660        27
51.670        60
51.680         7
51.690        40
51.700        27
51.710        27
51.720        40
51.730        27
51.740        60
51.750        33
51.760        33
51.770         7
51.780        20
51.790        20
51.800        33
51.810        40
51.820        47
51.830        20
51.840        67
51.850        40
51.860        60
51.870        27
51.880        13
51.890        20
51.900        60
51.910        33
51.920        53
51.930        53
51.940        53
51.950        47
51.960        53
51.970        27
51.980        27
51.990        33
52.000        27
52.010        27
52.020        60
52.030        40
52.040        73
52.050        20
52.060        53
52.070        40
52.080        67
52.090        40
52.100        27
52.110        40
52.120        60
52.130        33
52.140        73
52.150        60
52.160        67
52.170        27
52.180        47
52.190        33
52.200        13
52.210        13
52.220        40
52.230         7
52.240        13
52.250        27
52.260        33
52.270        40
52.280        33
52.290        20
52.300        20
52.310        13
52.320        47
52.330        27
52.340        53
52.350        20
52.360        20
52.370        40
52.380        20
52.390        33
52.400        20
52.410        73
52.420        40
52.430        20
52.440        47
52.450        53
52.460        47
52.470        53
52.480        40
52.490       107
52.500        60
52.510        53
52.520       140
52.530       107
52.540       127
52.550       100
52.560       140
52.570       147
52.580       180
52.590       113
52.600       160
52.610       133
52.620       140
52.630        67
52.640        53
52.650       120
52.660        53
52.670       127
52.680       113
52.690       100
52.700        87
52.710        93
52.720        60
52.730        80
52.740        73
52.750        47
52.760        27
52.770        40
52.780        47
52.790        33
52.800        27
52.810        13
52.820        47
52.830        47
52.840        27
52.850        53
52.860        20
52.870        27
52.880        20
52.890        27
52.900         0
52.910         7
52.920        13
52.930        27
52.940         0
52.950        20
52.960        27
52.970        33
52.980        40
52.990        13
53.000        13
53.010        13
53.020         7
53.030        20
53.040        13
53.050        33
53.060        13
53.070        40
53.080        27
53.090        40
53.100        20
53.110         7
53.120        20
53.130         7
53.140        13
53.150         7
53.160        20
53.170         7
53.180        27
53.190        13
53.200        33
53.210        27
53.220        13
53.230        13
53.240        33
53.250        27
53.260        27
53.270        20
53.280        20
53.290         7
53.300        20
53.310        20
53.320        13
53.330         7
53.340        27
53.350         7
53.360        33
53.370        33
53.380        27
53.390        33
53.400        33
53.410        33
53.420         7
53.430        13
53.440        27
53.450        20
53.460        13
53.470        27
53.480        47
53.490         7
53.500        33
53.510        13
53.520        33
53.530        20
53.540        33
53.550        40
53.560        13
53.570        20
53.580        33
53.590        47
53.600        13
53.610        13
53.620        27
53.630         7
53.640         7
53.650         7
53.660        60
53.670        13
53.680        20
53.690        20
53.700        27
53.710         7
53.720        20
53.730        33
53.740        47
53.750        27
53.760         0
53.770        33
53.780        60
53.790        27
53.800        33
53.810        33
53.820         7
53.830        13
53.840        13
53.850        20
53.860        20
53.870        27
53.880         7
53.890        13
53.900        27
53.910        13
53.920        27
53.930        40
53.940         7
53.950        40
53.960        33
53.970        13
53.980        27
53.990        33
54.000        47
54.010        13
54.020        53
54.030        13
54.040        40
54.050        33
54.060        40
54.070        33
54.080        33
54.090         7
54.100        27
54.110        27
54.120        20
54.130        20
54.140        20
54.150        20
54.160         0
54.170        60
54.180        27
54.190         0
54.200        20
54.210        40
54.220        47
54.230        20
54.240        27
54.250         0
54.260        33
54.270        53
54.280        47
54.290        27
54.300        33
54.310         7
54.320        40
54.330        33
54.340        13
54.350         7
54.360         7
54.370        73
54.380         0
54.390        60
54.400        33
54.410        20
54.420        13
54.430        33
54.440         7
54.450        47
54.460        40
54.470        33
54.480        47
54.490        13
54.500        20
54.510        20
54.520         7
54.530        47
54.540        27
54.550        40
54.560        27
54.570        13
54.580        13
54.590        20
54.600        40
54.610        20
54.620        33
54.630        20
54.640         7
54.650        33
54.660        27
54.670        13
54.680        27
54.690        20
54.700         7
54.710        13
54.720        60
54.730         0
54.740        27
54.750        27
54.760        13
54.770        13
54.780        20
54.790        27
54.800         0
54.810        27
54.820        20
54.830        20
54.840        27
54.850        13
54.860        20
54.870        20
54.880        33
54.890        13
54.900        33
54.910        33
54.920        27
54.930        20
54.940        13
54.950        20
54.960        20
54.970        20
54.980        27
54.990        20
55.000        27
55.010        27
55.020        27
55.030         7
55.040         7
55.050         0
55.060        33
55.070        20
55.080         7
55.090        13
55.100        33
55.110        27
55.120        13
55.130        13
55.140        13
55.150        33
55.160         7
55.170        33
55.180        20
55.190        13
55.200        13
55.210        20
55.220        40
55.230        20
55.240        20
55.250         0
55.260        20
55.270        27
55.280         7
55.290        20
55.300        13
55.310        33
55.320        27
55.330        33
55.340        27
55.350        27
55.360        27
55.370        27
55.380        13
55.390        33
55.400         7
55.410        33
55.420        20
55.430        27
55.440         7
55.450         7
55.460         7
55.470         7
55.480        20
55.490        13
55.500        20
55.510        20
55.520        20
55.530        13
55.540        20
55.550        13
55.560        40
55.570        20
55.580        20
55.590         7
55.600        13
55.610        27
55.620        13
55.630         7
55.640         7
55.650        13
55.660        27
55.670         0
55.680        33
55.690        20
55.700        13
55.710        20
55.720        27
55.730        13
55.740        20
55.750        13
55.760         7
55.770        33
55.780        60
55.790        20
55.800        20
55.810         0
55.820        40
55.830        20
55.840        27
55.850        40
55.860        20
55.870        13
55.880        40
55.890        47
55.900        13
55.910        33
55.920        27
55.930        33
55.940        33
55.950        27
55.960        13
55.970        27
55.980        13
55.990        20
56.000        47
56.010        27
56.020        20
56.030         7
56.040        47
56.050        20
56.060        40
56.070        20
56.080        20
56.090        47
56.100        33
56.110        20
56.120        27
56.130        33
56.140        27
56.150        33
56.160        13
56.170        33
56.180        27
56.190        20
56.200        33
56.210        13
56.220         0
56.230        60
56.240        40
56.250        33
56.260        20
56.270        47
56.280        20
56.290        20
56.300        33
56.310        27
56.320         7
56.330        13
56.340        20
56.350         7
56.360        27
56.370        13
56.380        33
56.390        40
56.400        60
56.410        20
56.420        33
56.430        40
56.440        20
56.450        33
56.460        47
56.470        20
56.480         7
56.490        13
56.500        20
56.510        27
56.520         7
56.530        13
56.540        40
56.550        20
56.560        20
56.570        47
56.580        40
56.590         7
56.600        13
56.610        27
56.620        13
56.630         0
56.640        13
56.650        13
56.660        20
56.670         0
56.680         0
56.690        27
56.700        27
56.710        13
56.720        20
56.730         0
56.740        20
56.750        13
56.760        13
56.770        27
56.780        13
56.790        20
56.800        27
56.810        20
56.820        13
56.830         0
56.840        33
56.850        20
56.860        13
56.870        13
56.880         7
56.890        20
56.900        27
56.910        20
56.920        33
56.930        13
56.940        13
56.950        20
56.960        13
56.970        20
56.980        33
56.990        20
57.000        20
57.010        27
57.020         7
57.030        33
57.040         7
57.050        33
57.060         0
57.070         7
57.080        13
57.090        13
57.100        27
57.110        60
57.120        33
57.130        20
57.140        33
57.150        33
57.160        33
57.170        40
57.180        13
57.190        13
57.200        27
57.210        27
57.220        33
57.230        27
57.240        13
57.250        20
57.260        27
57.270        27
57.280        13
57.290        27
57.300        27
57.310        33
57.320        27
57.330        33
57.340        27
57.350        53
57.360        47
57.370        47
57.380        40
57.390        27
57.400        60
57.410        40
57.420        67
57.430        53
57.440        80
57.450        80
57.460       100
57.470       167
57.480       133
57.490       213
57.500       147
57.510       140
57.520       120
57.530       140
57.540       113
57.550        87
57.560        47
57.570        60
57.580        47
57.590       107
57.600        60
57.610        33
57.620        67
57.630        93
57.640        93
57.650        67
57.660       107
57.670        67
57.680        47
57.690       100
57.700        47
57.710        67
57.720        33
57.730        20
57.740        33
57.750        13
57.760        40
57.770         7
57.780        27
57.790        27
57.800        20
57.810        20
57.820        27
57.830        33
57.840         0
57.850         7
57.860        13
57.870        47
57.880         7
57.890        27
57.900        33
57.910        20
57.920        27
57.930        27
57.940        40
57.950        33
57.960        33
57.970         7
57.980         7
57.990        27
58.000        27
58.010        13
58.020         7
58.030        27
58.040         7
58.050        13
58.060        20
58.070        33
58.080        27
58.090        20
58.100        13
58.110        20
58.120        13
58.130        13
58.140        27
58.150         7
58.160         0
58.170        33
58.180        27
58.190         0
58.200        13
58.210         7
58.220        13
58.230         0
58.240        20
58.250        27
58.260         7
58.270        47
58.280         7
58.290        13
58.300        67
58.310        13
58.320        13
58.330         7
58.340        20
58.350         7
58.360        20
58.370         7
58.380         0
58.390        13
58.400        20
58.410        33
58.420         7
58.430        13
58.440        27
58.450        27
58.460        27
58.470         7
58.480        33
58.490         0
58.500        13
58.510        13
58.520        20
58.530        20
58.540         7
58.550         7
58.560        33
58.570        13
58.580         7
58.590        20
58.600         7
58.610        40
58.620        27
58.630        13
58.640        20
58.650        27
58.660        27
58.670        27
58.680        13
58.690        27
58.700        33
58.710        20
58.720         7
58.730        13
58.740        20
58.750         7
58.760        13
58.770        20
58.780        33
58.790        27
58.800         7
58.810         7
58.820        13
58.830        40
58.840         0
58.850        20
58.860        33
58.870        20
58.880        20
58.890        20
58.900         7
58.910        33
58.920        27
58.930        27
58.940        20
58.950        13
58.960        20
58.970        40
58.980        27
58.990        20
59.000         7
59.010        13
59.020        13
59.030        20
59.040         7
59.050         7
59.060        27
59.070        13
59.080        40
59.090         0
59.100        13
59.110        20
59.120        20
59.130        20
59.140        13
59.150        27
59.160         7
59.170         7
59.180        27
59.190        27
59.200        13
59.210        20
59.220        20
59.230        40
59.240        13
59.250        20
59.260         7
59.270        27
59.280        20
59.290        20
59.300        13
59.310        20
59.320        27
59.330        33
59.340        13
59.350        27
59.360        13
59.370        20
59.380         7
59.390        27
59.400        40
59.410        27
59.420        27
59.430        13
59.440        20
59.450        47
59.460        13
59.470        27
59.480        20
59.490        33
59.500        40
59.510        20
59.520        27
59.530        47
59.540        20
59.550        20
59.560        20
59.570        40
59.580         0
59.590        20
59.600        27
59.610        47
59.620        13
59.630        20
59.640        27
59.650         7
59.660        40
59.670        13
59.680        13
59.690        40
59.700        33
59.710        47
59.720        20
59.730        20
59.740        27
59.750        13
59.760        20
59.770        27
59.780        20
59.790        33
59.800         7
59.810        33
59.820        13
59.830        20
59.840        13
59.850        27
59.860        27
59.870        20
59.880        20
59.890        13
59.900        27
59.910        27
59.920        20
59.930        47
59.940        33
59.950        27
59.960         7
59.970        13
59.980        13
59.990         0
60.000         0
