20.000        27
20.010        27
20.020        47
20.030        33
20.040        53
20.050        67
20.060        60
20.070        40
20.080        27
20.090        67
20.100        33
20.110        80
20.120        53
20.130        33
20.140         7
20.150        20
20.160        33
20.170        67
20.180        33
20.190        47
20.200        53
20.210        27
20.220        33
20.230        33
20.240        67
20.250        40
20.260        27
20.270        33
20.280        53
20.290        53
20.300        80
20.310        40
20.320        60
20.330        47
20.340        67
20.350        60
20.360        53
20.370        93
20.380        27
20.390        47
20.400        40
20.410        47
20.420        60
20.430        27
20.440        20
20.450        80
20.460        13
20.470        60
20.480        60
20.490        47
20.500        40
20.510        33
20.520        33
20.530        47
20.540        40
20.550        53
20.560        27
20.570        60
20.580        27
20.590        33
20.600        60
20.610        87
20.620        27
20.630        13
20.640        13
20.650        40
20.660        20
20.670        33
20.680        40
20.690        60
20.700        40
20.710        27
20.720        40
20.730        53
20.740        40
20.750        33
20.760        33
20.770        33
20.780        60
20.790        47
20.800        80
20.810        40
20.820        27
20.830        47
20.840        20
20.850        27
20.860        27
20.870        60
20.880        33
20.890        47
20.900        40
20.910        20
20.920        40
20.930        33
20.940        27
20.950        47
20.960        40
20.970        20
20.980        27
20.990        20
21.000        40
21.010        33
21.020       113
21.030        47
21.040        47
21.050        67
21.060        40
21.070        33
21.080        60
21.090        40
21.100        47
21.110        40
21.120        60
21.130        47
21.140        60
21.150         7
21.160        33
21.170        47
21.180        33
21.190        40
21.200        47
21.210        53
21.220        40
21.230        20
21.240        40
21.250        20
21.260        73
21.270        47
21.280        27
21.290        13
21.300        20
21.310        73
21.320        40
21.330        27
21.340        47
21.350        20
21.360        20
21.370        47
21.380        80
21.390        87
21.400        40
21.410        20
21.420        53
21.430        33
21.440        33
21.450        47
21.460        33
21.470        33
21.480        80
21.490        13
21.500        13
21.510        40
21.520        40
21.530        40
21.540        40
21.550        47
21.560        33
21.570        33
21.580        33
21.590        40
21.600        27
21.610        60
21.620        33
21.630        47
21.640        60
21.650        27
21.660        73
21.670        40
21.680        33
21.690        53
21.700        33
21.710        20
21.720        27
21.730        40
21.740        53
21.750        33
21.760        33
21.770        40
21.780        13
21.790        40
21.800        47
21.810        33
21.820        47
21.830        33
21.840        40
21.850         7
21.860         7
21.870        20
21.880        33
21.890         7
21.900        40
21.910        33
21.920        20
21.930        13
21.940        33
21.950        67
21.960        27
21.970        27
21.980        20
21.990        40
22.000        13
22.010        33
22.020        20
22.030        13
22.040        40
22.050        53
22.060        47
22.070        27
22.080        47
22.090        13
22.100        33
22.110        33
22.120        40
22.130        13
22.140        27
22.150        47
22.160        40
22.170        33
22.180        13
22.190        73
22.200        27
22.210        47
22.220        13
22.230        67
22.240        33
22.250        53
22.260        40
22.270        13
22.280        67
22.290        33
22.300        47
22.310        27
22.320        53
22.330        33
22.340        40
22.350        47
22.360        20
22.370        27
22.380        27
22.390        20
22.400        33
22.410        47
22.420        33
22.430        60
22.440        33
22.450        47
22.460        40
22.470        33
22.480        20
22.490        33
22.500        53
22.510        60
22.520        47
22.530        20
22.540        47
22.550        40
22.560        60
22.570        33
22.580        27
22.590        13
22.600        60
22.610        67
22.620         7
22.630        47
22.640        27
22.650        47
22.660        33
22.670        20
22.680        33
22.690        60
22.700        13
22.710        33
22.720        27
22.730        53
22.740        33
22.750        40
22.760        13
22.770        33
22.780        47
22.790        40
22.800        67
22.810        47
22.820        67
22.830        53
22.840        53
22.850        47
22.860        40
22.870        33
22.880        20
22.890         0
22.900        40
22.910        53
22.920        40
22.930         7
22.940        33
22.950        53
22.960        27
22.970        27
22.980        27
22.990        27
23.000        27
23.010        60
23.020        33
23.030        33
23.040        20
23.050        40
23.060        40
23.070        47
23.080         7
23.090        53
23.100        40
23.110        20
23.120        53
23.130        27
23.140        33
23.150        53
23.160        33
23.170        33
23.180        13
23.190        20
23.200        27
23.210        27
23.220        33
23.230        40
23.240        27
23.250        27
23.260        27
23.270        33
23.280        13
23.290        27
23.300        40
23.310        33
23.320         7
23.330        27
23.340        67
23.350        67
23.360        27
23.370        20
23.380        47
23.390        27
23.400        27
23.410        13
23.420        20
23.430        60
23.440        47
23.450        40
23.460        13
23.470         7
23.480         0
23.490        20
23.500        27
23.510        40
23.520        33
23.530        53
23.540        13
23.550        40
23.560        33
23.570        40
23.580        13
23.590        53
23.600        20
23.610        47
23.620        40
23.630        13
23.640        40
23.650        60
23.660        33
23.670         0
23.680        33
23.690        47
23.700        47
23.710        13
23.720        40
23.730        40
23.740        73
23.750        53
23.760        53
23.770        20
23.780        40
23.790        13
23.800        40
23.810        40
23.820        27
23.830        47
23.840        40
23.850        33
23.860        47
23.870        33
23.880        20
23.890        40
23.900        27
23.910        40
23.920        20
23.930        27
23.940        33
23.950        20
23.960        33
23.970        47
23.980         7
23.990        40
24.000        40
24.010        53
24.020        20
24.030        27
24.040        33
24.050         7
24.060        27
24.070        20
24.080        27
24.090        13
24.100        33
24.110        27
24.120        13
24.130        40
24.140        27
24.150        33
24.160        20
24.170        27
24.180        20
24.190        20
24.200        13
24.210        53
24.220        40
24.230        27
24.240        20
24.250        53
24.260        33
24.270        33
24.280        60
24.290        33
24.300         7
24.310        27
24.320        27
24.330        40
24.340         7
24.350        40
24.360        40
24.370        33
24.380        60
24.390        67
24.400        27
24.410        20
24.420        27
24.430        33
24.440        20
24.450        20
24.460        27
24.470        13
24.480        13
24.490        60
24.500        40
24.510        73
24.520        20
24.530        33
24.540         7
24.550        20
24.560         7
24.570        27
24.580        47
24.590        13
24.600        47
24.610        40
24.620        33
24.630        13
24.640        20
24.650        20
24.660        40
24.670        27
24.680        40
24.690        33
24.700        60
24.710        27
24.720        40
24.730        33
24.740        47
24.750        47
24.760        20
24.770        33
24.780        27
24.790        47
24.800        60
24.810        20
24.820        27
24.830        40
24.840         7
24.850         7
24.860         7
24.870        20
24.880        47
24.890        20
24.900        13
24.910        33
24.920        27
24.930        20
24.940         7
24.950        27
24.960        20
24.970        20
24.980        47
24.990        47
25.000        33
25.010        20
25.020        33
25.030        27
25.040        60
25.050        60
25.060        40
25.070        20
25.080        67
25.090        33
25.100        33
25.110        40
25.120        40
25.130        27
25.140        33
25.150        20
25.160        27
25.170        27
25.180        47
25.190        20
25.200        33
25.210        47
25.220        13
25.230        27
25.240        20
25.250        27
25.260        27
25.270        33
25.280        27
25.290        40
25.300        73
25.310        40
25.320        40
25.330        40
25.340        33
25.350         7
25.360        40
25.370        47
25.380        60
25.390        40
25.400        20
25.410        33
25.420        27
25.430        13
25.440        47
25.450        33
25.460        40
25.470        40
25.480        47
25.490        27
25.500        27
25.510        60
25.520        47
25.530        40
25.540        67
25.550        33
25.560        27
25.570        47
25.580        40
25.590        33
25.600        47
25.610        47
25.620        47
25.630        53
25.640        67
25.650        53
25.660        27
25.670         7
25.680        40
25.690        67
25.700        40
25.710        33
25.720        13
25.730        33
25.740        27
25.750         0
25.760        33
25.770        13
25.780        47
25.790        20
25.800        20
25.810        33
25.820        13
25.830        47
25.840        13
25.850        33
25.860        33
25.870        33
25.880        13
25.890        53
25.900        33
25.910        20
25.920        40
25.930        33
25.940        33
25.950         0
25.960        27
25.970        47
25.980        40
25.990        40
26.000        40
26.010        20
26.020        13
26.030        20
26.040        33
26.050        27
26.060        40
26.070        33
26.080        27
26.090        40
26.100        20
26.110        40
26.120        33
26.130        33
26.140        40
26.150         7
26.160        53
26.170        20
26.180        33
26.190        13
26.200        47
26.210        33
26.220        27
26.230        13
26.240        27
26.250        33
26.260         7
26.270        47
26.280        40
26.290         0
26.300        13
26.310        13
26.320        33
26.330        40
26.340        27
26.350        27
26.360         7
26.370        20
26.380         7
26.390        27
26.400        27
26.410        40
26.420        33
26.430         0
26.440        40
26.450        27
26.460        33
26.470        27
26.480        47
26.490        40
26.500        27
26.510        40
26.520        20
26.530        33
26.540        13
26.550        13
26.560        33
26.570        33
26.580         7
26.590        40
26.600        33
26.610        20
26.620        67
26.630        20
26.640        20
26.650        20
26.660        13
26.670        33
26.680        60
26.690        27
26.700        20
26.710        20
26.720        33
26.730        33
26.740        13
26.750        20
26.760        27
26.770        40
26.780        27
26.790        40
26.800        33
26.810        40
26.820        33
26.830        40
26.840         7
26.850        13
26.860        40
26.870        27
26.880        20
26.890        33
26.900        13
26.910         0
26.920        27
26.930        27
26.940        40
26.950        33
26.960        13
26.970        13
26.980        27
26.990        20
27.000         7
27.010        47
27.020        27
27.030        20
27.040        13
27.050        20
27.060        27
27.070         0
27.080        53
27.090        13
27.100        20
27.110        20
27.120        13
27.130        27
27.140        27
27.150        27
27.160        27
27.170        40
27.180        13
27.190        13
27.200        33
27.210        13
27.220        20
27.230         7
27.240        40
27.250        40
27.260        20
27.270        33
27.280        20
27.290        47
27.300        20
27.310        20
27.320        20
27.330        20
27.340        47
27.350        13
27.360        20
27.370        20
27.380        33
27.390        40
27.400        27
27.410         7
27.420        27
27.430        13
27.440        47
27.450        27
27.460        13
27.470        40
27.480        20
27.490        27
27.500        40
27.510        40
27.520        27
27.530        13
27.540        33
27.550        27
27.560        27
27.570        27
27.580         7
27.590        13
27.600         7
27.610        20
27.620        13
27.630        47
27.640        20
27.650        33
27.660        40
27.670        27
27.680        20
27.690        20
27.700        20
27.710        20
27.720        13
27.730        20
27.740        27
27.750        40
27.760        27
27.770        47
27.780        13
27.790        20
27.800        40
27.810        27
27.820        27
27.830        33
27.840        40
27.850        53
27.860        20
27.870        27
27.880        20
27.890        40
27.900        33
27.910        27
27.920        33
27.930        13
27.940        13
27.950        13
27.960        40
27.970        27
27.980        27
27.990        53
28.000        47
28.010        20
28.020        27
28.030        40
28.040        20
28.050        27
28.060         7
28.070         0
28.080        53
28.090        27
28.100        20
28.110        20
28.120        20
28.130        27
28.140        47
28.150        20
28.160         7
28.170        27
28.180        53
28.190        67
28.200        20
28.210        33
28.220        13
28.230         0
28.240        20
28.250        27
28.260        20
28.270        40
28.280        47
28.290        20
28.300        33
28.310        20
28.320        20
28.330        27
28.340        47
28.350        27
28.360        60
28.370        33
28.380        33
28.390        33
28.400        33
28.410        27
28.420        20
28.430        20
28.440        20
28.450        13
28.460        27
28.470        13
28.480        20
28.490        40
28.500        20
28.510        53
28.520        47
28.530        40
28.540        33
28.550        33
28.560        60
28.570        40
28.580        13
28.590        67
28.600        27
28.610        33
28.620        53
28.630        13
28.640        53
28.650        87
28.660        73
28.670        60
28.680        47
28.690        67
28.700        53
28.710        53
28.720        67
28.730        73
28.740        73
28.750        60
28.760        47
28.770        73
28.780       107
28.790        87
28.800        60
28.810        60
28.820        33
28.830        53
28.840        20
28.850        67
28.860        73
28.870        47
28.880       100
28.890        53
28.900        67
28.910        40
28.920        87
28.930        53
28.940        53
28.950        73
28.960        87
28.970        33
28.980        67
28.990        47
29.000        40
29.010        60
29.020        40
29.030        40
29.040        33
29.050        67
29.060        47
29.070        33
29.080        40
29.090        33
29.100        33
29.110        40
29.120        47
29.130        53
29.140        47
29.150        47
29.160        33
29.170        40
29.180        20
29.190        47
29.200        20
29.210        20
29.220        33
29.230        40
29.240        20
29.250        20
29.260        13
29.270        40
29.280        27
29.290        33
29.300        27
29.310        40
29.320        27
29.330        33
29.340        40
29.350        40
29.360        20
29.370        13
29.380        27
29.390        40
29.400         7
29.410        13
29.420        13
29.430        40
29.440        27
29.450        40
29.460        20
29.470        47
29.480        40
29.490        13
29.500        13
29.510        33
29.520        27
29.530        27
29.540        47
29.550        33
29.560        67
29.570        13
29.580        47
29.590        40
29.600        20
29.610        27
29.620        60
29.630        20
29.640        47
29.650        20
29.660        27
29.670        33
29.680        33
29.690        13
29.700        33
29.710        20
29.720        40
29.730        27
29.740        33
29.750        20
29.760        27
29.770        20
29.780        27
29.790        27
29.800        27
29.810        27
29.820        27
29.830        27
29.840        33
29.850        13
29.860        13
29.870        20
29.880        20
29.890         7
29.900        13
29.910        27
29.920        27
29.930        47
29.940        33
29.950         7
29.960        40
29.970        40
29.980         7
29.990        27
30.000        27
30.010        20
30.020        27
30.030         7
30.040        13
30.050        20
30.060        47
30.070        27
30.080        47
30.090        33
30.100        47
30.110        27
30.120        40
30.130         7
30.140        13
30.150        20
30.160        27
30.170        47
30.180        27
30.190        33
30.200        27
30.210        20
30.220        40
30.230        47
30.240        20
30.250        13
30.260        33
30.270         7
30.280        20
30.290        13
30.300        20
30.310        20
30.320        13
30.330         7
30.340        20
30.350        20
30.360        27
30.370        40
30.380        40
30.390        20
30.400        33
30.410        20
30.420        13
30.430        27
30.440        13
30.450        40
30.460        33
30.470        33
30.480        27
30.490        27
30.500         7
30.510        33
30.520        73
30.530        33
30.540        20
30.550        20
30.560        33
30.570        33
30.580        47
30.590         0
30.600        27
30.610        27
30.620         0
30.630         0
30.640        33
30.650        33
30.660        13
30.670        47
30.680        47
30.690        33
30.700        27
30.710        33
30.720         7
30.730        27
30.740         7
30.750        20
30.760        13
30.770        27
30.780        20
30.790        27
30.800        20
30.810        47
30.820        33
30.830         7
30.840        33
30.850        20
30.860        27
30.870        13
30.880        27
30.890        27
30.900        20
30.910        33
30.920        47
30.930        40
30.940        13
30.950        13
30.960        20
30.970        47
30.980        33
30.990        27
31.000        40
31.010        20
31.020        53
31.030        40
31.040        40
31.050        20
31.060        67
31.070        20
31.080        67
31.090        27
31.100        20
31.110        27
31.120        33
31.130        33
31.140        47
31.150        60
31.160        53
31.170        13
31.180        27
31.190        33
31.200        27
31.210        47
31.220        27
31.230         7
31.240        20
31.250        73
31.260        60
31.270        20
31.280        53
31.290        47
31.300        40
31.310        53
31.320        33
31.330        27
31.340        53
31.350        47
31.360        20
31.370        40
31.380        27
31.390        33
31.400        60
31.410        20
31.420        27
31.430        33
31.440        47
31.450        53
31.460        13
31.470        20
31.480        60
31.490        13
31.500        40
31.510        33
31.520        20
31.530        80
31.540        33
31.550        27
31.560        80
31.570        13
31.580        27
31.590        40
31.600        53
31.610        27
31.620        33
31.630         7
31.640        33
31.650        20
31.660        47
31.670        33
31.680        27
31.690        27
31.700        13
31.710        40
31.720        33
31.730        13
31.740        27
31.750        33
31.760        27
31.770        33
31.780        40
31.790        27
31.800        27
31.810        27
31.820        47
31.830        13
31.840        40
31.850        33
31.860        20
31.870        13
31.880        40
31.890        53
31.900        40
31.910         7
31.920        20
31.930        40
31.940        33
31.950        33
31.960        27
31.970        20
31.980        40
31.990        67
32.000        40
32.010        53
32.020        47
32.030        40
32.040        60
32.050        40
32.060        33
32.070        87
32.080        53
32.090        60
32.100        80
32.110       113
32.120        87
32.130        20
32.140       147
32.150        60
32.160        80
32.170       133
32.180       133
32.190        80
32.200       107
32.210        93
32.220       193
32.230       207
32.240       147
32.250        87
32.260       100
32.270       133
32.280       133
32.290       113
32.300       113
32.310       147
32.320        93
32.330       153
32.340       100
32.350       133
32.360       100
32.370        93
32.380       100
32.390       147
32.400        93
32.410        73
32.420        93
32.430        67
32.440        67
32.450        53
32.460       100
32.470        53
32.480        87
32.490        40
32.500        67
32.510        33
32.520        73
32.530        20
32.540        27
32.550        40
32.560        27
32.570        13
32.580        47
32.590        40
32.600        53
32.610        53
32.620        27
32.630        40
32.640        20
32.650        27
32.660        53
32.670        13
32.680        27
32.690        20
32.700        47
32.710        27
32.720        27
32.730        47
32.740        20
32.750        13
32.760        47
32.770        27
32.780        53
32.790        27
32.800        40
32.810        27
32.820        53
32.830        13
32.840        27
32.850        20
32.860         7
32.870        13
32.880        20
32.890        20
32.900        20
32.910        40
32.920        40
32.930        27
32.940        20
32.950        20
32.960        33
32.970        13
32.980        33
32.990        20
33.000        13
33.010        27
33.020        33
33.030        20
33.040        33
33.050        33
33.060        13
33.070        20
33.080        13
33.090        27
33.100        13
33.110        27
33.120        33
33.130        47
33.140        40
33.150        13
33.160        33
33.170        27
33.180        13
33.190        13
33.200        20
33.210        20
33.220        20
33.230        20
33.240        13
33.250        20
33.260        40
33.270        13
33.280        27
33.290        27
33.300        33
33.310         7
33.320        20
33.330         7
33.340        27
33.350        13
33.360         0
33.370        20
33.380         7
33.390        20
33.400         7
33.410        40
33.420        13
33.430         7
33.440        40
33.450        40
33.460        40
33.470        27
33.480        27
33.490        53
33.500        27
33.510        20
33.520        13
33.530        60
33.540         7
33.550        13
33.560         7
33.570        33
33.580        27
33.590        33
33.600        20
33.610        27
33.620         7
33.630        13
33.640        33
33.650        13
33.660        40
33.670         7
33.680        20
33.690        13
33.700        27
33.710        13
33.720        47
33.730        13
33.740        20
33.750        27
33.760        20
33.770         7
33.780        20
33.790        13
33.800        40
33.810        20
33.820        27
33.830         0
33.840        20
33.850        13
33.860        20
33.870        20
33.880        13
33.890        13
33.900        20
33.910         7
33.920        40
33.930         0
33.940        20
33.950        20
33.960        13
33.970        13
33.980        33
33.990        20
34.000         0
34.010         0
34.020         0
34.030        13
34.040        13
34.050        13
34.060        33
34.070        33
34.080         7
34.090        13
34.100        20
34.110        27
34.120         0
34.130        20
34.140         0
34.150        13
34.160        13
34.170        13
34.180         7
34.190        20
34.200        13
34.210        27
34.220        13
34.230        20
34.240         7
34.250        20
34.260        13
34.270         7
34.280        13
34.290        27
34.300        13
34.310        33
34.320        20
34.330        20
34.340        13
34.350        20
34.360        13
34.370        33
34.380        40
34.390        53
34.400         0
34.410        20
34.420        20
34.430        40
34.440        33
34.450         7
34.460        33
34.470        27
34.480        27
34.490        20
34.500        20
34.510        20
34.520         7
34.530        13
34.540        20
34.550        27
34.560         7
34.570        20
34.580        20
34.590        20
34.600         0
34.610        13
34.620        33
34.630        27
34.640        20
34.650        13
34.660        20
34.670        20
34.680        33
34.690        40
34.700         7
34.710        13
34.720        27
34.730        13
34.740        27
34.750        27
34.760        33
34.770         0
34.780         7
34.790        13
34.800        13
34.810        13
34.820        13
34.830        27
34.840        20
34.850        33
34.860         7
34.870        27
34.880        13
34.890        27
34.900        40
34.910        33
34.920         7
34.930        40
34.940        27
34.950        47
34.960        40
34.970        20
34.980        27
34.990        13
35.000         7
35.010        33
35.020        40
35.030        20
35.040        33
35.050        40
35.060        33
35.070         7
35.080        20
35.090         7
35.100        13
35.110         7
35.120        13
35.130         7
35.140        47
35.150        20
35.160         7
35.170        27
35.180         0
35.190        27
35.200        20
35.210        33
35.220        33
35.230        33
35.240        27
35.250        33
35.260        13
35.270        13
35.280        20
35.290        40
35.300        27
35.310         7
35.320        27
35.330        13
35.340        33
35.350         7
35.360        13
35.370        40
35.380        13
35.390        20
35.400        13
35.410         0
35.420        27
35.430        13
35.440        13
35.450        20
35.460        27
35.470        13
35.480        20
35.490        40
35.500        13
35.510         0
35.520        33
35.530        13
35.540        13
35.550        13
35.560        33
35.570        13
35.580        27
35.590        47
35.600        40
35.610        40
35.620        20
35.630        20
35.640         0
35.650        27
35.660         7
35.670         7
35.680        27
35.690        33
35.700         7
35.710        53
35.720        13
35.730        20
35.740        27
35.750        27
35.760         0
35.770        20
35.780        13
35.790        20
35.800        33
35.810        13
35.820        20
35.830        20
35.840        40
35.850        20
35.860         7
35.870        20
35.880        33
35.890        13
35.900        13
35.910         7
35.920        13
35.930        20
35.940        33
35.950        20
35.960         7
35.970        13
35.980        27
35.990        20
36.000        27
36.010         7
36.020        20
36.030        27
36.040        20
36.050        20
36.060         7
36.070         0
36.080        40
36.090        13
36.100        33
36.110        40
36.120        40
36.130        40
36.140        40
36.150        27
36.160        27
36.170        27
36.180        13
36.190        27
36.200        13
36.210        33
36.220         7
36.230        33
36.240         7
36.250        13
36.260        53
36.270        33
36.280        20
36.290        13
36.300        33
36.310        20
36.320        33
36.330         7
36.340        27
36.350         7
36.360        20
36.370        13
36.380        20
36.390        27
36.400        33
36.410        27
36.420        20
36.430        27
36.440        33
36.450        20
36.460        13
36.470         7
36.480         7
36.490        20
36.500        20
36.510        27
36.520         7
36.530        27
36.540        13
36.550         7
36.560        20
36.570        20
36.580         7
36.590         7
36.600         7
36.610        20
36.620        27
36.630         7
36.640         7
36.650        20
36.660        33
36.670        13
36.680        13
36.690        27
36.700        27
36.710        13
36.720        20
36.730        13
36.740        13
36.750        13
36.760        27
36.770        27
36.780        20
36.790        13
36.800         0
36.810         0
36.820        27
36.830        20
36.840        33
36.850         7
36.860        20
36.870        13
36.880        13
36.890        27
36.900        33
36.910        13
36.920        20
36.930        27
36.940         7
36.950         7
36.960        20
36.970        20
36.980        13
36.990        60
37.000        20
37.010        20
37.020         7
37.030        27
37.040        20
37.050        13
37.060         7
37.070        33
37.080         7
37.090        40
37.100        27
37.110        33
37.120        20
37.130        27
37.140        40
37.150        13
37.160        13
37.170        27
37.180        20
37.190        13
37.200        40
37.210        47
37.220        20
37.230        40
37.240        40
37.250         0
37.260        40
37.270        13
37.280        40
37.290        20
37.300        20
37.310        27
37.320         7
37.330        33
37.340        40
37.350        20
37.360         7
37.370        33
37.380        20
37.390        27
37.400        33
37.410        33
37.420        20
37.430        20
37.440        27
37.450        20
37.460        13
37.470        33
37.480         7
37.490        13
37.500        20
37.510         7
37.520        47
37.530        27
37.540        40
37.550        27
37.560         7
37.570        33
37.580        33
37.590         0
37.600        13
37.610        20
37.620        20
37.630        33
37.640         7
37.650        20
37.660         0
37.670        20
37.680        33
37.690        33
37.700         7
37.710         0
37.720        27
37.730        13
37.740        20
37.750         7
37.760         0
37.770         7
37.780        20
37.790        27
37.800        20
37.810        33
37.820        13
37.830        27
37.840        20
37.850        13
37.860        13
37.870        27
37.880         7
37.890        13
37.900        20
37.910        20
37.920        27
37.930        13
37.940         7
37.950         7
37.960         0
37.970        27
37.980         7
37.990         7
38.000        20
38.010        20
38.020        27
38.030        13
38.040         7
38.050        40
38.060        20
38.070        27
38.080        13
38.090        33
38.100        13
38.110        40
38.120        27
38.130        13
38.140        20
38.150        13
38.160        33
38.170        53
38.180        33
38.190        13
38.200         7
38.210        13
38.220        20
38.230         7
38.240        13
38.250        20
38.260        20
38.270        40
38.280        13
38.290        13
38.300        13
38.310        20
38.320        20
38.330        27
38.340        13
38.350         7
38.360         0
38.370        13
38.380        33
38.390        20
38.400        40
38.410         0
38.420        33
38.430        20
38.440        20
38.450        13
38.460        13
38.470        13
38.480         0
38.490        13
38.500        40
38.510        27
38.520        20
38.530        20
38.540        27
38.550        13
38.560         7
38.570        27
38.580        13
38.590        33
38.600        20
38.610        27
38.620        20
38.630        13
38.640        40
38.650        13
38.660         7
38.670        27
38.680        47
38.690         7
38.700        27
38.710        27
38.720        20
38.730        13
38.740         7
38.750        13
38.760        13
38.770        13
38.780        13
38.790         7
38.800        13
38.810         7
38.820        27
38.830        40
38.840        33
38.850        13
38.860         0
38.870        13
38.880        20
38.890        33
38.900        20
38.910        27
38.920        13
38.930        27
38.940        20
38.950        13
38.960        20
38.970        13
38.980        40
38.990        27
39.000        27
39.010        13
39.020        27
39.030        27
39.040         7
39.050        27
39.060        27
39.070        27
39.080        33
39.090        40
39.100        13
39.110        33
39.120         7
39.130        20
39.140        40
39.150        27
39.160        20
39.170        13
39.180        27
39.190        27
39.200        27
39.210        13
39.220        40
39.230        33
39.240        20
39.250        20
39.260        47
39.270         7
39.280        20
39.290        27
39.300        20
39.310        13
39.320        33
39.330         7
39.340         7
39.350        20
39.360        27
39.370         7
39.380        20
39.390         7
39.400        27
39.410        20
39.420        27
39.430        33
39.440        27
39.450        27
39.460        13
39.470        27
39.480        20
39.490         7
39.500        20
39.510        13
39.520         7
39.530         7
39.540        20
39.550        13
39.560         0
39.570        27
39.580        27
39.590        20
39.600        13
39.610        13
39.620        40
39.630        20
39.640        20
39.650        27
39.660        13
39.670         7
39.680        33
39.690        27
39.700        47
39.710        27
39.720        20
39.730        53
39.740        40
39.750        67
39.760        27
39.770        47
39.780        33
39.790        13
39.800        47
39.810        40
39.820        47
39.830        60
39.840        47
39.850        60
39.860        80
39.870        33
39.880        40
39.890        73
39.900        40
39.910        13
39.920        73
39.930        87
39.940        47
39.950        33
39.960        60
39.970        47
39.980        60
39.990        47
40.000        67
40.010        60
40.020        67
40.030        47
40.040        20
40.050        33
40.060        47
40.070        40
40.080        40
40.090        40
40.100        33
40.110        13
40.120        47
40.130        20
40.140        13
40.150        20
40.160        47
40.170         7
40.180        33
40.190        47
40.200        27
40.210        20
40.220        27
40.230        27
40.240         0
40.250        60
40.260        33
40.270        27
40.280        20
40.290        13
40.300        33
40.310        67
40.320        47
40.330        13
40.340        27
40.350        33
40.360         0
40.370        13
40.380        33
40.390         7
40.400        47
40.410        40
40.420        33
40.430        27
40.440        27
40.450        20
40.460         7
40.470        27
40.480        33
40.490        27
40.500        20
40.510        13
40.520        40
40.530        20
40.540         7
40.550        40
40.560        47
40.570        20
40.580        20
40.590         7
40.600         7
40.610         7
40.620        33
40.630        20
40.640        20
40.650        20
40.660         7
40.670        40
40.680         0
40.690        33
40.700         7
40.710        33
40.720        13
40.730        20
40.740        13
40.750        20
40.760        33
40.770        20
40.780        20
40.790         0
40.800        27
40.810         7
40.820        40
40.830        20
40.840        27
40.850         7
40.860        33
40.870        13
40.880         0
40.890        13
40.900        20
40.910        20
40.920        27
40.930         7
40.940        20
40.950        20
40.960         7
40.970        27
40.980         0
40.990        20
41.000        20
41.010         7
41.020        40
41.030        20
41.040         7
41.050        27
41.060        13
41.070         0
41.080        67
41.090        13
41.100        13
41.110         0
41.120        33
41.130        13
41.140        20
41.150        33
41.160        13
41.170        13
41.180        13
41.190        27
41.200        20
41.210        20
41.220        27
41.230        27
41.240        27
41.250        13
41.260        13
41.270         7
41.280        33
41.290        20
41.300        20
41.310        13
41.320        40
41.330        33
41.340        20
41.350        13
41.360        20
41.370        20
41.380        13
41.390        27
41.400        13
41.410        33
41.420        33
41.430        40
41.440        20
41.450        33
41.460        40
41.470         7
41.480        40
41.490        20
41.500         0
41.510         7
41.520        20
41.530         7
41.540        27
41.550        47
41.560        33
41.570         7
41.580        27
41.590        13
41.600        20
41.610        33
41.620        40
41.630        20
41.640         7
41.650        13
41.660        33
41.670         7
41.680        27
41.690         7
41.700         7
41.710        13
41.720        20
41.730        33
41.740         7
41.750        20
41.760         7
41.770        27
41.780        40
41.790        47
41.800        20
41.810        13
41.820         7
41.830        20
41.840        13
41.850        20
41.860        27
41.870        33
41.880        27
41.890         7
41.900        13
41.910        13
41.920        20
41.930        20
41.940        33
41.950         7
41.960        33
41.970        20
41.980         7
41.990        13
42.000        20
42.010        33
42.020        33
42.030        13
42.040         0
42.050        20
42.060         0
42.070        20
42.080        20
42.090        20
42.100        20
42.110        27
42.120         7
42.130        13
42.140        20
42.150        13
42.160         0
42.170        27
42.180        13
42.190        13
42.200        60
42.210         0
42.220        13
42.230        27
42.240        33
42.250         7
42.260        27
42.270        47
42.280        33
42.290        20
42.300        27
42.310        20
42.320        13
42.330        27
42.340        13
42.350        13
42.360        33
42.370        27
42.380        13
42.390        40
42.400        13
42.410        20
42.420        27
42.430        13
42.440        20
42.450        13
42.460        13
42.470        20
42.480         7
42.490        40
42.500        40
42.510        27
42.520        40
42.530        20
42.540        33
42.550        13
42.560        13
42.570        33
42.580        47
42.590        20
42.600        27
42.610        60
42.620        33
42.630        27
42.640        20
42.650        27
42.660        47
42.670        47
42.680        27
42.690        20
42.700        13
42.710        33
42.720        33
42.730        33
42.740        33
42.750        33
42.760        13
42.770        40
42.780        20
42.790        40
42.800        27
42.810        20
42.820        27
42.830        20
42.840        13
42.850         7
42.860        27
42.870        33
42.880        40
42.890        20
42.900        20
42.910        27
42.920        40
42.930        40
42.940        33
42.950         0
42.960        13
42.970        20
42.980         7
42.990        20
43.000        40
43.010        40
43.020        20
43.030        27
43.040        20
43.050        33
43.060        27
43.070        27
43.080        40
43.090        27
43.100        27
43.110        13
43.120        20
43.130        47
43.140        33
43.150        20
43.160        20
43.170         7
43.180         0
43.190        33
43.200        20
43.210        13
43.220         7
43.230        27
43.240        27
43.250         7
43.260        33
43.270        33
43.280        20
43.290         0
43.300        27
43.310         7
43.320        13
43.330        33
43.340        33
43.350        13
43.360        13
43.370         7
43.380        27
43.390         0
43.400         7
43.410        20
43.420        20
43.430        27
43.440        20
43.450        13
43.460        20
43.470        27
43.480        40
43.490        47
43.500        33
43.510        33
43.520        33
43.530        13
43.540        27
43.550        33
43.560        20
43.570        13
43.580         7
43.590        20
43.600        27
43.610        20
43.620        20
43.630        20
43.640        27
43.650        27
43.660         0
43.670        40
43.680         0
43.690        20
43.700        20
43.710        27
43.720         7
43.730        40
43.740        27
43.750        13
43.760        27
43.770         0
43.780        13
43.790        20
43.800        53
43.810        13
43.820        27
43.830        27
43.840        13
43.850        27
43.860        27
43.870        13
43.880        13
43.890         7
43.900        13
43.910         7
43.920        20
43.930        13
43.940        20
43.950        33
43.960        33
43.970        27
43.980        20
43.990         7
44.000        27
44.010        13
44.020        33
44.030        27
44.040        20
44.050         7
44.060        13
44.070        13
44.080        20
44.090        33
44.100        40
44.110        27
44.120         7
44.130         7
44.140        13
44.150        20
44.160        13
44.170        13
44.180        20
44.190         7
44.200        20
44.210        33
44.220        27
44.230        20
44.240        20
44.250        47
44.260        53
44.270        13
44.280        20
44.290        33
44.300        27
44.310        27
44.320        13
44.330        20
44.340        20
44.350        13
44.360        33
44.370        13
44.380         7
44.390        20
44.400         7
44.410        27
44.420        40
44.430        20
44.440        20
44.450        13
44.460        20
44.470        27
44.480        13
44.490         7
44.500         7
44.510        40
44.520        13
44.530        13
44.540        13
44.550        13
44.560        33
44.570        33
44.580        33
44.590        53
44.600        20
44.610         7
44.620        13
44.630         0
44.640        67
44.650        20
44.660        40
44.670        20
44.680        33
44.690        13
44.700        33
44.710        20
44.720        13
44.730        27
44.740        20
44.750         7
44.760        13
44.770        27
44.780        27
44.790        20
44.800        27
44.810         7
44.820        13
44.830        20
44.840        33
44.850        20
44.860        13
44.870         7
44.880        20
44.890         7
44.900        20
44.910         0
44.920        13
44.930        13
44.940        20
44.950        13
44.960        33
44.970        13
44.980        27
44.990        27
45.000        27
45.010        20
45.020        20
45.030        13
45.040        20
45.050        20
45.060        33
45.070         7
45.080         7
45.090        20
45.100         7
45.110        27
45.120         0
45.130        27
45.140        20
45.150        27
45.160        40
45.170         7
45.180        33
45.190        20
45.200        40
45.210        27
45.220        27
45.230        13
45.240        27
45.250        13
45.260        40
45.270         7
45.280        33
45.290        33
45.300        27
45.310        20
45.320        27
45.330        13
45.340        40
45.350        20
45.360        20
45.370        27
45.380        27
45.390        20
45.400        20
45.410        47
45.420        27
45.430        27
45.440         0
45.450        33
45.460        27
45.470        40
45.480         7
45.490        20
45.500        13
45.510        40
45.520        20
45.530        27
45.540        13
45.550         0
45.560        27
45.570        40
45.580        40
45.590        47
45.600         7
45.610        47
45.620        67
45.630        53
45.640        40
45.650        20
45.660        60
45.670        13
45.680        33
45.690        27
45.700        27
45.710        27
45.720        47
45.730        47
45.740        33
45.750        20
45.760        33
45.770        47
45.780        27
45.790        40
45.800        40
45.810        40
45.820        20
45.830        53
45.840        27
45.850        40
45.860        47
45.870        33
45.880         7
45.890        27
45.900        47
45.910        80
45.920        60
45.930        67
45.940        33
45.950        53
45.960        47
45.970        33
45.980        40
45.990        47
46.000        47
46.010        40
46.020        47
46.030        47
46.040        40
46.050        87
46.060        60
46.070        53
46.080        87
46.090        60
46.100        20
46.110        53
46.120        47
46.130        73
46.140        53
46.150        33
46.160        33
46.170        73
46.180        20
46.190        60
46.200        47
46.210        47
46.220        73
46.230        47
46.240        60
46.250        27
46.260        73
46.270        53
46.280        47
46.290        53
46.300        87
46.310        47
46.320        80
46.330        13
46.340        60
46.350        40
46.360        47
46.370        27
46.380        20
46.390        47
46.400        33
46.410        40
46.420        20
46.430        53
46.440        13
46.450        13
46.460        40
46.470        47
46.480        33
46.490        47
46.500        27
46.510        13
46.520        40
46.530        33
46.540        33
46.550        20
46.560        40
46.570        60
46.580        20
46.590        27
46.600        33
46.610        20
46.620        33
46.630        53
46.640        13
46.650        40
46.660        20
46.670        40
46.680         7
46.690        27
46.700        47
46.710         7
46.720        27
46.730        33
46.740        20
46.750        27
46.760        40
46.770        20
46.780        20
46.790        27
46.800        13
46.810        40
46.820        13
46.830        47
46.840        33
46.850        13
46.860        27
46.870         7
46.880         7
46.890        60
46.900        40
46.910        27
46.920        27
46.930         0
46.940        13
46.950        13
46.960        20
46.970         7
46.980        27
46.990        47
47.000         7
47.010        20
47.020         7
47.030        20
47.040        53
47.050         7
47.060        20
47.070        40
47.080        47
47.090        47
47.100        20
47.110        27
47.120        13
47.130        47
47.140        27
47.150        20
47.160        40
47.170        20
47.180        40
47.190        33
47.200        33
47.210        20
47.220        53
47.230        13
47.240        13
47.250        27
47.260        20
47.270        33
47.280        13
47.290        40
47.300        13
47.310        33
47.320        20
47.330        40
47.340        33
47.350        40
47.360        13
47.370        60
47.380        53
47.390        27
47.400         7
47.410        40
47.420        20
47.430        47
47.440        27
47.450        27
47.460        33
47.470        20
47.480        20
47.490        20
47.500        20
47.510        33
47.520        27
47.530        40
47.540         7
47.550        13
47.560        33
47.570        13
47.580        27
47.590        20
47.600        13
47.610        27
47.620        20
47.630        20
47.640        20
47.650         7
47.660        13
47.670         7
47.680        20
47.690        20
47.700        13
47.710        33
47.720        13
47.730        13
47.740        27
47.750        20
47.760        20
47.770        13
47.780         7
47.790        20
47.800         0
47.810        13
47.820         0
47.830        27
47.840        27
47.850        20
47.860         0
47.870         7
47.880        13
47.890        40
47.900        20
47.910        13
47.920        13
47.930         0
47.940        20
47.950        13
47.960        20
47.970        20
47.980        27
47.990        13
48.000        47
48.010        20
48.020        20
48.030        40
48.040         7
48.050        27
48.060        20
48.070        13
48.080        47
48.090        20
48.100         7
48.110         7
48.120        47
48.130         7
48.140        20
48.150        20
48.160        13
48.170        20
48.180        20
48.190        20
48.200        27
48.210        13
48.220        20
48.230        40
48.240        47
48.250        40
48.260        13
48.270         0
48.280        13
48.290        27
48.300        27
48.310        27
48.320        27
48.330        20
48.340        27
48.350        27
48.360        40
48.370         7
48.380        20
48.390        27
48.400        13
48.410         7
48.420        20
48.430        27
48.440        13
48.450        20
48.460        27
48.470        40
48.480         7
48.490        33
48.500         7
48.510         7
48.520        13
48.530        20
48.540        27
48.550        40
48.560        13
48.570        13
48.580        27
48.590        20
48.600        13
48.610        47
48.620        27
48.630        27
48.640         0
48.650         7
48.660        40
48.670         7
48.680        13
48.690        27
48.700         7
48.710        13
48.720        13
48.730        40
48.740        27
48.750        20
48.760        13
48.770        13
48.780        33
48.790        20
48.800        33
48.810        20
48.820        27
48.830         0
48.840        13
48.850        13
48.860        20
48.870         7
48.880        27
48.890        13
48.900        20
48.910        13
48.920        40
48.930        13
48.940        13
48.950        20
48.960        20
48.970        20
48.980        33
48.990        13
49.000        33
49.010        13
49.020         7
49.030        27
49.040        13
49.050         7
49.060        40
49.070        20
49.080         7
49.090        13
49.100        27
49.110        20
49.120        13
49.130        27
49.140        20
49.150         7
49.160        13
49.170         7
49.180        27
49.190         7
49.200        20
49.210         7
49.220        40
49.230         0
49.240        20
49.250        33
49.260        33
49.270         7
49.280        20
49.290        13
49.300        13
49.310        33
49.320        27
49.330         7
49.340        33
49.350        40
49.360        40
49.370         0
49.380        13
49.390        20
49.400        27
49.410        13
49.420        20
49.430         7
49.440        33
49.450        13
49.460        13
49.470        27
49.480        13
49.490        40
49.500        20
49.510        20
49.520        40
49.530        13
49.540        40
49.550        13
49.560        27
49.570         7
49.580        20
49.590        27
49.600        20
49.610         7
49.620         7
49.630        27
49.640        20
49.650        27
49.660        13
49.670        40
49.680        13
49.690        27
49.700        13
49.710        33
49.720        33
49.730        13
49.740        13
49.750        13
49.760        33
49.770        27
49.780        27
49.790        33
49.800         7
49.810        20
49.820        47
49.830        20
49.840        27
49.850        47
49.860        27
49.870        13
49.880        20
49.890        47
49.900        20
49.910        60
49.920        27
49.930        20
49.940        40
49.950        20
49.960        20
49.970        33
49.980        27
49.990        40
50.000        53
50.010        33
50.020        33
50.030        13
50.040        33
50.050        40
50.060        33
50.070        33
50.080        33
50.090        40
50.100         0
50.110        27
50.120        13
50.130        40
50.140        47
50.150        20
50.160        33
50.170        33
50.180        27
50.190        13
50.200         7
50.210        27
50.220        13
50.230        13
50.240        47
50.250         0
50.260        27
50.270        13
50.280        20
50.290        13
50.300         7
50.310        27
50.320        27
50.330        13
50.340        27
50.350        13
50.360        20
50.370        27
50.380        20
50.390        40
50.400        47
50.410        13
50.420        27
50.430        40
50.440        47
50.450        13
50.460        27
50.470        27
50.480        33
50.490        13
50.500        27
50.510        27
50.520        13
50.530         7
50.540        13
50.550        27
50.560        40
50.570        40
50.580        13
50.590        33
50.600        20
50.610        13
50.620        13
50.630         7
50.640        27
50.650        27
50.660        13
50.670        20
50.680         7
50.690        33
50.700        20
50.710        40
50.720        27
50.730        27
50.740        33
50.750        20
50.760        27
50.770        20
50.780        20
50.790        33
50.800        13
50.810         7
50.820        20
50.830        40
50.840        20
50.850        13
50.860        27
50.870        20
50.880        27
50.890        33
50.900        20
50.910        13
50.920        13
50.930        27
50.940        33
50.950        27
50.960        33
50.970         7
50.980        40
50.990        13
51.000        27
51.010        33
51.020        27
51.030        33
51.040        13
51.050        40
51.060        20
51.070        20
51.080         7
51.090        33
51.100        27
51.110        47
51.120         7
51.130        40
51.140        47
51.150        27
51.160        40
51.170        33
51.180        27
51.190        13
51.200        33
51.210        27
51.220         7
51.230        40
51.240        47
51.250        20
51.260        27
51.270        27
51.280        20
51.290        13
51.300        40
51.310        40
51.320        20
51.330        53
51.340        33
51.350        60
51.360        13
51.370        53
51.380        40
51.390        53
51.400        33
51.410        40
51.420        27
51.430        40
51.440        33
51.450        40
51.460        33
51.470        33
51.480        33
51.490        27
51.500        20
51.510        33
51.520        33
51.530         7
51.540        20
51.550        33
51.560        40
51.570        33
51.580        20
51.590        47
51.600        27
51.610        47
51.620        47
51.630        27
51.640        53
51.650        40
51.660        67
51.670        33
51.680        67
51.690        47
51.700        47
51.710        27
51.720        67
51.730        60
51.740        60
51.750        53
51.760        67
51.770        53
51.780        20
51.790        40
51.800        53
51.810        67
51.820        60
51.830        27
51.840        80
51.850        80
51.860        33
51.870        47
51.880        53
51.890        33
51.900        67
51.910        60
51.920        47
51.930        33
51.940        47
51.950        67
51.960        40
51.970        47
51.980        47
51.990        73
52.000        33
52.010        33
52.020        80
52.030        53
52.040        33
52.050        33
52.060        27
52.070        87
52.080        47
52.090        73
52.100        47
52.110        33
52.120        47
52.130        60
52.140        20
52.150        40
52.160        47
52.170        53
52.180        40
52.190        73
52.200        47
52.210        47
52.220        47
52.230        33
52.240        40
52.250        27
52.260        67
52.270        53
52.280        40
52.290        40
52.300        33
52.310        27
52.320        33
52.330        33
52.340        27
52.350        60
52.360        67
52.370        87
52.380        33
52.390        53
52.400        47
52.410        53
52.420        33
52.430        40
52.440        80
52.450        47
52.460        93
52.470        40
52.480        40
52.490        33
52.500        87
52.510        53
52.520        87
52.530        40
52.540        87
52.550       120
52.560       120
52.570        80
52.580       113
52.590        87
52.600       113
52.610        93
52.620        33
52.630        67
52.640        53
52.650        80
52.660        60
52.670        73
52.680        67
52.690        87
52.700       100
52.710        73
52.720        33
52.730        60
52.740        67
52.750        40
52.760        67
52.770        47
52.780        47
52.790        67
52.800        20
52.810        13
52.820        40
52.830        33
52.840        47
52.850        53
52.860        67
52.870        47
52.880        27
52.890        20
52.900        33
52.910        13
52.920        33
52.930        27
52.940        13
52.950        53
52.960        53
52.970        47
52.980        33
52.990        27
53.000        53
53.010        13
53.020        40
53.030         7
53.040        27
53.050        47
53.060        33
53.070        20
53.080        27
53.090        33
53.100        67
53.110        20
53.120        53
53.130        33
53.140        27
53.150        40
53.160        33
53.170        20
53.180        20
53.190        53
53.200        27
53.210        13
53.220        47
53.230        47
53.240        47
53.250        20
53.260        40
53.270         0
53.280        40
53.290        33
53.300        27
53.310        33
53.320        27
53.330        20
53.340        20
53.350        20
53.360        33
53.370        33
53.380        20
53.390         0
53.400        27
53.410        27
53.420        40
53.430         7
53.440        20
53.450        33
53.460        27
53.470         7
53.480        40
53.490        27
53.500        27
53.510         7
53.520        47
53.530        27
53.540        60
53.550        27
53.560        13
53.570         7
53.580         0
53.590        47
53.600        47
53.610        27
53.620        47
53.630        20
53.640        20
53.650        33
53.660         0
53.670        27
53.680        20
53.690        27
53.700        27
53.710         7
53.720        20
53.730        47
53.740        33
53.750        20
53.760        27
53.770        33
53.780         7
53.790        13
53.800         7
53.810        33
53.820        47
53.830        33
53.840        20
53.850        40
53.860        13
53.870        33
53.880        13
53.890        27
53.900        20
53.910        47
53.920        13
53.930        33
53.940        33
53.950        33
53.960        13
53.970        13
53.980        27
53.990        27
54.000        13
54.010        13
54.020        20
54.030        20
54.040        33
54.050        20
54.060        20
54.070        40
54.080        13
54.090        40
54.100        33
54.110        33
54.120        27
54.130         0
54.140        20
54.150        27
54.160        33
54.170        33
54.180        53
54.190        27
54.200        20
54.210        40
54.220        27
54.230        20
54.240        33
54.250        27
54.260        27
54.270         0
54.280        27
54.290        27
54.300        33
54.310        33
54.320        13
54.330         0
54.340        33
54.350        47
54.360        40
54.370        33
54.380        27
54.390        27
54.400        53
54.410        47
54.420        27
54.430         7
54.440        27
54.450        20
54.460        27
54.470         7
54.480        20
54.490        13
54.500        20
54.510        20
54.520        13
54.530        47
54.540         7
54.550        13
54.560        40
54.570        13
54.580        40
54.590        33
54.600        13
54.610        20
54.620        60
54.630        27
54.640        27
54.650         7
54.660         7
54.670        27
54.680         7
54.690         7
54.700        27
54.710        20
54.720        40
54.730        27
54.740        27
54.750        20
54.760        13
54.770         7
54.780        40
54.790        33
54.800        27
54.810        27
54.820        33
54.830        13
54.840        20
54.850        20
54.860        33
54.870        20
54.880        27
54.890        33
54.900         7
54.910        13
54.920         7
54.930        47
54.940        27
54.950        33
54.960        13
54.970        27
54.980        33
54.990        20
55.000        20
55.010        20
55.020        20
55.030         7
55.040        13
55.050         7
55.060        27
55.070         7
55.080        27
55.090        27
55.100        47
55.110        33
55.120        27
55.130        13
55.140         7
55.150        13
55.160        33
55.170        27
55.180        13
55.190        13
55.200        20
55.210        13
55.220        20
55.230        27
55.240        40
55.250         7
55.260         0
55.270        13
55.280         7
55.290        20
55.300         0
55.310         7
55.320        13
55.330         7
55.340         0
55.350        27
55.360        20
55.370         7
55.380        13
55.390        40
55.400         7
55.410        27
55.420         7
55.430        27
55.440         7
55.450        20
55.460        33
55.470        13
55.480        20
55.490        33
55.500        33
55.510        33
55.520        13
55.530        27
55.540         7
55.550        13
55.560        47
55.570         7
55.580        27
55.590        13
55.600        27
55.610        33
55.620        13
55.630        20
55.640         7
55.650        40
55.660        33
55.670        13
55.680        33
55.690        33
55.700        13
55.710        27
55.720        27
55.730        40
55.740        27
55.750        27
55.760        13
55.770        13
55.780        27
55.790        27
55.800        13
55.810        13
55.820        20
55.830        13
55.840        27
55.850         7
55.860        33
55.870         7
55.880         7
55.890        53
55.900         7
55.910        13
55.920        20
55.930        20
55.940         0
55.950        27
55.960        20
55.970         0
55.980        27
55.990        27
56.000        13
56.010        27
56.020        13
56.030        13
56.040        13
56.050        20
56.060        13
56.070        40
56.080         0
56.090        27
56.100         7
56.110         7
56.120        27
56.130        13
56.140        33
56.150         7
56.160        27
56.170        33
56.180        20
56.190        13
56.200         7
56.210        33
56.220         7
56.230        53
56.240         7
56.250         0
56.260        13
56.270        27
56.280        13
56.290        53
56.300         7
56.310        33
56.320        27
56.330        20
56.340        27
56.350        20
56.360        27
56.370        13
56.380         0
56.390        13
56.400        33
56.410        20
56.420        20
56.430        40
56.440        13
56.450        20
56.460         7
56.470        27
56.480        27
56.490        27
56.500        13
56.510        13
56.520         0
56.530        20
56.540        27
56.550        20
56.560        20
56.570        20
56.580        40
56.590        20
56.600        20
56.610        13
56.620        40
56.630         7
56.640         0
56.650        20
56.660         7
56.670        47
56.680        20
56.690        13
56.700        20
56.710        13
56.720        13
56.730         0
56.740        13
56.750        27
56.760         7
56.770         0
56.780        20
56.790        20
56.800         0
56.810        13
56.820        40
56.830        20
56.840        13
56.850        20
56.860        40
56.870         7
56.880         7
56.890        20
56.900        27
56.910        33
56.920        33
56.930        47
56.940        13
56.950        13
56.960        13
56.970        33
56.980         7
56.990         0
57.000         7
57.010        20
57.020        13
57.030        27
57.040        40
57.050        13
57.060        40
57.070        27
57.080        20
57.090        47
57.100        13
57.110        27
57.120        20
57.130        20
57.140        27
57.150        20
57.160        20
57.170        47
57.180        20
57.190         7
57.200        13
57.210        13
57.220        20
57.230        13
57.240        20
57.250        20
57.260        40
57.270        13
57.280        20
57.290        13
57.300        40
57.310        40
57.320         0
57.330        40
57.340        20
57.350         0
57.360        20
57.370        40
57.380        47
57.390        20
57.400        27
57.410        20
57.420        33
57.430        27
57.440         0
57.450        60
57.460        33
57.470        40
57.480        27
57.490        47
57.500        33
57.510        33
57.520        27
57.530        40
57.540        60
57.550        53
57.560         7
57.570        40
57.580        53
57.590        60
57.600        27
57.610        27
57.620        33
57.630        60
57.640        53
57.650        13
57.660        13
57.670        33
57.680        40
57.690        33
57.700        53
57.710        40
57.720        53
57.730        73
57.740        27
57.750        47
57.760        20
57.770        27
57.780        33
57.790        67
57.800        47
57.810        60
57.820        20
57.830        60
57.840        13
57.850        47
57.860        40
57.870        67
57.880        67
57.890        13
57.900        87
57.910        27
57.920        33
57.930        27
57.940        33
57.950        47
57.960        33
57.970        33
57.980        20
57.990        60
58.000        33
58.010        40
58.020        33
58.030        13
58.040        13
58.050        20
58.060        27
58.070        27
58.080        13
58.090        27
58.100        33
58.110        27
58.120        27
58.130        13
58.140        27
58.150        27
58.160         7
58.170        40
58.180         7
58.190        27
58.200        20
58.210        13
58.220        13
58.230        33
58.240        20
58.250        40
58.260        33
58.270        33
58.280        13
58.290        33
58.300        40
58.310        13
58.320        27
58.330        33
58.340        20
58.350        27
58.360         0
58.370        33
58.380        20
58.390         7
58.400        13
58.410        20
58.420        13
58.430        27
58.440        13
58.450         0
58.460        27
58.470        20
58.480        13
58.490         7
58.500        27
58.510        13
58.520        13
58.530        20
58.540        20
58.550        13
58.560         0
58.570         7
58.580        13
58.590        27
58.600        20
58.610        13
58.620        27
58.630         0
58.640        20
58.650        20
58.660        47
58.670         7
58.680         7
58.690        20
58.700        13
58.710        27
58.720        20
58.730         0
58.740        40
58.750        20
58.760        27
58.770        27
58.780         7
58.790        13
58.800        20
58.810        20
58.820         7
58.830        13
58.840        13
58.850        27
58.860        33
58.870        27
58.880         7
58.890        27
58.900        27
58.910        20
58.920        20
58.930        13
58.940        13
58.950        33
58.960        20
58.970        20
58.980        13
58.990        20
59.000        27
59.010        20
59.020        27
59.030        20
59.040         7
59.050        27
59.060        20
59.070        27
59.080        13
59.090        13
59.100        13
59.110        20
59.120        20
59.130         7
59.140         7
59.150        20
59.160         7
59.170        13
59.180         0
59.190        13
59.200         7
59.210        20
59.220         0
59.230        13
59.240         7
59.250         7
59.260        13
59.270        20
59.280         0
59.290         7
59.300        27
59.310        13
59.320         7
59.330         7
59.340        13
59.350        27
59.360        20
59.370        13
59.380         7
59.390        20
59.400        13
59.410         0
59.420        33
59.430        13
59.440        20
59.450        20
59.460        13
59.470        13
59.480        27
59.490        20
59.500        33
59.510        20
59.520        20
59.530        20
59.540        13
59.550        13
59.560         0
59.570         7
59.580        13
59.590        20
59.600        13
59.610        13
59.620        20
59.630        27
59.640        20
59.650        20
59.660        27
59.670        27
59.680        13
59.690        27
59.700        20
59.710        20
59.720         7
59.730        13
59.740        20
59.750        33
59.760        13
59.770        33
59.780         7
59.790        40
59.800        33
59.810         7
59.820        33
59.830        13
59.840        13
59.850         0
59.860        27
59.870        20
59.880        53
59.890        20
59.900        20
59.910        13
59.920        20
59.930        20
59.940        27
59.950         0
59.960        13
59.970        13
59.980        33
59.990         0
60.000         0
