20.000        27
20.010        27
20.020        40
20.030        40
20.040        60
20.050        27
20.060        80
20.070        67
20.080        53
20.090        47
20.100        27
20.110        40
20.120        33
20.130        67
20.140        40
20.150        47
20.160        53
20.170        27
20.180        27
20.190        60
20.200        40
20.210        60
20.220        53
20.230        13
20.240        27
20.250        27
20.260        47
20.270       100
20.280        27
20.290        53
20.300        40
20.310        47
20.320        80
20.330        47
20.340        47
20.350        40
20.360        60
20.370        87
20.380        13
20.390        47
20.400        67
20.410        40
20.420        33
20.430        67
20.440        20
20.450        53
20.460        53
20.470        40
20.480        53
20.490        53
20.500        67
20.510        33
20.520        53
20.530        27
20.540        53
20.550        40
20.560        60
20.570        47
20.580        40
20.590        53
20.600        53
20.610        33
20.620        40
20.630        33
20.640        33
20.650        40
20.660        27
20.670        20
20.680        67
20.690        60
20.700        60
20.710        27
20.720        60
20.730        20
20.740        47
20.750        53
20.760        27
20.770        73
20.780        47
20.790        40
20.800        40
20.810        93
20.820        20
20.830        40
20.840        33
20.850        60
20.860        60
20.870        47
20.880        53
20.890        93
20.900        80
20.910        33
20.920        60
20.930        40
20.940        13
20.950        33
20.960        80
20.970        27
20.980        33
20.990        73
21.000        27
21.010        40
21.020        87
21.030        53
21.040        67
21.050        73
21.060        40
21.070        20
21.080        80
21.090        40
21.100        47
21.110        53
21.120        53
21.130        60
21.140        60
21.150        60
21.160        27
21.170        47
21.180        33
21.190        27
21.200        27
21.210        13
21.220        20
21.230        47
21.240        47
21.250        60
21.260        33
21.270        40
21.280        47
21.290        60
21.300        40
21.310        27
21.320        27
21.330        67
21.340        53
21.350        60
21.360        40
21.370        20
21.380        67
21.390        60
21.400        53
21.410        47
21.420        27
21.430        27
21.440        80
21.450        33
21.460        67
21.470        73
21.480        60
21.490        47
21.500        27
21.510        33
21.520        53
21.530        40
21.540        27
21.550        53
21.560        20
21.570        27
21.580        53
21.590        40
21.600        80
21.610        53
21.620        40
21.630        73
21.640        67
21.650        60
21.660        27
21.670        60
21.680        67
21.690        40
21.700        27
21.710        40
21.720        73
21.730        40
21.740        67
21.750        53
21.760        40
21.770        53
21.780        20
21.790        73
21.800        40
21.810        27
21.820        47
21.830        33
21.840        27
21.850        80
21.860        33
21.870        53
21.880        67
21.890        53
21.900        53
21.910        33
21.920        47
21.930        73
21.940        47
21.950        60
21.960        13
21.970        40
21.980        67
21.990        60
22.000        40
22.010        40
22.020        33
22.030        60
22.040        20
22.050        53
22.060        40
22.070        20
22.080        33
22.090        60
22.100        40
22.110        60
22.120        53
22.130        53
22.140        60
22.150        67
22.160        47
22.170        53
22.180        47
22.190        67
22.200        67
22.210        60
22.220        87
22.230        47
22.240       107
22.250        47
22.260        47
22.270        33
22.280       107
22.290        47
22.300        33
22.310        93
22.320        60
22.330        60
22.340        73
22.350        73
22.360        60
22.370        73
22.380        87
22.390        60
22.400        87
22.410        73
22.420        53
22.430        87
22.440        93
22.450        87
22.460        87
22.470       113
22.480       120
22.490       133
22.500       127
22.510       133
22.520       160
22.530       147
22.540       133
22.550       147
22.560       153
22.570        87
22.580       133
22.590       160
22.600       160
22.610       120
22.620       153
22.630       153
22.640       227
22.650       187
22.660       173
22.670       240
22.680       187
22.690       180
22.700       120
22.710       133
22.720       213
22.730        87
22.740       107
22.750       127
22.760       180
22.770       107
22.780       160
22.790       120
22.800        60
22.810       100
22.820       100
22.830       120
22.840       120
22.850        80
22.860       127
22.870       127
22.880        87
22.890       107
22.900        87
22.910       107
22.920        80
22.930        53
22.940        60
22.950        67
22.960        80
22.970        73
22.980        53
22.990        40
23.000        73
23.010        47
23.020        47
23.030        93
23.040       100
23.050        73
23.060        27
23.070        80
23.080        53
23.090        67
23.100        87
23.110        47
23.120        53
23.130        53
23.140        47
23.150        53
23.160        53
23.170        67
23.180        80
23.190        27
23.200        53
23.210        47
23.220        40
23.230        67
23.240        60
23.250        67
23.260        40
23.270        87
23.280        67
23.290        33
23.300        47
23.310        40
23.320        40
23.330        47
23.340        60
23.350        40
23.360        60
23.370        53
23.380        53
23.390        87
23.400        60
23.410        47
23.420        53
23.430        53
23.440        93
23.450        73
23.460        67
23.470        60
23.480        27
23.490        60
23.500        27
23.510        47
23.520        40
23.530        33
23.540        20
23.550        67
23.560        53
23.570        33
23.580        27
23.590        67
23.600        60
23.610        47
23.620        47
23.630        40
23.640        40
23.650        20
23.660        73
23.670        40
23.680        33
23.690        27
23.700        27
23.710        13
23.720        33
23.730        60
23.740        27
23.750        53
23.760        13
23.770        53
23.780        47
23.790        67
23.800         7
23.810        47
23.820        60
23.830        20
23.840        60
23.850        33
23.860        33
23.870        40
23.880        33
23.890        40
23.900        40
23.910        47
23.920        80
23.930        27
23.940        40
23.950        80
23.960        73
23.970        47
23.980        80
23.990        67
24.000        53
24.010        73
24.020        47
24.030        47
24.040        53
24.050        47
24.060        33
24.070        53
24.080        40
24.090        60
24.100        20
24.110        33
24.120        60
24.130        47
24.140         7
24.150       100
24.160        33
24.170        40
24.180        27
24.190        27
24.200        13
24.210        60
24.220        60
24.230        27
24.240        53
24.250        60
24.260        53
24.270        27
24.280        40
24.290        20
24.300        27
24.310        27
24.320        47
24.330        53
24.340        47
24.350        20
24.360        67
24.370         0
24.380        40
24.390        33
24.400        33
24.410        33
24.420        40
24.430        47
24.440        47
24.450        20
24.460        80
24.470        47
24.480        33
24.490        53
24.500        33
24.510        40
24.520        33
24.530        40
24.540        53
24.550        87
24.560        33
24.570        40
24.580        40
24.590         7
24.600        33
24.610        47
24.620        40
24.630        87
24.640        27
24.650        27
24.660        67
24.670        60
24.680        27
24.690        47
24.700        53
24.710        47
24.720        47
24.730        40
24.740        47
24.750        53
24.760        60
24.770        67
24.780        47
24.790        27
24.800        27
24.810        73
24.820        47
24.830        53
24.840        27
24.850        27
24.860        27
24.870        33
24.880        53
24.890        47
24.900        53
24.910        40
24.920        53
24.930        53
24.940        33
24.950        13
24.960        40
24.970        53
24.980        27
24.990        47
25.000        53
25.010        40
25.020        33
25.030        47
25.040        60
25.050        47
25.060        40
25.070        40
25.080         7
25.090        13
25.100        60
25.110        13
25.120         7
25.130        47
25.140        40
25.150        47
25.160        40
25.170        53
25.180        73
25.190        47
25.200        27
25.210        40
25.220        40
25.230        47
25.240        40
25.250        47
25.260        53
25.270        27
25.280         7
25.290        33
25.300        33
25.310        53
25.320        33
25.330        40
25.340        47
25.350        40
25.360        47
25.370        53
25.380         0
25.390        33
25.400        27
25.410        60
25.420        33
25.430        47
25.440        53
25.450        40
25.460        33
25.470        73
25.480        33
25.490        80
25.500        40
25.510        67
25.520        27
25.530        80
25.540        93
25.550        93
25.560        87
25.570       160
25.580        87
25.590       120
25.600       107
25.610       120
25.620       107
25.630       173
25.640       120
25.650       107
25.660       253
25.670       140
25.680       120
25.690        60
25.700        80
25.710        33
25.720        80
25.730        67
25.740        40
25.750        47
25.760        47
25.770        27
25.780        33
25.790        33
25.800        60
25.810        33
25.820        33
25.830        60
25.840        33
25.850        60
25.860        27
25.870        27
25.880        47
25.890        47
25.900        33
25.910        33
25.920        40
25.930        60
25.940        20
25.950        13
25.960        27
25.970        40
25.980        33
25.990        13
26.000        47
26.010        20
26.020        80
26.030        27
26.040        80
26.050        80
26.060        33
26.070        33
26.080        47
26.090        47
26.100        27
26.110        20
26.120        27
26.130        47
26.140        33
26.150        20
26.160        20
26.170        27
26.180        47
26.190        13
26.200        27
26.210        47
26.220        13
26.230        60
26.240        13
26.250        40
26.260        27
26.270        27
26.280         7
26.290        60
26.300        33
26.310        40
26.320        27
26.330        33
26.340        20
26.350        20
26.360        27
26.370        93
26.380        60
26.390        27
26.400        27
26.410        33
26.420        60
26.430        20
26.440        27
26.450        27
26.460        47
26.470        40
26.480        67
26.490        27
26.500        47
26.510        27
26.520        40
26.530        60
26.540        27
26.550        67
26.560        53
26.570        47
26.580        33
26.590        53
26.600        40
26.610        20
26.620        33
26.630        53
26.640        27
26.650         7
26.660        27
26.670        27
26.680        47
26.690        27
26.700        20
26.710        53
26.720        40
26.730        27
26.740        40
26.750        33
26.760        47
26.770        47
26.780        40
26.790        40
26.800        27
26.810        47
26.820        40
26.830        33
26.840        40
26.850        67
26.860        33
26.870        47
26.880        40
26.890        33
26.900        40
26.910        33
26.920        20
26.930        20
26.940        27
26.950        47
26.960        27
26.970        47
26.980        67
26.990        67
27.000         0
27.010        47
27.020        33
27.030        33
27.040        47
27.050        13
27.060        20
27.070        53
27.080        47
27.090        33
27.100        33
27.110        47
27.120        27
27.130        20
27.140        27
27.150        40
27.160        40
27.170        20
27.180        40
27.190        33
27.200        47
27.210        33
27.220        67
27.230        67
27.240        40
27.250        53
27.260        27
27.270        60
27.280        47
27.290        60
27.300        33
27.310        47
27.320        53
27.330        40
27.340        47
27.350        33
27.360        13
27.370        47
27.380        27
27.390        13
27.400        33
27.410        27
27.420        27
27.430        67
27.440        40
27.450        47
27.460        13
27.470        33
27.480        13
27.490        53
27.500        80
27.510         0
27.520        20
27.530        53
27.540        60
27.550        33
27.560        40
27.570        13
27.580        33
27.590        20
27.600        60
27.610        13
27.620        33
27.630        40
27.640        47
27.650        47
27.660        73
27.670        33
27.680        80
27.690        40
27.700        27
27.710        40
27.720        27
27.730        33
27.740        33
27.750        27
27.760        27
27.770        20
27.780        27
27.790        40
27.800        40
27.810        20
27.820        13
27.830        40
27.840        53
27.850        40
27.860        20
27.870        27
27.880        27
27.890        33
27.900        20
27.910        27
27.920        27
27.930        20
27.940        27
27.950        33
27.960        33
27.970        13
27.980        40
27.990        13
28.000        20
28.010        33
28.020        27
28.030        27
28.040        33
28.050        33
28.060        20
28.070        60
28.080        33
28.090        40
28.100        33
28.110        33
28.120        53
28.130        40
28.140        40
28.150        13
28.160        53
28.170        33
28.180        67
28.190        40
28.200        60
28.210        33
28.220        33
28.230        33
28.240        53
28.250         7
28.260        47
28.270        47
28.280        27
28.290        20
28.300        27
28.310        27
28.320        53
28.330        13
28.340        53
28.350        53
28.360        20
28.370        53
28.380        47
28.390        33
28.400        27
28.410        13
28.420        40
28.430        27
28.440        33
28.450        27
28.460        47
28.470        40
28.480        27
28.490        53
28.500        40
28.510        47
28.520        40
28.530        60
28.540        47
28.550        27
28.560        27
28.570        40
28.580        53
28.590        53
28.600        40
28.610         7
28.620        20
28.630        33
28.640        13
28.650        40
28.660        27
28.670        33
28.680        20
28.690        20
28.700        20
28.710        33
28.720        53
28.730        27
28.740        53
28.750        40
28.760        20
28.770        40
28.780        40
28.790        20
28.800        27
28.810        40
28.820        27
28.830        27
28.840        53
28.850        33
28.860        27
28.870        47
28.880        20
28.890        27
28.900        60
28.910        60
28.920        60
28.930        40
28.940        27
28.950        47
28.960        27
28.970        40
28.980        53
28.990        27
29.000        47
29.010        40
29.020        33
29.030        13
29.040        33
29.050        33
29.060        13
29.070        40
29.080        20
29.090        53
29.100        53
29.110        53
29.120        47
29.130        53
29.140        47
29.150        47
29.160        47
29.170        40
29.180        27
29.190        53
29.200        67
29.210        73
29.220        33
29.230        40
29.240        27
29.250        67
29.260        53
29.270        13
29.280        53
29.290        40
29.300        40
29.310        13
29.320        27
29.330        33
29.340        40
29.350        40
29.360        47
29.370        40
29.380        20
29.390        53
29.400        13
29.410        20
29.420        47
29.430        20
29.440        13
29.450        53
29.460        27
29.470        27
29.480        40
29.490        40
29.500        40
29.510        47
29.520        33
29.530        20
29.540        53
29.550        47
29.560        53
29.570        40
29.580        53
29.590        27
29.600        40
29.610        53
29.620        33
29.630         7
29.640         7
29.650        13
29.660        33
29.670        27
29.680        20
29.690        40
29.700        53
29.710        27
29.720        53
29.730        13
29.740        33
29.750        53
29.760        60
29.770        33
29.780        27
29.790        33
29.800        40
29.810        33
29.820        27
29.830        20
29.840        27
29.850        47
29.860        20
29.870        33
29.880        47
29.890        53
29.900        13
29.910        27
29.920        53
29.930        27
29.940        27
29.950        47
29.960        27
29.970        27
29.980        13
29.990        33
30.000        40
30.010        47
30.020        27
30.030        53
30.040        47
30.050        27
30.060        27
30.070        20
30.080        33
30.090        20
30.100        27
30.110        40
30.120        13
30.130        33
30.140        20
30.150        20
30.160        47
30.170        27
30.180        13
30.190        33
30.200         7
30.210        33
30.220        60
30.230        13
30.240        60
30.250        33
30.260        33
30.270        47
30.280        40
30.290        27
30.300         0
30.310        53
30.320        33
30.330        47
30.340        20
30.350        40
30.360        33
30.370        40
30.380        47
30.390        47
30.400        27
30.410        20
30.420        33
30.430        33
30.440        27
30.450        40
30.460        13
30.470        13
30.480        53
30.490         7
30.500        13
30.510        47
30.520        27
30.530        40
30.540        60
30.550        20
30.560        33
30.570         7
30.580        27
30.590        40
30.600        13
30.610        20
30.620        27
30.630        53
30.640        13
30.650        13
30.660        13
30.670        33
30.680        20
30.690        27
30.700        20
30.710        47
30.720        27
30.730        40
30.740        33
30.750        27
30.760        20
30.770        27
30.780        27
30.790        40
30.800        47
30.810        33
30.820        20
30.830        20
30.840        20
30.850        47
30.860         7
30.870        33
30.880        33
30.890        20
30.900        33
30.910        27
30.920         7
30.930        27
30.940        53
30.950        33
30.960        13
30.970        13
30.980        20
30.990        47
31.000        13
31.010        60
31.020         7
31.030        53
31.040        60
31.050        33
31.060        20
31.070        40
31.080        33
31.090        13
31.100        40
31.110        33
31.120        27
31.130        13
31.140        33
31.150        13
31.160        13
31.170        13
31.180        53
31.190        40
31.200        53
31.210        53
31.220        13
31.230        67
31.240        27
31.250        33
31.260        47
31.270        13
31.280        27
31.290        27
31.300        33
31.310        60
31.320        13
31.330        47
31.340        33
31.350        47
31.360        40
31.370        53
31.380        13
31.390        47
31.400        47
31.410        40
31.420        40
31.430         7
31.440        33
31.450        33
31.460        53
31.470        47
31.480        33
31.490        40
31.500        73
31.510        33
31.520        13
31.530        27
31.540        27
31.550        27
31.560        27
31.570        53
31.580        20
31.590        40
31.600        20
31.610        47
31.620        20
31.630        53
31.640        40
31.650        33
31.660        60
31.670        27
31.680        27
31.690        33
31.700        27
31.710        33
31.720        53
31.730        80
31.740        53
31.750        27
31.760        13
31.770        33
31.780         7
31.790        33
31.800        47
31.810        60
31.820        27
31.830        40
31.840        40
31.850        47
31.860        20
31.870        47
31.880        27
31.890        47
31.900        27
31.910        53
31.920        40
31.930        40
31.940        47
31.950        47
31.960        60
31.970        60
31.980        33
31.990        67
32.000        60
32.010        67
32.020        47
32.030        53
32.040        40
32.050        80
32.060       107
32.070        67
32.080        40
32.090        87
32.100        73
32.110        80
32.120        87
32.130       120
32.140       133
32.150       133
32.160        93
32.170       140
32.180       127
32.190        67
32.200       107
32.210       140
32.220       107
32.230       153
32.240       100
32.250       173
32.260       160
32.270       227
32.280       173
32.290       220
32.300       193
32.310       187
32.320       187
32.330       240
32.340       213
32.350       213
32.360       247
32.370       133
32.380       247
32.390       153
32.400       253
32.410       227
32.420       200
32.430       220
32.440       193
32.450       173
32.460       240
32.470       213
32.480       207
32.490       187
32.500       133
32.510       120
32.520       200
32.530        87
32.540       160
32.550       100
32.560        80
32.570        73
32.580       120
32.590       107
32.600        87
32.610        93
32.620       100
32.630       107
32.640       107
32.650        93
32.660        67
32.670        87
32.680       140
32.690       100
32.700        60
32.710        93
32.720        40
32.730        67
32.740        80
32.750        87
32.760        33
32.770        47
32.780        87
32.790        40
32.800        67
32.810        33
32.820        47
32.830        33
32.840        87
32.850        87
32.860        53
32.870        33
32.880        67
32.890        33
32.900        27
32.910        40
32.920        13
32.930        53
32.940        27
32.950        20
32.960        13
32.970        33
32.980        40
32.990        40
33.000        47
33.010        60
33.020        40
33.030        73
33.040        27
33.050        27
33.060        47
33.070        27
33.080        40
33.090        13
33.100        20
33.110        40
33.120        60
33.130        27
33.140        40
33.150        33
33.160        40
33.170        20
33.180         7
33.190        67
33.200        27
33.210        20
33.220        33
33.230        40
33.240        13
33.250        40
33.260        33
33.270         7
33.280        40
33.290        20
33.300        40
33.310        27
33.320        20
33.330        13
33.340        33
33.350        20
33.360        20
33.370        40
33.380        53
33.390        27
33.400        60
33.410        40
33.420        33
33.430        27
33.440        33
33.450        53
33.460        33
33.470        20
33.480        20
33.490        27
33.500        20
33.510        20
33.520        27
33.530        20
33.540        27
33.550        27
33.560        53
33.570        33
33.580        33
33.590        40
33.600        33
33.610        40
33.620        33
33.630        20
33.640        13
33.650        27
33.660        40
33.670        60
33.680        33
33.690        20
33.700        40
33.710        20
33.720        40
33.730        20
33.740        20
33.750        27
33.760        40
33.770        53
33.780        20
33.790        20
33.800        40
33.810        33
33.820        20
33.830        60
33.840        13
33.850        20
33.860        20
33.870        60
33.880        20
33.890        13
33.900        40
33.910        47
33.920        33
33.930        47
33.940        53
33.950        13
33.960        33
33.970        20
33.980        27
33.990        47
34.000        27
34.010        13
34.020        33
34.030        20
34.040        33
34.050        33
34.060        27
34.070        47
34.080        13
34.090        47
34.100        33
34.110        33
34.120        47
34.130        20
34.140        47
34.150        20
34.160        40
34.170        53
34.180        33
34.190        40
34.200        20
34.210        27
34.220        33
34.230        40
34.240        40
34.250        20
34.260        33
34.270        33
34.280        60
34.290         7
34.300        20
34.310        53
34.320        33
34.330        20
34.340        40
34.350         7
34.360        40
34.370        60
34.380        27
34.390        33
34.400        47
34.410        20
34.420        33
34.430        13
34.440        40
34.450        33
34.460        20
34.470        53
34.480        33
34.490        27
34.500        20
34.510        13
34.520        20
34.530        53
34.540        27
34.550        27
34.560        27
34.570        47
34.580        20
34.590        27
34.600        33
34.610        20
34.620        40
34.630        27
34.640        27
34.650        27
34.660        47
34.670         7
34.680        20
34.690        53
34.700        20
34.710        20
34.720        20
34.730        27
34.740        33
34.750        20
34.760        40
34.770        33
34.780        60
34.790        13
34.800        47
34.810        33
34.820        40
34.830        40
34.840        73
34.850        13
34.860        33
34.870        47
34.880        67
34.890        13
34.900        20
34.910        60
34.920        60
34.930        40
34.940        53
34.950        47
34.960        47
34.970        53
34.980        40
34.990        67
35.000        40
35.010        33
35.020        73
35.030        80
35.040        80
35.050        87
35.060        67
35.070        60
35.080       147
35.090       133
35.100        93
35.110       160
35.120       120
35.130       187
35.140       140
35.150       207
35.160       240
35.170       280
35.180       446
35.190       560
35.200       546
35.210       786
35.220       633
35.230       453
35.240       373
35.250       247
35.260       227
35.270       253
35.280       393
35.290       287
35.300       327
35.310       340
35.320       187
35.330       167
35.340       107
35.350       100
35.360        67
35.370        33
35.380        53
35.390        47
35.400        47
35.410        13
35.420        27
35.430        53
35.440        13
35.450        33
35.460        33
35.470        27
35.480        27
35.490        40
35.500        27
35.510        33
35.520        47
35.530        13
35.540        20
35.550        47
35.560        60
35.570        27
35.580        27
35.590        20
35.600        20
35.610        20
35.620        40
35.630        27
35.640        47
35.650        47
35.660        27
35.670        40
35.680        27
35.690        20
35.700        53
35.710        47
35.720         7
35.730        33
35.740        20
35.750        33
35.760        40
35.770        33
35.780        40
35.790        53
35.800        27
35.810        13
35.820        33
35.830         7
35.840        13
35.850        20
35.860        13
35.870        27
35.880        27
35.890        33
35.900        27
35.910        20
35.920        33
35.930         0
35.940        33
35.950        20
35.960        27
35.970        20
35.980        27
35.990        47
36.000         0
36.010        13
36.020        47
36.030        40
36.040        27
36.050        13
36.060        20
36.070         0
36.080        73
36.090        47
36.100        13
36.110        47
36.120        20
36.130        47
36.140        47
36.150         7
36.160        13
36.170         7
36.180        40
36.190        53
36.200        27
36.210        40
36.220        27
36.230        33
36.240        27
36.250        53
36.260        13
36.270        13
36.280        40
36.290        40
36.300        20
36.310        33
36.320        27
36.330        27
36.340        93
36.350         7
36.360        47
36.370        20
36.380         7
36.390        27
36.400        27
36.410         7
36.420         0
36.430        27
36.440        27
36.450        20
36.460         0
36.470        40
36.480        13
36.490        60
36.500        47
36.510        20
36.520        13
36.530        13
36.540        33
36.550        27
36.560        47
36.570        47
36.580        40
36.590        27
36.600        33
36.610        33
36.620         7
36.630        27
36.640        13
36.650        33
36.660        13
36.670        27
36.680        27
36.690        33
36.700        20
36.710        27
36.720        47
36.730        13
36.740        40
36.750        13
36.760        20
36.770        20
36.780        47
36.790        33
36.800        27
36.810        20
36.820        53
36.830        27
36.840        53
36.850        33
36.860        20
36.870        20
36.880        27
36.890        27
36.900        20
36.910        47
36.920        47
36.930        27
36.940        87
36.950        53
36.960        47
36.970        33
36.980        47
36.990        33
37.000        53
37.010        40
37.020        40
37.030        27
37.040        20
37.050        33
37.060        33
37.070        53
37.080        20
37.090        27
37.100        27
37.110        20
37.120        40
37.130        20
37.140        27
37.150        13
37.160        20
37.170        20
37.180        13
37.190        60
37.200        13
37.210        33
37.220        20
37.230        20
37.240        20
37.250        27
37.260        53
37.270        27
37.280        13
37.290        60
37.300        27
37.310        27
37.320        33
37.330        27
37.340         0
37.350        20
37.360        40
37.370        33
37.380        53
37.390        53
37.400        20
37.410        20
37.420        60
37.430        13
37.440        20
37.450        27
37.460        20
37.470        40
37.480        13
37.490        13
37.500        20
37.510         7
37.520        13
37.530        20
37.540        27
37.550        40
37.560        60
37.570        47
37.580        20
37.590        13
37.600        33
37.610         7
37.620        27
37.630        53
37.640        20
37.650        40
37.660        67
37.670        47
37.680        60
37.690        47
37.700        40
37.710        27
37.720        47
37.730        47
37.740        60
37.750        47
37.760        73
37.770        67
37.780        53
37.790       107
37.800        20
37.810        60
37.820        60
37.830        33
37.840        67
37.850        20
37.860        73
37.870        40
37.880        27
37.890        53
37.900        20
37.910        13
37.920        13
37.930        20
37.940        67
37.950        33
37.960        40
37.970        27
37.980        13
37.990        20
38.000        27
38.010         0
38.020        20
38.030         0
38.040        33
38.050        27
38.060        60
38.070        40
38.080        47
38.090        40
38.100        33
38.110        13
38.120        27
38.130        27
38.140        20
38.150        33
38.160        20
38.170        33
38.180        33
38.190         0
38.200        40
38.210        33
38.220         7
38.230        33
38.240        47
38.250        27
38.260        40
38.270        27
38.280        13
38.290        47
38.300        40
38.310        13
38.320        33
38.330        13
38.340        13
38.350        27
38.360        27
38.370        33
38.380        40
38.390        20
38.400         7
38.410        33
38.420        27
38.430        13
38.440         7
38.450         7
38.460        20
38.470        13
38.480        20
38.490        13
38.500        20
38.510        40
38.520         7
38.530        40
38.540        20
38.550        20
38.560        20
38.570        33
38.580        13
38.590        13
38.600        53
38.610        27
38.620        27
38.630        13
38.640        33
38.650        27
38.660        27
38.670        53
38.680        13
38.690         0
38.700        20
38.710        33
38.720        20
38.730        33
38.740        33
38.750        47
38.760        20
38.770        27
38.780        13
38.790        13
38.800        27
38.810        33
38.820        20
38.830        47
38.840         7
38.850        40
38.860        40
38.870         7
38.880        13
38.890         7
38.900        33
38.910        13
38.920        33
38.930        27
38.940        20
38.950         7
38.960         7
38.970        13
38.980        20
38.990         7
39.000        40
39.010        27
39.020         7
39.030        33
39.040        27
39.050        40
39.060        20
39.070        13
39.080         7
39.090         7
39.100        27
39.110        20
39.120        53
39.130        20
39.140        47
39.150        27
39.160        60
39.170        20
39.180        47
39.190        27
39.200        20
39.210        47
39.220        20
39.230        27
39.240        20
39.250        33
39.260        47
39.270        47
39.280        47
39.290        20
39.300        20
39.310        13
39.320        40
39.330         7
39.340        20
39.350        40
39.360        33
39.370        20
39.380        40
39.390        27
39.400        67
39.410        33
39.420        40
39.430        27
39.440        20
39.450        47
39.460        40
39.470        20
39.480        33
39.490         0
39.500        13
39.510         0
39.520        13
39.530        33
39.540        33
39.550        20
39.560        33
39.570        20
39.580        47
39.590         7
39.600        13
39.610        27
39.620        27
39.630        47
39.640        20
39.650        60
39.660        20
39.670        33
39.680        33
39.690        40
39.700        53
39.710        40
39.720        27
39.730        40
39.740        13
39.750        60
39.760        60
39.770        73
39.780        47
39.790        40
39.800        93
39.810        40
39.820        27
39.830        27
39.840        53
39.850        47
39.860        87
39.870        53
39.880        93
39.890        80
39.900        47
39.910        60
39.920        73
39.930        80
39.940        40
39.950        53
39.960        73
39.970        40
39.980        87
39.990        80
40.000        87
40.010        73
40.020        60
40.030        73
40.040       107
40.050        80
40.060        67
40.070       100
40.080        73
40.090       127
40.100        53
40.110        73
40.120        67
40.130        67
40.140        53
40.150        40
40.160        47
40.170        40
40.180        60
40.190        27
40.200        53
40.210        27
40.220        67
40.230        60
40.240        33
40.250        33
40.260        47
40.270        67
40.280        33
40.290        47
40.300        33
40.310        27
40.320        60
40.330        27
40.340        27
40.350        33
40.360        60
40.370         7
40.380        53
40.390        47
40.400        40
40.410        20
40.420        20
40.430        20
40.440        20
40.450         7
40.460        20
40.470        13
40.480        27
40.490        13
40.500         0
40.510        27
40.520        53
40.530        20
40.540        13
40.550        13
40.560        20
40.570        20
40.580        53
40.590        27
40.600        13
40.610        33
40.620        13
40.630        20
40.640        40
40.650        40
40.660        27
40.670        33
40.680        47
40.690        33
40.700        33
40.710        27
40.720        53
40.730         7
40.740        33
40.750        33
40.760        13
40.770         7
40.780        33
40.790        13
40.800        47
40.810        20
40.820         0
40.830        20
40.840        60
40.850        33
40.860         7
40.870        20
40.880        20
40.890        33
40.900        53
40.910         7
40.920        13
40.930         7
40.940        13
40.950        67
40.960        33
40.970        27
40.980        27
40.990        20
41.000        40
41.010        13
41.020        27
41.030        47
41.040        47
41.050        13
41.060        20
41.070        13
41.080        40
41.090        20
41.100         0
41.110        20
41.120        33
41.130         7
41.140        27
41.150        13
41.160        40
41.170        27
41.180        40
41.190        27
41.200        13
41.210        13
41.220        13
41.230        27
41.240        13
41.250        33
41.260        40
41.270        27
41.280        33
41.290        20
41.300        27
41.310         7
41.320        33
41.330        33
41.340        20
41.350         7
41.360        20
41.370        33
41.380        20
41.390        20
41.400         7
41.410        33
41.420        33
41.430        20
41.440        13
41.450        27
41.460        53
41.470        27
41.480        27
41.490        53
41.500        27
41.510        20
41.520        40
41.530        13
41.540        33
41.550        33
41.560        80
41.570        60
41.580        53
41.590        53
41.600        53
41.610        80
41.620        53
41.630        87
41.640        80
41.650        67
41.660       120
41.670       140
41.680       173
41.690       140
41.700       213
41.710       187
41.720       187
41.730       220
41.740       167
41.750       140
41.760       127
41.770       113
41.780       127
41.790       107
41.800       107
41.810        73
41.820       100
41.830        80
41.840       100
41.850       100
41.860        80
41.870        67
41.880        53
41.890        53
41.900        20
41.910         7
41.920        53
41.930        20
41.940        47
41.950        27
41.960        33
41.970        13
41.980        40
41.990        27
42.000        27
42.010        27
42.020        40
42.030        33
42.040        33
42.050        27
42.060        27
42.070        33
42.080        13
42.090        13
42.100        20
42.110         7
42.120        33
42.130        27
42.140        33
42.150        13
42.160        40
42.170        13
42.180        33
42.190        40
42.200        27
42.210        20
42.220        33
42.230        20
42.240        40
42.250        13
42.260        27
42.270        20
42.280        13
42.290        13
42.300        13
42.310        20
42.320        20
42.330        20
42.340         7
42.350        20
42.360        13
42.370        27
42.380        13
42.390        20
42.400        27
42.410        13
42.420        27
42.430        13
42.440        20
42.450        27
42.460        47
42.470        13
42.480        27
42.490        13
42.500        13
42.510        20
42.520        27
42.530        20
42.540        27
42.550         0
42.560        20
42.570        27
42.580        27
42.590        33
42.600        20
42.610        20
42.620        27
42.630         7
42.640        33
42.650        40
42.660        40
42.670        20
42.680        13
42.690        40
42.700        27
42.710        20
42.720        40
42.730        13
42.740        20
42.750        40
42.760        40
42.770        47
42.780        27
42.790        20
42.800        20
42.810        40
42.820        33
42.830        20
42.840        20
42.850        27
42.860        33
42.870        47
42.880        33
42.890         7
42.900        33
42.910        33
42.920        27
42.930        20
42.940         7
42.950        13
42.960        67
42.970        20
42.980        33
42.990        20
43.000        40
43.010        27
43.020        20
43.030        20
43.040        33
43.050        13
43.060        20
43.070        40
43.080        40
43.090        20
43.100        27
43.110        27
43.120        40
43.130        33
43.140        47
43.150        47
43.160        20
43.170         7
43.180        27
43.190        27
43.200        33
43.210         7
43.220        47
43.230        53
43.240         0
43.250        53
43.260        60
43.270        60
43.280        67
43.290        73
43.300        87
43.310        67
43.320       133
43.330       120
43.340       127
43.350        80
43.360       100
43.370       107
43.380       127
43.390       140
43.400       173
43.410       120
43.420       133
43.430       100
43.440       100
43.450        87
43.460       107
43.470        53
43.480        33
43.490        73
43.500        60
43.510       127
43.520        73
43.530        73
43.540        93
43.550        33
43.560        93
43.570        40
43.580        80
43.590        33
43.600        20
43.610        47
43.620        40
43.630        47
43.640         7
43.650         7
43.660        33
43.670        60
43.680         7
43.690        33
43.700         7
43.710        47
43.720        33
43.730        40
43.740        53
43.750        47
43.760        33
43.770         0
43.780        13
43.790        47
43.800         0
43.810         7
43.820        13
43.830        33
43.840        20
43.850         7
43.860        13
43.870         7
43.880        20
43.890        33
43.900        13
43.910        53
43.920        33
43.930        20
43.940        40
43.950        27
43.960        13
43.970        27
43.980        33
43.990        20
44.000        27
44.010        20
44.020        40
44.030        60
44.040        33
44.050        33
44.060        27
44.070        13
44.080        13
44.090        47
44.100        27
44.110        33
44.120         7
44.130        20
44.140        13
44.150        47
44.160        20
44.170        40
44.180        20
44.190         7
44.200        40
44.210        33
44.220        40
44.230        53
44.240        13
44.250        20
44.260        53
44.270        47
44.280        13
44.290        27
44.300        27
44.310        20
44.320        47
44.330         7
44.340        13
44.350        40
44.360        27
44.370         7
44.380        13
44.390        33
44.400        67
44.410        60
44.420        40
44.430        13
44.440        27
44.450        20
44.460        13
44.470        33
44.480        33
44.490        40
44.500        33
44.510        33
44.520        27
44.530        40
44.540        40
44.550        47
44.560        33
44.570        13
44.580        20
44.590        40
44.600        27
44.610        20
44.620        20
44.630        33
44.640        47
44.650        33
44.660        40
44.670        47
44.680        67
44.690        47
44.700        53
44.710        27
44.720        60
44.730        40
44.740        33
44.750        20
44.760        20
44.770        40
44.780        80
44.790        60
44.800        40
44.810        60
44.820        53
44.830        20
44.840        33
44.850        47
44.860       100
44.870        20
44.880        33
44.890        47
44.900        40
44.910        40
44.920        80
44.930        60
44.940        40
44.950        33
44.960        60
44.970        80
44.980        87
44.990        60
45.000        40
45.010        80
45.020        40
45.030        60
45.040        53
45.050        47
45.060        80
45.070        40
45.080        40
45.090        73
45.100        40
45.110        67
45.120        87
45.130        80
45.140        93
45.150        87
45.160        47
45.170        53
45.180        67
45.190        47
45.200        53
45.210        87
45.220        60
45.230        40
45.240        87
45.250        67
45.260        67
45.270        80
45.280        80
45.290        80
45.300        27
45.310        87
45.320       120
45.330       127
45.340        87
45.350        93
45.360       113
45.370       160
45.380       100
45.390        93
45.400        73
45.410       193
45.420        87
45.430       100
45.440       193
45.450       153
45.460        73
45.470       107
45.480       120
45.490        87
45.500       120
45.510       187
45.520       100
45.530       167
45.540       147
45.550       173
45.560       160
45.570       180
45.580       180
45.590       120
45.600       147
45.610       200
45.620       147
45.630       147
45.640       173
45.650       133
45.660       200
45.670       273
45.680       273
45.690       273
45.700       253
45.710       293
45.720       247
45.730       260
45.740       300
45.750       313
45.760       267
45.770       227
45.780       327
45.790       313
45.800       327
45.810       347
45.820       347
45.830       387
45.840       373
45.850       293
45.860       480
45.870       387
45.880       347
45.890       440
45.900       387
45.910       660
45.920       426
45.930       586
45.940       460
45.950       680
45.960       546
45.970       586
45.980       700
45.990       720
46.000       693
46.010       606
46.020       573
46.030       646
46.040       800
46.050       813
46.060       720
46.070       893
46.080      1000
46.090       826
46.100       833
46.110       960
46.120       940
46.130      1020
46.140       973
46.150       966
46.160       960
46.170       966
46.180       886
46.190      1133
46.200      1013
46.210      1080
46.220       873
46.230      1166
46.240       946
46.250       940
46.260      1013
46.270       986
46.280       993
46.290       920
46.300      1033
46.310       986
46.320      1033
46.330       860
46.340      1066
46.350       920
46.360       866
46.370       773
46.380       926
46.390      1000
46.400       953
46.410       880
46.420       793
46.430       826
46.440       853
46.450       813
46.460       766
46.470       773
46.480       713
46.490       720
46.500       760
46.510       620
46.520       586
46.530       600
46.540       620
46.550       593
46.560       533
46.570       693
46.580       593
46.590       493
46.600       493
46.610       480
46.620       446
46.630       513
46.640       460
46.650       287
46.660       360
46.670       407
46.680       347
46.690       407
46.700       380
46.710       353
46.720       273
46.730       440
46.740       287
46.750       287
46.760       320
46.770       280
46.780       233
46.790       287
46.800       313
46.810       260
46.820       180
46.830       200
46.840       213
46.850       213
46.860       160
46.870       160
46.880       213
46.890       207
46.900       187
46.910       167
46.920       187
46.930       153
46.940       220
46.950       120
46.960       100
46.970       120
46.980       147
46.990       120
47.000       120
47.010       147
47.020       153
47.030        80
47.040        93
47.050       107
47.060       140
47.070       100
47.080       107
47.090       107
47.100       140
47.110        93
47.120       100
47.130        80
47.140        73
47.150        93
47.160       107
47.170        80
47.180       107
47.190       120
47.200       100
47.210        80
47.220        93
47.230       127
47.240        73
47.250        93
47.260        67
47.270        73
47.280        87
47.290        60
47.300        60
47.310        80
47.320        73
47.330        47
47.340        67
47.350        53
47.360        73
47.370        40
47.380        60
47.390        73
47.400        53
47.410        67
47.420        40
47.430        67
47.440        27
47.450       120
47.460        33
47.470        27
47.480        40
47.490        53
47.500        73
47.510        53
47.520        33
47.530        33
47.540        27
47.550        33
47.560        33
47.570        40
47.580        73
47.590        27
47.600        67
47.610        20
47.620        67
47.630        53
47.640        20
47.650        80
47.660        47
47.670        20
47.680        40
47.690        33
47.700        40
47.710        40
47.720        47
47.730        33
47.740         7
47.750        27
47.760        20
47.770        33
47.780        33
47.790         7
47.800        33
47.810        27
47.820        47
47.830        33
47.840        33
47.850        53
47.860        47
47.870        40
47.880        27
47.890        33
47.900        33
47.910        80
47.920        47
47.930        20
47.940        80
47.950        20
47.960        13
47.970        40
47.980        40
47.990        67
48.000        40
48.010        40
48.020        60
48.030        47
48.040        27
48.050        27
48.060        20
48.070        53
48.080        20
48.090        27
48.100        67
48.110        47
48.120        13
48.130        33
48.140        53
48.150        27
48.160        73
48.170        27
48.180        47
48.190        20
48.200        27
48.210        33
48.220        40
48.230        53
48.240        53
48.250        40
48.260        27
48.270        33
48.280        40
48.290        20
48.300        40
48.310        13
48.320        47
48.330        27
48.340        27
48.350        27
48.360        47
48.370        13
48.380        60
48.390        20
48.400        27
48.410        33
48.420        20
48.430         7
48.440        47
48.450        27
48.460        13
48.470        27
48.480        13
48.490        27
48.500        33
48.510        27
48.520        27
48.530        27
48.540        20
48.550        13
48.560        20
48.570        33
48.580        20
48.590        53
48.600        13
48.610        33
48.620        20
48.630        27
48.640        47
48.650        40
48.660        20
48.670        33
48.680        80
48.690        20
48.700        20
48.710        33
48.720        27
48.730        40
48.740        53
48.750        20
48.760        53
48.770        40
48.780        20
48.790        20
48.800        27
48.810        40
48.820        53
48.830         7
48.840        27
48.850        40
48.860         7
48.870        20
48.880        33
48.890        53
48.900        20
48.910        67
48.920        20
48.930        20
48.940        27
48.950        20
48.960         7
48.970        13
48.980        47
48.990        60
49.000        20
49.010        27
49.020        27
49.030        33
49.040        13
49.050        20
49.060         0
49.070        33
49.080        20
49.090        13
49.100        20
49.110        33
49.120        33
49.130        53
49.140        60
49.150        27
49.160        40
49.170        20
49.180        27
49.190        27
49.200        13
49.210        27
49.220        27
49.230        27
49.240         7
49.250        33
49.260        33
49.270         0
49.280        33
49.290        20
49.300        20
49.310        40
49.320        40
49.330        13
49.340        47
49.350        33
49.360        47
49.370        13
49.380        13
49.390        27
49.400        13
49.410         7
49.420         0
49.430        20
49.440        27
49.450        20
49.460         7
49.470        13
49.480        20
49.490        20
49.500         7
49.510        40
49.520        13
49.530        40
49.540        27
49.550         7
49.560        27
49.570        53
49.580        13
49.590        40
49.600        13
49.610        20
49.620        20
49.630        20
49.640         7
49.650        27
49.660        13
49.670         7
49.680        47
49.690        20
49.700        13
49.710        20
49.720        47
49.730        13
49.740        13
49.750        33
49.760        27
49.770        33
49.780        33
49.790        20
49.800        33
49.810        20
49.820        27
49.830         7
49.840         7
49.850        33
49.860        33
49.870        33
49.880        33
49.890        27
49.900         7
49.910        20
49.920        13
49.930        27
49.940        20
49.950        20
49.960        27
49.970        13
49.980         7
49.990        13
50.000        27
50.010        13
50.020        13
50.030        13
50.040        13
50.050        20
50.060         7
50.070        27
50.080        20
50.090        27
50.100        27
50.110        40
50.120        40
50.130         7
50.140        27
50.150        33
50.160        33
50.170         7
50.180        33
50.190        27
50.200         7
50.210        20
50.220        20
50.230        13
50.240        20
50.250        27
50.260         7
50.270        27
50.280        40
50.290        27
50.300        20
50.310        20
50.320        20
50.330         0
50.340        13
50.350        67
50.360         7
50.370        27
50.380        13
50.390        13
50.400        20
50.410        13
50.420        33
50.430         7
50.440        13
50.450        27
50.460        13
50.470        13
50.480        40
50.490        20
50.500        20
50.510        20
50.520        33
50.530        27
50.540         7
50.550        27
50.560        33
50.570         7
50.580         7
50.590        27
50.600         0
50.610        13
50.620        27
50.630        27
50.640         7
50.650        27
50.660        20
50.670        13
50.680        20
50.690        33
50.700         7
50.710         0
50.720         7
50.730        13
50.740         0
50.750        47
50.760        47
50.770         7
50.780        20
50.790        20
50.800        13
50.810         7
50.820         7
50.830        27
50.840         7
50.850        73
50.860         7
50.870        27
50.880        27
50.890        33
50.900        13
50.910        27
50.920        27
50.930        20
50.940        27
50.950        33
50.960         0
50.970        13
50.980         7
50.990         0
51.000        13
51.010        20
51.020         7
51.030        20
51.040        13
51.050        20
51.060         7
51.070        13
51.080        33
51.090        20
51.100        33
51.110         7
51.120        27
51.130        13
51.140        27
51.150        20
51.160        33
51.170        20
51.180        13
51.190        33
51.200        20
51.210        27
51.220         7
51.230        27
51.240        13
51.250         7
51.260        40
51.270        33
51.280        13
51.290        13
51.300        13
51.310        20
51.320        27
51.330         7
51.340        27
51.350        13
51.360         0
51.370        20
51.380        27
51.390        13
51.400        40
51.410        13
51.420        40
51.430        13
51.440        27
51.450        27
51.460        13
51.470         7
51.480         7
51.490        40
51.500        67
51.510        20
51.520        27
51.530        13
51.540        20
51.550        13
51.560        40
51.570        47
51.580        20
51.590        40
51.600        33
51.610        27
51.620        20
51.630        47
51.640        20
51.650        33
51.660        40
51.670         7
51.680        20
51.690        13
51.700        60
51.710        20
51.720         7
51.730        13
51.740        13
51.750        13
51.760        20
51.770        33
51.780        27
51.790        40
51.800        33
51.810         0
51.820        13
51.830        27
51.840        13
51.850        13
51.860        20
51.870        13
51.880        33
51.890         7
51.900        27
51.910        13
51.920        20
51.930        13
51.940        33
51.950        40
51.960        13
51.970        20
51.980         7
51.990        20
52.000        20
52.010        13
52.020         0
52.030         7
52.040         7
52.050        33
52.060        27
52.070        13
52.080        20
52.090        20
52.100        33
52.110        13
52.120         0
52.130        33
52.140        27
52.150        33
52.160        13
52.170        47
52.180        27
52.190         0
52.200        13
52.210        13
52.220        20
52.230        27
52.240        13
52.250        33
52.260        40
52.270        33
52.280        40
52.290         7
52.300        13
52.310        20
52.320        20
52.330        20
52.340        20
52.350        20
52.360        27
52.370         0
52.380        47
52.390         7
52.400        13
52.410        33
52.420        13
52.430        47
52.440        13
52.450        20
52.460        27
52.470        47
52.480        33
52.490        20
52.500        20
52.510        47
52.520        27
52.530        60
52.540        33
52.550        40
52.560        27
52.570        73
52.580        60
52.590        53
52.600        33
52.610       113
52.620       100
52.630        60
52.640       147
52.650       140
52.660       100
52.670       100
52.680        60
52.690        40
52.700        33
52.710        40
52.720        40
52.730        73
52.740        47
52.750        20
52.760        47
52.770        47
52.780        53
52.790        33
52.800        13
52.810        13
52.820        27
52.830        33
52.840        20
52.850        27
52.860        13
52.870        13
52.880         0
52.890        20
52.900        27
52.910        13
52.920        13
52.930        13
52.940        27
52.950        27
52.960        13
52.970        13
52.980        13
52.990        33
53.000        13
53.010         7
53.020        27
53.030        33
53.040        27
53.050        20
53.060        33
53.070         7
53.080        40
53.090        40
53.100        20
53.110        20
53.120        20
53.130        13
53.140        20
53.150        20
53.160        20
53.170         7
53.180        40
53.190        20
53.200         7
53.210         7
53.220        27
53.230        13
53.240        20
53.250        20
53.260        33
53.270        27
53.280        20
53.290        13
53.300        27
53.310         0
53.320         7
53.330        13
53.340        13
53.350        13
53.360        13
53.370        20
53.380        20
53.390        33
53.400         7
53.410        27
53.420        13
53.430        27
53.440        27
53.450        20
53.460         7
53.470        13
53.480        27
53.490        27
53.500        33
53.510        27
53.520        40
53.530        13
53.540        33
53.550         0
53.560        33
53.570        40
53.580        27
53.590        27
53.600         0
53.610         7
53.620        20
53.630        27
53.640        13
53.650        27
53.660        20
53.670        13
53.680         7
53.690        27
53.700        20
53.710        13
53.720        20
53.730        13
53.740        27
53.750         7
53.760         7
53.770         7
53.780        27
53.790        20
53.800        20
53.810        53
53.820        13
53.830        20
53.840         7
53.850        33
53.860        20
53.870        27
53.880        20
53.890        20
53.900        13
53.910        20
53.920        13
53.930        27
53.940        20
53.950        13
53.960         0
53.970        20
53.980        20
53.990        13
54.000        27
54.010        20
54.020        27
54.030         7
54.040        20
54.050        13
54.060        13
54.070        20
54.080        27
54.090        33
54.100        20
54.110        13
54.120        20
54.130         7
54.140        13
54.150        27
54.160         7
54.170        13
54.180        13
54.190        27
54.200        27
54.210        13
54.220        27
54.230        13
54.240        27
54.250         7
54.260        27
54.270        27
54.280         7
54.290         7
54.300         0
54.310         0
54.320         7
54.330        20
54.340         7
54.350        20
54.360         7
54.370        20
54.380        27
54.390         7
54.400        13
54.410        20
54.420         7
54.430         7
54.440        13
54.450        13
54.460         7
54.470         7
54.480        27
54.490        13
54.500         7
54.510        27
54.520        20
54.530        13
54.540        20
54.550         7
54.560        13
54.570         7
54.580         7
54.590        27
54.600         7
54.610         7
54.620        27
54.630        13
54.640        33
54.650        20
54.660        40
54.670         0
54.680         7
54.690        20
54.700        20
54.710        27
54.720        20
54.730        13
54.740        20
54.750        13
54.760        13
54.770        13
54.780         7
54.790        13
54.800        13
54.810        27
54.820         7
54.830         7
54.840        20
54.850        20
54.860         7
54.870         7
54.880        27
54.890        13
54.900        20
54.910        13
54.920        33
54.930        47
54.940         7
54.950        20
54.960        20
54.970         7
54.980        33
54.990         7
55.000         7
55.010        13
55.020        13
55.030        13
55.040        13
55.050         7
55.060        20
55.070        40
55.080        33
55.090        13
55.100        20
55.110        13
55.120        13
55.130         7
55.140        13
55.150        20
55.160        13
55.170        13
55.180        13
55.190        13
55.200        13
55.210         7
55.220        33
55.230        33
55.240         0
55.250         0
55.260        20
55.270        47
55.280         0
55.290        27
55.300        13
55.310        13
55.320        13
55.330        27
55.340        13
55.350        20
55.360         7
55.370        13
55.380        20
55.390         7
55.400        20
55.410        47
55.420        13
55.430        33
55.440         7
55.450        33
55.460        33
55.470        20
55.480        13
55.490        13
55.500        20
55.510        27
55.520        27
55.530        13
55.540        20
55.550         7
55.560        13
55.570        13
55.580        20
55.590         7
55.600         7
55.610        40
55.620        20
55.630        13
55.640        20
55.650        13
55.660        20
55.670        20
55.680         7
55.690        33
55.700         0
55.710        20
55.720         7
55.730        13
55.740        53
55.750        33
55.760         7
55.770        27
55.780         7
55.790        20
55.800        20
55.810        13
55.820        33
55.830        27
55.840         7
55.850        13
55.860         7
55.870        27
55.880        20
55.890        13
55.900        33
55.910        13
55.920        20
55.930        13
55.940        20
55.950        40
55.960         7
55.970         7
55.980        27
55.990         7
56.000        33
56.010        27
56.020        13
56.030        27
56.040        13
56.050        33
56.060        13
56.070        20
56.080         7
56.090        20
56.100        20
56.110        13
56.120        40
56.130        13
56.140        27
56.150        47
56.160        13
56.170        13
56.180         0
56.190        27
56.200        20
56.210        20
56.220         0
56.230        13
56.240        53
56.250        27
56.260        27
56.270        13
56.280         7
56.290        33
56.300        20
56.310        27
56.320        13
56.330        27
56.340        13
56.350        20
56.360        13
56.370        13
56.380         7
56.390        13
56.400        27
56.410        13
56.420        13
56.430        40
56.440        33
56.450        27
56.460        27
56.470        20
56.480        20
56.490         7
56.500        40
56.510        47
56.520         0
56.530        20
56.540        20
56.550        20
56.560        27
56.570        20
56.580        33
56.590        13
56.600        13
56.610        20
56.620        13
56.630        13
56.640         7
56.650        13
56.660        20
56.670        13
56.680        33
56.690        33
56.700        13
56.710         7
56.720         7
56.730        33
56.740        13
56.750         0
56.760         7
56.770        40
56.780        33
56.790         7
56.800        13
56.810         7
56.820        20
56.830         7
56.840        20
56.850        27
56.860        20
56.870        20
56.880        20
56.890        27
56.900        47
56.910        33
56.920        33
56.930        27
56.940        13
56.950        13
56.960        33
56.970        20
56.980        20
56.990        20
57.000        27
57.010        33
57.020         7
57.030        20
57.040        20
57.050        27
57.060        47
57.070        13
57.080        27
57.090        20
57.100        20
57.110         7
57.120        33
57.130        20
57.140        20
57.150        20
57.160        20
57.170        20
57.180        27
57.190        40
57.200        47
57.210        20
57.220        27
57.230        13
57.240         7
57.250        33
57.260        27
57.270         7
57.280        67
57.290        33
57.300        73
57.310        33
57.320        47
57.330        47
57.340        40
57.350         7
57.360        40
57.370        33
57.380        67
57.390        40
57.400        60
57.410        47
57.420        47
57.430       100
57.440        80
57.450       113
57.460        60
57.470        93
57.480        73
57.490       140
57.500       240
57.510       267
57.520       293
57.530       387
57.540       666
57.550       666
57.560       793
57.570       766
57.580       760
57.590       906
57.600       820
57.610       660
57.620       500
57.630       373
57.640       313
57.650       200
57.660       260
57.670       240
57.680       227
57.690       300
57.700       347
57.710       387
57.720       407
57.730       453
57.740       513
57.750       466
57.760       400
57.770       327
57.780       300
57.790       180
57.800       167
57.810       113
57.820        40
57.830        40
57.840        13
57.850        73
57.860        47
57.870         7
57.880        53
57.890        33
57.900        47
57.910        73
57.920        27
57.930        53
57.940        33
57.950        47
57.960        20
57.970        40
57.980        53
57.990        20
58.000        40
58.010        27
58.020        13
58.030        33
58.040        20
58.050        47
58.060        40
58.070        53
58.080        47
58.090        20
58.100        33
58.110        13
58.120        27
58.130        33
58.140        13
58.150        33
58.160        27
58.170         7
58.180        13
58.190        33
58.200        47
58.210        27
58.220        20
58.230        33
58.240        20
58.250        33
58.260        20
58.270        13
58.280         0
58.290        27
58.300        33
58.310        27
58.320        13
58.330        40
58.340        40
58.350        27
58.360        20
58.370        33
58.380        33
58.390        13
58.400         7
58.410        47
58.420        13
58.430        33
58.440        13
58.450        33
58.460         7
58.470         7
58.480        27
58.490        27
58.500        33
58.510        27
58.520        13
58.530         7
58.540        33
58.550        20
58.560         7
58.570        33
58.580        13
58.590        13
58.600        13
58.610        47
58.620         0
58.630        20
58.640        40
58.650        13
58.660         7
58.670        27
58.680        13
58.690         0
58.700         0
58.710        13
58.720        13
58.730         7
58.740         7
58.750        33
58.760         7
58.770         0
58.780         7
58.790        13
58.800        20
58.810        20
58.820        20
58.830        13
58.840        13
58.850         7
58.860        33
58.870        13
58.880        13
58.890        13
58.900         7
58.910         7
58.920         0
58.930        13
58.940         7
58.950        13
58.960        27
58.970        27
58.980         0
58.990        13
59.000        40
59.010        27
59.020        27
59.030        20
59.040         7
59.050         7
59.060        13
59.070        33
59.080        13
59.090        33
59.100        20
59.110        13
59.120         0
59.130         7
59.140        20
59.150        27
59.160        27
59.170         7
59.180         0
59.190         7
59.200        33
59.210        13
59.220        47
59.230        33
59.240        27
59.250         7
59.260        20
59.270        13
59.280        33
59.290        20
59.300        20
59.310        27
59.320        20
59.330        33
59.340        33
59.350        27
59.360        27
59.370        40
59.380        13
59.390        20
59.400        33
59.410        20
59.420        27
59.430        40
59.440         0
59.450        20
59.460        27
59.470         0
59.480        27
59.490        27
59.500        20
59.510        47
59.520        20
59.530        20
59.540        40
59.550        27
59.560        27
59.570        47
59.580        13
59.590         7
59.600        27
59.610        40
59.620        33
59.630         7
59.640        13
59.650        20
59.660        27
59.670        27
59.680        13
59.690         0
59.700        20
59.710        20
59.720         0
59.730        47
59.740        33
59.750        53
59.760        40
59.770        27
59.780        33
59.790        20
59.800        20
59.810        40
59.820        13
59.830        40
59.840        60
59.850        47
59.860        27
59.870         7
59.880        20
59.890        13
59.900        33
59.910        33
59.920        40
59.930        33
59.940        47
59.950        33
59.960        20
59.970        53
59.980        13
59.990        53
60.000        27
