20.000        20
20.010        20
20.020        53
20.030        13
20.040        40
20.050        33
20.060        60
20.070        33
20.080        60
20.090        67
20.100        27
20.110        47
20.120        73
20.130        47
20.140        33
20.150        33
20.160        40
20.170        93
20.180        53
20.190        20
20.200        40
20.210        47
20.220        53
20.230        33
20.240        40
20.250        40
20.260        67
20.270        87
20.280        40
20.290        40
20.300        53
20.310        40
20.320        47
20.330        47
20.340        47
20.350        20
20.360        47
20.370        53
20.380        40
20.390        60
20.400         7
20.410        53
20.420        40
20.430        20
20.440        33
20.450        20
20.460        40
20.470        40
20.480         7
20.490        47
20.500        40
20.510        33
20.520        40
20.530        13
20.540        93
20.550        33
20.560        47
20.570        27
20.580        27
20.590        27
20.600        20
20.610        40
20.620        47
20.630        40
20.640        13
20.650        40
20.660        40
20.670        33
20.680        13
20.690        53
20.700        80
20.710        47
20.720        40
20.730        53
20.740        33
20.750        47
20.760        53
20.770        80
20.780        33
20.790        40
20.800        33
20.810        33
20.820        47
20.830        53
20.840        33
20.850        27
20.860        33
20.870        40
20.880        47
20.890        53
20.900        20
20.910        53
20.920        33
20.930        53
20.940        40
20.950        27
20.960        33
20.970        40
20.980        73
20.990        67
21.000        87
21.010        80
21.020        60
21.030        40
21.040        33
21.050        53
21.060        67
21.070        40
21.080        53
21.090        47
21.100        20
21.110        40
21.120        27
21.130        47
21.140        27
21.150        27
21.160        20
21.170        13
21.180         7
21.190        40
21.200        40
21.210        27
21.220        53
21.230        13
21.240        47
21.250        67
21.260        47
21.270        53
21.280        40
21.290        33
21.300        33
21.310        53
21.320        67
21.330        47
21.340        27
21.350        40
21.360        53
21.370        33
21.380        27
21.390        13
21.400        40
21.410        27
21.420        47
21.430        13
21.440        20
21.450        47
21.460        13
21.470        40
21.480        53
21.490        27
21.500        20
21.510        27
21.520        20
21.530        40
21.540        20
21.550        20
21.560        47
21.570        13
21.580        20
21.590        40
21.600        27
21.610        67
21.620        13
21.630        47
21.640        67
21.650        20
21.660        20
21.670        33
21.680        27
21.690        20
21.700        33
21.710        40
21.720        60
21.730        27
21.740        27
21.750        40
21.760        47
21.770        47
21.780        13
21.790        47
21.800        53
21.810        47
21.820        53
21.830        40
21.840        40
21.850         7
21.860        13
21.870        20
21.880        40
21.890        40
21.900        33
21.910        20
21.920        33
21.930        27
21.940        40
21.950        40
21.960        33
21.970        13
21.980        40
21.990        53
22.000        67
22.010        47
22.020        33
22.030        27
22.040        27
22.050         0
22.060        40
22.070        33
22.080        33
22.090        40
22.100        20
22.110        47
22.120        27
22.130        60
22.140        40
22.150        20
22.160        47
22.170        13
22.180        73
22.190        33
22.200        33
22.210        27
22.220         7
22.230        27
22.240        20
22.250        27
22.260        60
22.270        53
22.280        60
22.290        47
22.300        67
22.310        60
22.320        33
22.330        40
22.340        47
22.350        47
22.360        33
22.370        27
22.380        20
22.390        33
22.400        27
22.410        53
22.420        87
22.430        33
22.440        47
22.450        13
22.460        60
22.470        33
22.480        27
22.490        53
22.500        27
22.510        53
22.520        47
22.530        13
22.540        80
22.550        40
22.560        33
22.570        27
22.580        53
22.590        40
22.600        47
22.610        27
22.620        27
22.630        60
22.640        60
22.650        33
22.660        73
22.670        47
22.680        33
22.690        93
22.700        27
22.710        53
22.720        47
22.730        53
22.740        33
22.750        33
22.760        47
22.770        20
22.780        40
22.790        13
22.800        33
22.810        33
22.820        40
22.830        20
22.840        53
22.850        13
22.860        67
22.870        20
22.880         7
22.890        20
22.900        47
22.910        33
22.920        53
22.930        47
22.940        40
22.950        27
22.960        27
22.970        33
22.980        53
22.990         7
23.000        20
23.010        27
23.020        73
23.030        53
23.040        67
23.050        40
23.060        33
23.070        40
23.080         7
23.090        60
23.100        33
23.110        53
23.120        53
23.130        40
23.140         7
23.150        33
23.160        27
23.170        40
23.180        60
23.190        40
23.200        60
23.210        13
23.220        27
23.230        27
23.240        40
23.250        40
23.260        60
23.270        47
23.280        73
23.290        20
23.300        33
23.310         0
23.320        13
23.330        40
23.340        27
23.350        33
23.360        33
23.370        40
23.380        33
23.390        20
23.400        27
23.410        27
23.420        47
23.430        47
23.440        33
23.450        27
23.460        13
23.470        47
23.480        40
23.490        47
23.500        20
23.510        33
23.520        47
23.530        27
23.540        27
23.550        33
23.560        40
23.570        33
23.580        60
23.590        20
23.600        40
23.610        33
23.620        33
23.630        60
23.640        13
23.650        47
23.660        33
23.670         0
23.680        27
23.690        13
23.700        20
23.710        47
23.720        13
23.730        33
23.740        40
23.750        13
23.760        33
23.770        33
23.780        13
23.790        13
23.800        47
23.810        33
23.820        20
23.830        27
23.840        27
23.850        73
23.860        40
23.870        47
23.880        20
23.890        53
23.900        33
23.910        40
23.920        27
23.930        40
23.940        27
23.950        40
23.960        53
23.970        27
23.980        60
23.990        40
24.000        33
24.010        47
24.020        13
24.030        40
24.040        40
24.050        47
24.060        47
24.070        33
24.080         7
24.090        20
24.100        20
24.110        60
24.120        33
24.130        40
24.140        27
24.150        33
24.160        27
24.170        40
24.180        27
24.190        60
24.200        20
24.210        40
24.220        13
24.230        53
24.240        13
24.250        27
24.260        13
24.270        33
24.280        13
24.290        13
24.300        40
24.310        27
24.320        13
24.330        67
24.340        13
24.350        33
24.360        20
24.370        27
24.380        33
24.390        13
24.400        40
24.410        13
24.420        27
24.430        20
24.440        60
24.450        27
24.460        20
24.470        40
24.480        33
24.490        27
24.500        33
24.510        20
24.520        20
24.530        40
24.540        20
24.550        33
24.560        40
24.570        27
24.580        33
24.590        33
24.600        40
24.610        33
24.620        20
24.630        13
24.640        33
24.650        47
24.660        53
24.670        33
24.680        47
24.690        33
24.700        60
24.710        40
24.720        40
24.730        27
24.740        33
24.750        33
24.760        27
24.770        27
24.780        13
24.790        13
24.800        20
24.810        33
24.820        27
24.830        27
24.840         7
24.850        40
24.860        20
24.870        53
24.880        20
24.890        27
24.900        27
24.910        47
24.920        33
24.930        47
24.940        20
24.950        20
24.960        73
24.970         7
24.980        13
24.990        33
25.000        20
25.010         7
25.020        33
25.030        20
25.040       100
25.050        53
25.060        40
25.070        73
25.080        20
25.090        40
25.100        73
25.110        60
25.120        27
25.130        33
25.140        27
25.150        60
25.160        27
25.170        47
25.180        47
25.190        20
25.200        33
25.210        13
25.220         7
25.230        40
25.240         7
25.250        47
25.260        20
25.270        20
25.280        20
25.290        33
25.300        13
25.310        20
25.320         7
25.330        20
25.340        27
25.350        47
25.360        40
25.370        20
25.380        73
25.390        47
25.400        20
25.410        20
25.420        40
25.430        20
25.440        40
25.450        20
25.460        13
25.470        13
25.480        47
25.490        73
25.500        20
25.510        53
25.520        27
25.530        47
25.540        13
25.550        27
25.560        13
25.570        20
25.580        53
25.590        60
25.600       107
25.610       100
25.620       120
25.630        67
25.640        87
25.650        53
25.660        67
25.670        40
25.680        53
25.690        53
25.700        60
25.710        33
25.720        40
25.730        20
25.740        20
25.750        33
25.760        33
25.770        27
25.780        33
25.790         7
25.800        20
25.810        13
25.820        33
25.830        27
25.840        47
25.850        20
25.860        20
25.870         7
25.880        27
25.890        13
25.900        60
25.910        20
25.920        20
25.930        20
25.940        13
25.950        27
25.960        33
25.970        33
25.980        33
25.990        47
26.000        27
26.010        53
26.020        13
26.030        20
26.040        33
26.050        13
26.060        20
26.070        20
26.080        13
26.090        53
26.100        47
26.110        27
26.120        13
26.130        40
26.140         7
26.150        40
26.160        13
26.170        27
26.180        13
26.190        20
26.200        27
26.210        27
26.220        53
26.230        33
26.240        20
26.250        27
26.260        13
26.270         7
26.280        40
26.290        40
26.300        73
26.310        20
26.320        33
26.330        20
26.340         7
26.350        27
26.360        33
26.370        27
26.380        27
26.390        53
26.400        27
26.410        13
26.420        20
26.430        47
26.440        27
26.450        27
26.460        27
26.470        33
26.480        27
26.490        20
26.500        40
26.510        40
26.520        20
26.530        33
26.540        27
26.550         7
26.560        20
26.570        47
26.580        13
26.590         7
26.600        20
26.610        33
26.620        33
26.630        20
26.640        33
26.650        20
26.660        27
26.670        40
26.680        40
26.690         7
26.700        27
26.710        33
26.720        40
26.730        13
26.740        33
26.750        13
26.760        47
26.770        27
26.780        33
26.790         7
26.800        33
26.810        20
26.820        13
26.830        27
26.840        33
26.850        40
26.860        13
26.870        47
26.880        13
26.890        20
26.900         7
26.910        20
26.920        53
26.930        47
26.940        33
26.950        60
26.960        13
26.970        40
26.980        40
26.990        27
27.000        40
27.010        40
27.020        53
27.030        33
27.040        33
27.050        40
27.060        33
27.070        53
27.080        53
27.090        40
27.100        13
27.110        20
27.120        13
27.130        20
27.140        20
27.150        27
27.160        40
27.170        20
27.180        20
27.190        47
27.200        40
27.210        27
27.220        27
27.230         0
27.240        33
27.250         7
27.260        27
27.270        13
27.280        20
27.290         7
27.300        20
27.310        27
27.320        20
27.330        13
27.340        47
27.350         7
27.360        27
27.370        20
27.380        13
27.390        33
27.400         7
27.410        20
27.420        20
27.430        20
27.440        13
27.450        27
27.460        20
27.470        33
27.480         7
27.490        40
27.500        20
27.510        60
27.520        47
27.530        33
27.540        20
27.550        33
27.560         7
27.570        27
27.580        27
27.590        47
27.600        60
27.610        33
27.620        20
27.630        27
27.640        60
27.650        27
27.660        20
27.670        33
27.680        20
27.690        47
27.700        40
27.710        33
27.720        40
27.730        27
27.740        13
27.750        40
27.760        13
27.770        53
27.780         7
27.790         7
27.800        27
27.810        47
27.820        47
27.830        27
27.840        13
27.850        27
27.860        20
27.870        47
27.880        20
27.890        47
27.900        20
27.910        40
27.920        13
27.930        27
27.940        20
27.950        47
27.960         7
27.970        13
27.980        73
27.990        27
28.000        33
28.010        20
28.020        20
28.030        13
28.040        13
28.050        27
28.060         7
28.070        13
28.080        13
28.090        20
28.100        27
28.110        53
28.120         0
28.130        20
28.140        20
28.150        33
28.160        60
28.170        33
28.180        33
28.190        13
28.200        27
28.210        20
28.220        20
28.230        13
28.240        27
28.250        13
28.260        27
28.270        40
28.280         7
28.290        27
28.300         7
28.310        20
28.320        20
28.330        13
28.340        27
28.350        27
28.360        40
28.370        40
28.380        27
28.390        33
28.400        13
28.410        20
28.420        33
28.430        27
28.440        20
28.450        33
28.460        20
28.470        40
28.480        47
28.490        40
28.500        13
28.510        33
28.520        13
28.530        20
28.540        13
28.550        13
28.560         0
28.570        20
28.580        33
28.590        13
28.600        40
28.610         0
28.620        47
28.630        47
28.640        20
28.650        27
28.660        13
28.670        27
28.680         7
28.690        20
28.700        33
28.710        33
28.720        53
28.730        20
28.740        47
28.750        20
28.760        40
28.770         7
28.780        47
28.790        27
28.800        33
28.810        27
28.820        33
28.830        13
28.840        27
28.850        20
28.860        13
28.870        40
28.880        33
28.890        27
28.900        13
28.910        20
28.920        20
28.930        33
28.940        13
28.950        13
28.960        13
28.970         7
28.980        33
28.990        20
29.000        33
29.010        40
29.020        40
29.030        20
29.040        27
29.050        27
29.060         7
29.070        33
29.080         0
29.090        33
29.100        40
29.110        27
29.120        13
29.130        40
29.140        60
29.150        27
29.160        20
29.170         7
29.180        20
29.190         7
29.200        13
29.210        20
29.220        13
29.230        13
29.240        33
29.250        13
29.260        20
29.270        20
29.280         7
29.290        47
29.300        13
29.310        20
29.320         7
29.330        20
29.340        40
29.350        27
29.360        13
29.370        20
29.380        33
29.390        27
29.400        13
29.410        27
29.420        13
29.430         7
29.440        13
29.450        33
29.460        27
29.470        13
29.480         7
29.490         0
29.500        27
29.510        20
29.520        20
29.530        13
29.540        33
29.550        33
29.560        20
29.570        13
29.580        33
29.590        20
29.600         7
29.610        40
29.620        33
29.630        13
29.640        40
29.650        20
29.660         0
29.670        20
29.680        40
29.690        13
29.700        13
29.710        13
29.720        27
29.730        27
29.740        27
29.750         0
29.760        27
29.770        20
29.780         7
29.790        33
29.800        53
29.810        40
29.820        20
29.830         0
29.840         7
29.850        27
29.860        40
29.870         7
29.880        13
29.890         7
29.900        13
29.910        27
29.920        20
29.930        40
29.940        27
29.950        20
29.960        40
29.970         7
29.980        13
29.990        33
30.000         7
30.010        20
30.020        27
30.030         7
30.040        20
30.050        20
30.060         0
30.070        20
30.080        13
30.090         7
30.100        27
30.110        47
30.120        27
30.130        33
30.140         7
30.150        27
30.160        13
30.170        47
30.180         7
30.190        33
30.200        13
30.210        27
30.220        20
30.230        40
30.240        13
30.250        40
30.260         0
30.270        20
30.280        47
30.290        20
30.300         7
30.310        20
30.320        20
30.330        20
30.340        27
30.350        33
30.360        27
30.370        27
30.380        13
30.390        13
30.400         7
30.410        13
30.420        20
30.430         0
30.440        40
30.450        13
30.460        13
30.470        20
30.480        13
30.490        20
30.500        33
30.510        40
30.520        13
30.530        40
30.540        33
30.550        27
30.560        40
30.570        20
30.580        27
30.590        20
30.600        27
30.610        27
30.620        13
30.630        27
30.640        40
30.650        13
30.660        13
30.670        27
30.680        47
30.690        13
30.700        13
30.710        20
30.720        33
30.730        40
30.740        53
30.750         7
30.760        13
30.770        33
30.780         0
30.790        20
30.800        20
30.810        13
30.820        20
30.830        20
30.840        13
30.850        40
30.860        33
30.870        33
30.880        40
30.890        20
30.900        27
30.910        20
30.920        33
30.930        27
30.940        20
30.950        13
30.960         7
30.970        20
30.980        27
30.990        27
31.000        20
31.010        20
31.020         7
31.030        13
31.040        20
31.050        40
31.060        27
31.070        33
31.080        33
31.090        40
31.100        27
31.110        20
31.120        20
31.130        27
31.140        60
31.150        27
31.160         7
31.170        40
31.180        13
31.190        13
31.200        40
31.210        33
31.220        27
31.230        40
31.240        20
31.250        33
31.260        33
31.270        13
31.280        27
31.290        27
31.300         0
31.310        13
31.320        20
31.330        27
31.340        20
31.350        33
31.360        27
31.370        27
31.380        40
31.390        47
31.400        33
31.410         7
31.420        47
31.430        13
31.440        27
31.450        27
31.460        53
31.470        33
31.480        40
31.490        33
31.500        27
31.510        33
31.520        27
31.530        53
31.540        20
31.550        20
31.560        47
31.570        27
31.580        40
31.590        60
31.600        53
31.610        53
31.620        13
31.630        33
31.640        67
31.650        33
31.660        33
31.670        67
31.680        33
31.690        53
31.700        53
31.710        73
31.720        47
31.730        60
31.740        60
31.750        53
31.760        40
31.770        93
31.780       107
31.790        80
31.800        93
31.810        93
31.820        47
31.830       107
31.840        53
31.850       100
31.860       113
31.870        93
31.880        80
31.890        60
31.900        93
31.910       140
31.920       120
31.930       153
31.940       147
31.950       107
31.960       153
31.970       113
31.980       160
31.990       127
32.000       153
32.010       107
32.020       140
32.030       167
32.040       207
32.050       207
32.060       173
32.070       140
32.080       120
32.090       187
32.100       287
32.110       113
32.120       173
32.130       233
32.140       180
32.150       240
32.160       200
32.170       213
32.180       227
32.190       127
32.200       227
32.210       180
32.220       227
32.230       147
32.240       213
32.250       180
32.260       173
32.270       153
32.280       200
32.290       200
32.300       167
32.310       180
32.320       167
32.330       133
32.340       207
32.350       167
32.360       200
32.370       133
32.380       167
32.390       193
32.400       147
32.410       140
32.420        87
32.430       113
32.440       147
32.450       147
32.460        93
32.470       100
32.480       140
32.490        93
32.500       100
32.510        67
32.520       100
32.530        73
32.540        87
32.550       100
32.560        73
32.570        80
32.580       100
32.590        80
32.600       107
32.610        93
32.620       107
32.630        73
32.640        53
32.650        27
32.660        27
32.670        60
32.680        47
32.690        47
32.700        80
32.710        60
32.720        47
32.730        40
32.740        20
32.750        47
32.760        73
32.770        33
32.780        27
32.790        33
32.800        53
32.810        47
32.820        60
32.830        60
32.840        33
32.850        27
32.860        27
32.870        73
32.880        47
32.890        13
32.900        27
32.910        27
32.920         0
32.930        40
32.940        47
32.950        13
32.960        13
32.970        40
32.980        47
32.990        47
33.000        20
33.010        33
33.020        40
33.030        13
33.040        27
33.050        33
33.060        27
33.070        27
33.080        20
33.090        33
33.100        20
33.110        27
33.120        40
33.130        27
33.140        20
33.150         7
33.160        27
33.170        20
33.180        67
33.190        13
33.200        40
33.210        20
33.220        40
33.230        20
33.240        20
33.250        20
33.260        53
33.270        47
33.280        27
33.290        47
33.300        47
33.310        13
33.320        40
33.330        20
33.340        13
33.350        27
33.360        20
33.370        13
33.380        33
33.390         0
33.400         0
33.410        40
33.420        53
33.430         0
33.440        67
33.450         7
33.460        20
33.470        47
33.480        33
33.490        13
33.500        13
33.510        20
33.520        13
33.530        20
33.540        20
33.550        13
33.560        20
33.570         7
33.580         7
33.590        47
33.600        27
33.610        27
33.620        27
33.630        47
33.640        33
33.650        27
33.660        33
33.670         7
33.680        13
33.690        33
33.700        40
33.710        33
33.720         7
33.730        13
33.740        13
33.750        20
33.760        13
33.770        27
33.780        33
33.790        27
33.800        27
33.810        20
33.820        40
33.830        20
33.840        20
33.850         7
33.860        13
33.870         7
33.880        40
33.890        33
33.900        33
33.910         7
33.920        13
33.930        40
33.940        47
33.950        33
33.960        20
33.970        13
33.980        20
33.990        13
34.000        13
34.010        33
34.020        33
34.030        40
34.040        27
34.050         7
34.060         7
34.070        13
34.080        27
34.090        13
34.100        33
34.110        20
34.120        27
34.130         0
34.140        40
34.150        13
34.160        13
34.170        27
34.180        13
34.190        20
34.200         7
34.210         0
34.220        27
34.230        13
34.240        20
34.250        20
34.260         7
34.270        20
34.280        20
34.290        40
34.300        20
34.310        13
34.320        13
34.330        13
34.340        20
34.350        13
34.360        47
34.370        20
34.380        20
34.390         7
34.400        33
34.410        20
34.420         7
34.430        40
34.440        13
34.450        20
34.460        27
34.470        20
34.480        33
34.490        20
34.500        13
34.510        33
34.520        33
34.530         0
34.540        20
34.550        20
34.560        13
34.570        33
34.580        40
34.590        27
34.600        40
34.610        13
34.620        20
34.630        27
34.640        13
34.650        33
34.660        27
34.670        20
34.680         7
34.690        20
34.700        53
34.710        20
34.720        20
34.730        33
34.740        40
34.750        33
34.760        20
34.770        33
34.780        20
34.790        40
34.800        40
34.810        27
34.820        13
34.830        27
34.840        20
34.850        40
34.860        13
34.870        27
34.880        27
34.890        40
34.900        27
34.910        13
34.920        27
34.930        40
34.940        33
34.950        33
34.960        33
34.970        27
34.980        27
34.990        20
35.000        40
35.010        87
35.020        80
35.030        73
35.040        67
35.050        33
35.060       107
35.070        40
35.080       113
35.090       127
35.100       133
35.110       147
35.120       153
35.130       213
35.140       180
35.150       220
35.160       233
35.170       240
35.180       220
35.190       307
35.200       280
35.210       293
35.220       313
35.230       233
35.240       147
35.250       220
35.260       227
35.270       107
35.280       167
35.290       127
35.300       133
35.310       140
35.320       107
35.330        93
35.340        60
35.350        33
35.360        40
35.370        13
35.380        47
35.390        20
35.400        40
35.410         7
35.420         7
35.430        27
35.440        27
35.450        27
35.460        27
35.470        27
35.480         0
35.490        13
35.500        27
35.510        13
35.520        13
35.530        20
35.540        40
35.550        33
35.560        53
35.570        13
35.580         7
35.590        33
35.600         7
35.610        20
35.620        20
35.630        20
35.640        33
35.650        40
35.660        13
35.670        20
35.680        27
35.690        27
35.700        27
35.710        40
35.720        20
35.730        27
35.740        40
35.750         7
35.760        13
35.770        13
35.780        33
35.790        13
35.800        40
35.810        27
35.820        33
35.830        13
35.840        27
35.850        33
35.860        20
35.870        20
35.880         7
35.890        40
35.900        33
35.910        40
35.920         7
35.930        27
35.940        20
35.950        20
35.960         0
35.970        20
35.980        13
35.990         7
36.000        40
36.010        27
36.020        20
36.030        20
36.040        13
36.050        40
36.060        27
36.070        27
36.080        40
36.090        33
36.100        27
36.110        47
36.120        27
36.130         7
36.140        13
36.150         0
36.160        13
36.170        20
36.180        20
36.190        33
36.200        13
36.210         7
36.220        20
36.230        27
36.240        20
36.250        20
36.260         7
36.270        13
36.280        20
36.290        20
36.300        13
36.310        47
36.320        40
36.330        27
36.340        20
36.350        33
36.360        27
36.370         7
36.380        13
36.390        20
36.400         7
36.410        13
36.420         7
36.430        13
36.440        13
36.450        13
36.460        13
36.470        33
36.480        40
36.490        33
36.500        20
36.510        20
36.520        13
36.530        40
36.540        13
36.550        27
36.560         0
36.570        13
36.580        27
36.590         0
36.600        33
36.610         7
36.620        13
36.630        40
36.640        20
36.650        27
36.660        27
36.670        13
36.680        27
36.690         7
36.700        13
36.710        13
36.720        13
36.730        13
36.740        13
36.750        33
36.760        33
36.770        13
36.780        27
36.790         7
36.800        20
36.810        20
36.820         7
36.830         7
36.840         7
36.850        27
36.860         0
36.870         7
36.880         0
36.890         7
36.900        13
36.910        47
36.920         7
36.930        27
36.940         0
36.950         7
36.960        13
36.970        33
36.980         7
36.990        20
37.000        20
37.010        20
37.020        27
37.030         0
37.040         7
37.050        27
37.060        47
37.070        27
37.080         7
37.090        20
37.100        47
37.110        13
37.120        20
37.130        27
37.140         0
37.150        27
37.160        27
37.170        20
37.180        13
37.190         7
37.200        13
37.210        13
37.220        20
37.230         7
37.240        40
37.250        27
37.260        20
37.270         0
37.280         7
37.290        20
37.300        53
37.310         7
37.320        13
37.330        27
37.340        20
37.350        27
37.360        13
37.370        13
37.380         7
37.390        27
37.400        13
37.410         7
37.420        13
37.430        13
37.440        27
37.450        20
37.460        40
37.470        13
37.480        13
37.490        13
37.500         7
37.510         7
37.520        47
37.530        27
37.540         0
37.550        20
37.560        13
37.570         7
37.580        13
37.590        40
37.600        20
37.610        27
37.620        33
37.630         0
37.640        33
37.650        27
37.660        33
37.670        13
37.680        33
37.690         7
37.700        20
37.710        27
37.720        40
37.730        33
37.740        13
37.750        53
37.760        47
37.770        33
37.780        27
37.790        33
37.800        40
37.810         7
37.820        60
37.830        27
37.840         7
37.850        40
37.860        47
37.870        20
37.880        13
37.890        20
37.900        33
37.910        27
37.920        13
37.930        27
37.940        20
37.950        13
37.960        33
37.970        20
37.980        27
37.990        27
38.000        20
38.010        20
38.020         7
38.030        33
38.040        20
38.050        27
38.060        33
38.070        20
38.080        20
38.090        33
38.100        20
38.110         7
38.120        13
38.130         7
38.140        13
38.150        13
38.160        13
38.170        27
38.180        13
38.190        20
38.200        47
38.210         7
38.220        20
38.230        20
38.240        13
38.250        20
38.260        13
38.270        27
38.280        13
38.290        33
38.300         7
38.310        27
38.320        20
38.330        20
38.340        27
38.350         7
38.360        27
38.370        13
38.380         7
38.390        20
38.400        13
38.410         7
38.420        13
38.430        20
38.440        13
38.450        20
38.460        40
38.470        20
38.480        20
38.490        20
38.500        27
38.510        20
38.520        27
38.530        27
38.540        20
38.550        13
38.560         7
38.570        20
38.580        33
38.590        20
38.600         7
38.610        27
38.620        60
38.630        20
38.640        20
38.650        13
38.660        20
38.670        20
38.680         7
38.690        20
38.700         7
38.710        33
38.720        33
38.730        47
38.740        20
38.750        27
38.760        27
38.770        20
38.780         0
38.790        27
38.800        27
38.810        20
38.820        20
38.830         7
38.840        47
38.850        20
38.860        33
38.870        20
38.880        20
38.890        13
38.900         7
38.910        67
38.920        13
38.930        27
38.940         0
38.950        40
38.960        13
38.970        20
38.980        33
38.990        20
39.000        33
39.010        40
39.020         7
39.030         0
39.040        27
39.050        20
39.060        20
39.070        20
39.080        20
39.090         7
39.100         7
39.110        13
39.120        33
39.130        20
39.140        47
39.150        27
39.160        27
39.170         7
39.180        13
39.190        27
39.200        27
39.210        13
39.220        13
39.230        13
39.240        13
39.250         7
39.260        13
39.270        27
39.280        13
39.290        20
39.300         7
39.310        53
39.320         0
39.330        27
39.340        27
39.350        27
39.360        47
39.370        20
39.380        27
39.390        20
39.400        20
39.410        13
39.420        13
39.430        40
39.440        53
39.450        27
39.460        47
39.470        40
39.480        40
39.490        27
39.500        27
39.510        27
39.520        47
39.530        40
39.540        33
39.550        40
39.560        33
39.570        40
39.580        53
39.590        40
39.600        27
39.610        33
39.620        40
39.630        33
39.640        13
39.650        20
39.660         7
39.670        40
39.680        60
39.690        33
39.700        33
39.710        27
39.720        27
39.730        33
39.740        33
39.750        27
39.760        33
39.770         7
39.780        60
39.790        67
39.800        47
39.810        47
39.820        60
39.830        20
39.840        33
39.850        40
39.860        73
39.870        20
39.880        67
39.890        33
39.900        47
39.910        27
39.920        13
39.930        13
39.940        40
39.950        33
39.960        60
39.970        47
39.980        33
39.990        40
40.000        33
40.010        20
40.020        53
40.030        20
40.040        67
40.050        20
40.060        47
40.070        27
40.080        60
40.090        47
40.100        47
40.110        33
40.120        40
40.130        33
40.140        27
40.150        13
40.160        27
40.170        20
40.180        33
40.190        33
40.200        20
40.210         7
40.220        27
40.230        33
40.240        27
40.250        53
40.260         7
40.270        33
40.280        20
40.290        33
40.300        20
40.310        13
40.320        40
40.330        13
40.340         7
40.350        27
40.360        53
40.370         7
40.380        20
40.390        20
40.400        27
40.410        13
40.420        33
40.430        20
40.440        33
40.450        20
40.460        47
40.470        73
40.480        20
40.490         7
40.500         7
40.510        20
40.520        13
40.530        47
40.540        33
40.550        27
40.560        13
40.570        20
40.580        27
40.590        20
40.600        20
40.610        13
40.620        33
40.630        33
40.640        33
40.650        13
40.660        20
40.670        27
40.680        27
40.690        40
40.700        20
40.710         7
40.720        13
40.730         7
40.740        13
40.750        33
40.760        20
40.770        20
40.780        13
40.790        20
40.800        27
40.810        13
40.820        20
40.830        13
40.840        20
40.850        60
40.860        27
40.870        13
40.880        27
40.890        20
40.900         7
40.910        20
40.920        40
40.930        13
40.940        40
40.950        27
40.960        13
40.970        13
40.980        27
40.990        33
41.000        20
41.010        40
41.020        53
41.030        67
41.040        13
41.050        20
41.060        13
41.070        33
41.080         7
41.090        13
41.100        20
41.110        20
41.120        20
41.130        27
41.140        20
41.150        20
41.160        27
41.170        33
41.180        33
41.190        13
41.200         7
41.210        33
41.220        27
41.230        20
41.240        27
41.250         7
41.260        20
41.270        27
41.280        13
41.290         7
41.300        20
41.310        20
41.320         0
41.330        20
41.340         7
41.350        40
41.360        27
41.370        20
41.380        20
41.390        13
41.400        20
41.410        47
41.420         7
41.430        20
41.440        33
41.450        13
41.460        47
41.470        27
41.480        20
41.490        47
41.500        33
41.510        13
41.520        33
41.530        20
41.540        20
41.550         7
41.560         7
41.570        47
41.580        13
41.590        60
41.600        13
41.610         7
41.620         0
41.630        47
41.640        33
41.650        33
41.660       107
41.670       100
41.680       153
41.690       127
41.700       153
41.710        73
41.720        73
41.730        87
41.740        93
41.750        93
41.760        40
41.770        47
41.780       107
41.790       113
41.800       107
41.810        87
41.820        40
41.830        53
41.840        80
41.850        53
41.860        53
41.870        73
41.880         7
41.890         0
41.900        20
41.910        33
41.920        13
41.930        13
41.940        13
41.950        27
41.960        40
41.970        13
41.980        27
41.990        40
42.000        33
42.010        27
42.020         0
42.030         7
42.040        13
42.050        13
42.060        33
42.070        27
42.080        13
42.090        20
42.100        13
42.110        20
42.120        20
42.130         7
42.140        20
42.150        27
42.160        13
42.170        20
42.180        20
42.190        20
42.200         7
42.210        27
42.220        13
42.230        40
42.240        13
42.250        13
42.260        20
42.270        33
42.280        13
42.290        20
42.300        20
42.310        20
42.320         7
42.330        27
42.340        20
42.350        33
42.360         7
42.370        13
42.380        20
42.390         7
42.400        40
42.410        33
42.420        40
42.430        20
42.440        27
42.450         7
42.460        13
42.470        27
42.480         7
42.490        20
42.500        20
42.510        13
42.520        13
42.530        13
42.540        33
42.550        13
42.560        27
42.570         7
42.580         7
42.590        13
42.600        13
42.610        20
42.620        20
42.630        27
42.640        13
42.650        13
42.660        20
42.670        27
42.680        40
42.690        13
42.700        27
42.710         7
42.720        33
42.730        40
42.740        33
42.750        20
42.760         7
42.770        33
42.780         0
42.790        27
42.800         7
42.810         7
42.820        13
42.830        27
42.840        20
42.850        27
42.860        27
42.870         7
42.880        33
42.890         0
42.900        40
42.910        20
42.920        33
42.930        27
42.940        20
42.950        53
42.960         0
42.970        47
42.980        27
42.990        13
43.000        13
43.010         0
43.020        20
43.030        20
43.040        13
43.050         7
43.060        40
43.070        27
43.080        40
43.090        20
43.100        27
43.110        27
43.120        13
43.130        27
43.140        27
43.150        40
43.160        53
43.170        40
43.180        47
43.190        27
43.200        33
43.210        13
43.220        13
43.230        27
43.240        47
43.250        40
43.260        27
43.270        53
43.280        40
43.290        47
43.300        40
43.310        47
43.320        13
43.330        53
43.340        20
43.350        20
43.360        73
43.370        67
43.380       100
43.390       113
43.400       147
43.410        67
43.420       107
43.430        47
43.440        60
43.450        40
43.460        40
43.470        40
43.480        27
43.490        80
43.500        53
43.510        33
43.520        53
43.530        60
43.540        53
43.550        33
43.560        27
43.570        13
43.580        13
43.590         7
43.600        13
43.610        20
43.620         7
43.630        20
43.640        33
43.650        20
43.660        53
43.670        33
43.680        13
43.690        53
43.700        27
43.710        33
43.720        33
43.730         7
43.740        33
43.750        20
43.760        33
43.770        20
43.780         0
43.790        27
43.800         7
43.810        40
43.820        20
43.830        33
43.840        27
43.850        33
43.860        27
43.870        33
43.880         7
43.890        27
43.900        20
43.910        20
43.920        20
43.930        47
43.940        33
43.950        27
43.960        13
43.970        20
43.980        40
43.990        33
44.000        13
44.010        33
44.020        13
44.030         0
44.040        20
44.050        40
44.060        13
44.070         0
44.080         7
44.090        40
44.100        33
44.110        27
44.120        20
44.130         0
44.140        20
44.150         7
44.160        40
44.170        33
44.180        20
44.190        20
44.200        47
44.210        27
44.220        27
44.230        13
44.240        20
44.250        33
44.260        20
44.270         7
44.280        33
44.290        53
44.300        40
44.310        47
44.320        27
44.330        27
44.340        33
44.350        27
44.360         7
44.370         7
44.380        13
44.390        20
44.400        40
44.410        20
44.420        33
44.430        53
44.440        27
44.450        33
44.460        60
44.470        13
44.480        40
44.490        20
44.500        53
44.510        33
44.520        40
44.530        47
44.540        53
44.550        33
44.560         7
44.570        13
44.580        20
44.590        27
44.600        20
44.610        33
44.620        40
44.630        40
44.640        20
44.650        33
44.660        27
44.670        27
44.680        33
44.690        20
44.700        33
44.710        20
44.720        20
44.730        40
44.740        27
44.750        40
44.760        33
44.770        27
44.780        20
44.790        27
44.800        33
44.810        33
44.820        40
44.830        13
44.840        60
44.850        33
44.860        27
44.870        33
44.880        53
44.890        40
44.900        27
44.910        20
44.920        27
44.930        40
44.940        40
44.950        40
44.960        33
44.970        27
44.980        27
44.990        33
45.000        33
45.010        20
45.020        47
45.030        20
45.040        53
45.050        47
45.060        33
45.070        27
45.080        40
45.090        20
45.100        47
45.110        73
45.120        33
45.130        67
45.140        60
45.150        53
45.160        27
45.170        40
45.180        53
45.190        20
45.200        53
45.210        53
45.220        40
45.230        67
45.240        13
45.250        40
45.260        53
45.270        47
45.280        53
45.290        80
45.300        47
45.310        60
45.320        33
45.330        53
45.340        47
45.350        47
45.360        40
45.370        33
45.380        27
45.390        53
45.400        87
45.410        47
45.420       133
45.430        93
45.440       100
45.450        73
45.460        80
45.470       100
45.480        73
45.490        73
45.500       107
45.510        73
45.520        80
45.530        80
45.540        53
45.550       107
45.560       113
45.570        87
45.580        73
45.590        60
45.600       100
45.610       140
45.620        73
45.630        93
45.640       100
45.650        73
45.660       120
45.670        93
45.680       113
45.690        73
45.700       107
45.710       147
45.720        73
45.730       113
45.740       113
45.750       113
45.760        67
45.770       147
45.780       113
45.790        73
45.800        87
45.810        80
45.820        87
45.830       100
45.840       153
45.850       107
45.860       120
45.870       140
45.880       140
45.890       133
45.900       113
45.910       147
45.920        93
45.930       133
45.940       107
45.950        80
45.960        93
45.970       140
45.980        67
45.990       153
46.000        93
46.010       120
46.020       107
46.030       160
46.040       140
46.050       113
46.060       133
46.070       133
46.080       100
46.090       127
46.100       113
46.110       140
46.120        93
46.130        87
46.140       113
46.150       147
46.160       113
46.170        67
46.180        93
46.190       127
46.200        67
46.210       180
46.220       167
46.230        93
46.240       107
46.250        47
46.260        93
46.270        87
46.280        93
46.290        93
46.300        67
46.310       120
46.320        80
46.330        87
46.340        47
46.350       107
46.360       153
46.370        53
46.380        93
46.390        60
46.400        80
46.410        87
46.420        87
46.430        73
46.440        60
46.450        40
46.460        80
46.470        53
46.480        87
46.490       113
46.500        60
46.510        60
46.520        60
46.530        73
46.540        47
46.550        87
46.560        33
46.570        60
46.580        93
46.590       100
46.600        67
46.610        47
46.620        87
46.630        93
46.640        73
46.650        27
46.660        53
46.670        73
46.680        40
46.690        27
46.700        27
46.710        33
46.720        93
46.730        80
46.740        47
46.750        40
46.760        73
46.770        73
46.780        27
46.790        33
46.800        47
46.810        60
46.820        40
46.830        40
46.840         7
46.850        20
46.860        67
46.870        47
46.880        40
46.890        27
46.900        40
46.910        53
46.920        53
46.930        40
46.940        20
46.950        40
46.960        33
46.970        67
46.980        47
46.990        13
47.000        40
47.010        13
47.020        67
47.030        33
47.040        27
47.050        27
47.060        40
47.070        20
47.080        33
47.090        33
47.100        33
47.110        20
47.120        27
47.130        47
47.140        47
47.150        27
47.160        33
47.170        13
47.180        33
47.190        20
47.200        27
47.210        33
47.220        40
47.230        40
47.240         7
47.250        13
47.260        53
47.270        20
47.280        33
47.290         7
47.300        40
47.310        60
47.320         7
47.330        33
47.340        47
47.350        27
47.360        13
47.370        40
47.380        33
47.390        47
47.400         7
47.410        27
47.420        20
47.430        20
47.440        20
47.450        27
47.460        13
47.470        13
47.480        33
47.490        13
47.500        20
47.510        13
47.520         7
47.530        20
47.540        33
47.550         7
47.560        27
47.570        13
47.580        20
47.590        33
47.600         0
47.610         0
47.620        13
47.630        27
47.640        27
47.650        47
47.660        40
47.670        13
47.680        27
47.690        13
47.700        13
47.710        27
47.720        33
47.730        33
47.740         7
47.750         7
47.760        27
47.770        40
47.780        20
47.790        27
47.800        40
47.810        20
47.820        20
47.830        33
47.840        20
47.850        33
47.860         0
47.870        53
47.880         7
47.890        40
47.900        13
47.910         0
47.920        33
47.930        20
47.940         0
47.950        27
47.960        13
47.970        20
47.980        27
47.990         7
48.000        20
48.010        20
48.020        27
48.030        13
48.040        20
48.050        13
48.060        27
48.070         0
48.080        13
48.090        13
48.100        20
48.110        20
48.120        47
48.130        20
48.140        20
48.150        40
48.160        27
48.170        20
48.180        20
48.190        33
48.200         7
48.210        33
48.220         7
48.230        20
48.240        27
48.250        27
48.260        13
48.270        33
48.280        13
48.290        27
48.300        27
48.310        13
48.320        20
48.330         7
48.340        20
48.350        40
48.360        47
48.370        33
48.380         0
48.390        33
48.400        20
48.410        20
48.420        40
48.430        20
48.440         0
48.450        13
48.460        33
48.470        20
48.480        33
48.490        33
48.500        20
48.510        27
48.520        33
48.530        13
48.540         7
48.550        20
48.560         7
48.570         7
48.580        27
48.590        27
48.600        27
48.610        27
48.620        33
48.630         7
48.640         0
48.650         7
48.660         0
48.670        20
48.680        27
48.690         7
48.700        13
48.710        27
48.720        13
48.730        33
48.740        27
48.750         7
48.760        20
48.770        13
48.780        20
48.790        27
48.800        20
48.810        13
48.820        33
48.830        33
48.840        27
48.850        13
48.860        47
48.870         7
48.880        20
48.890         7
48.900        73
48.910        40
48.920        20
48.930        40
48.940         7
48.950        33
48.960        13
48.970        27
48.980        20
48.990        27
49.000        20
49.010        20
49.020        27
49.030        20
49.040        27
49.050        13
49.060        33
49.070        20
49.080        40
49.090        20
49.100        27
49.110        13
49.120         0
49.130        13
49.140        27
49.150        13
49.160         7
49.170        27
49.180        33
49.190        27
49.200        20
49.210         0
49.220        13
49.230         7
49.240        27
49.250        33
49.260        27
49.270        20
49.280        40
49.290         7
49.300        20
49.310        20
49.320        13
49.330        27
49.340        27
49.350         0
49.360        33
49.370         7
49.380        27
49.390         7
49.400        13
49.410        13
49.420        20
49.430         7
49.440        13
49.450        27
49.460        20
49.470        13
49.480        13
49.490        27
49.500         7
49.510         7
49.520        20
49.530        20
49.540        20
49.550        27
49.560        33
49.570        20
49.580        13
49.590        20
49.600         0
49.610        13
49.620        13
49.630         7
49.640        27
49.650        33
49.660        33
49.670        47
49.680        33
49.690        13
49.700        47
49.710        20
49.720        13
49.730        27
49.740        40
49.750         7
49.760        33
49.770        27
49.780        20
49.790         7
49.800        13
49.810        27
49.820        13
49.830        40
49.840        27
49.850         7
49.860        20
49.870        13
49.880         7
49.890        33
49.900        20
49.910        20
49.920        33
49.930        27
49.940        13
49.950        13
49.960        13
49.970        20
49.980        13
49.990        13
50.000        20
50.010        13
50.020        33
50.030        13
50.040         0
50.050        27
50.060         7
50.070        13
50.080        20
50.090         7
50.100        27
50.110        13
50.120        13
50.130        13
50.140        47
50.150        27
50.160        33
50.170        13
50.180        20
50.190        33
50.200         0
50.210        13
50.220        13
50.230         0
50.240        20
50.250         0
50.260         0
50.270        13
50.280        20
50.290         7
50.300        13
50.310        47
50.320         7
50.330        33
50.340         7
50.350         0
50.360         0
50.370         7
50.380        13
50.390        13
50.400         7
50.410        13
50.420        13
50.430        27
50.440         0
50.450        20
50.460         0
50.470        20
50.480        27
50.490         0
50.500         0
50.510        20
50.520        13
50.530        33
50.540        27
50.550        13
50.560         7
50.570        20
50.580        13
50.590        20
50.600        13
50.610        40
50.620        13
50.630        20
50.640        20
50.650        27
50.660        13
50.670        33
50.680        13
50.690        27
50.700        13
50.710        27
50.720        13
50.730        20
50.740        20
50.750        13
50.760         7
50.770        27
50.780         7
50.790        13
50.800        13
50.810         0
50.820        20
50.830        47
50.840        20
50.850        27
50.860         7
50.870        27
50.880         0
50.890         7
50.900         0
50.910        20
50.920         7
50.930         0
50.940        20
50.950        20
50.960        13
50.970        33
50.980        13
50.990        33
51.000         7
51.010         0
51.020        13
51.030        20
51.040        20
51.050        20
51.060        13
51.070        20
51.080        20
51.090         7
51.100         0
51.110        33
51.120         7
51.130        33
51.140         0
51.150        27
51.160        20
51.170        13
51.180        40
51.190        13
51.200        27
51.210         7
51.220        20
51.230        27
51.240         7
51.250        20
51.260        13
51.270        27
51.280        33
51.290        33
51.300        13
51.310         7
51.320        13
51.330         0
51.340        20
51.350         7
51.360         7
51.370         7
51.380        13
51.390        13
51.400         7
51.410        20
51.420         0
51.430        13
51.440         7
51.450        13
51.460        13
51.470        27
51.480         7
51.490        20
51.500        20
51.510        20
51.520         0
51.530        27
51.540        20
51.550        20
51.560        40
51.570        13
51.580        13
51.590        47
51.600         7
51.610        20
51.620         7
51.630        13
51.640        33
51.650         0
51.660        33
51.670        20
51.680         7
51.690        13
51.700         7
51.710         7
51.720        20
51.730        20
51.740        33
51.750        20
51.760        27
51.770        20
51.780        20
51.790         7
51.800        13
51.810        20
51.820         7
51.830        20
51.840        13
51.850        27
51.860        13
51.870        13
51.880        20
51.890         7
51.900        27
51.910        33
51.920        33
51.930         7
51.940         0
51.950        20
51.960        27
51.970         7
51.980        13
51.990        33
52.000        27
52.010        20
52.020        20
52.030        13
52.040        40
52.050        13
52.060        13
52.070         7
52.080        27
52.090        13
52.100        20
52.110         7
52.120        20
52.130        13
52.140        13
52.150         0
52.160        33
52.170        27
52.180         0
52.190        20
52.200        27
52.210        20
52.220        13
52.230        20
52.240        33
52.250        13
52.260        20
52.270        40
52.280        27
52.290         7
52.300        13
52.310        33
52.320         7
52.330        13
52.340        13
52.350        13
52.360        20
52.370        20
52.380        40
52.390        20
52.400        20
52.410         7
52.420         7
52.430        13
52.440        13
52.450        13
52.460         0
52.470         0
52.480        13
52.490        20
52.500        33
52.510        20
52.520         7
52.530        33
52.540        47
52.550        20
52.560        27
52.570        13
52.580        87
52.590        27
52.600        27
52.610        33
52.620         7
52.630        53
52.640        27
52.650        27
52.660        13
52.670        20
52.680        13
52.690        33
52.700        53
52.710        13
52.720         7
52.730        20
52.740        13
52.750        13
52.760        20
52.770        20
52.780        20
52.790        13
52.800        20
52.810        13
52.820        47
52.830        13
52.840        20
52.850        27
52.860        20
52.870         7
52.880        33
52.890        27
52.900         0
52.910        13
52.920        13
52.930         0
52.940        20
52.950         7
52.960        13
52.970         7
52.980         0
52.990        20
53.000        33
53.010         7
53.020        20
53.030        13
53.040        20
53.050        33
53.060        13
53.070        13
53.080         7
53.090        20
53.100        13
53.110         0
53.120         7
53.130        13
53.140        13
53.150        13
53.160        13
53.170         7
53.180        20
53.190        27
53.200         7
53.210        27
53.220        20
53.230        27
53.240         0
53.250        40
53.260        27
53.270        13
53.280        27
53.290        13
53.300        20
53.310        33
53.320         7
53.330        20
53.340        27
53.350        13
53.360        20
53.370        33
53.380        27
53.390        20
53.400        33
53.410        20
53.420        27
53.430         7
53.440        13
53.450        20
53.460        27
53.470        13
53.480         7
53.490         0
53.500         0
53.510        20
53.520        33
53.530        27
53.540        33
53.550        33
53.560        27
53.570        13
53.580        13
53.590        27
53.600        20
53.610        33
53.620         7
53.630        13
53.640        27
53.650        20
53.660        27
53.670        20
53.680        27
53.690        13
53.700         7
53.710        13
53.720        20
53.730        13
53.740         7
53.750        27
53.760        27
53.770         7
53.780        27
53.790         7
53.800        13
53.810         0
53.820        13
53.830        40
53.840        13
53.850        20
53.860        20
53.870        27
53.880         7
53.890        33
53.900        20
53.910        27
53.920        20
53.930        13
53.940        40
53.950        27
53.960         7
53.970        27
53.980         7
53.990         7
54.000         7
54.010        20
54.020        27
54.030        13
54.040        33
54.050        13
54.060        20
54.070        20
54.080         7
54.090        33
54.100         7
54.110        27
54.120        13
54.130        13
54.140         0
54.150        20
54.160         0
54.170        13
54.180        13
54.190         7
54.200        13
54.210         7
54.220         0
54.230         7
54.240        13
54.250        40
54.260         7
54.270         7
54.280         7
54.290        27
54.300         7
54.310        20
54.320        27
54.330        33
54.340        27
54.350        20
54.360        20
54.370        20
54.380         7
54.390        53
54.400        13
54.410        13
54.420        47
54.430         7
54.440        20
54.450        20
54.460        33
54.470         7
54.480         7
54.490        27
54.500         7
54.510         7
54.520        13
54.530        13
54.540        20
54.550        20
54.560        20
54.570        13
54.580        53
54.590         7
54.600        20
54.610         7
54.620         7
54.630        27
54.640        13
54.650        13
54.660        20
54.670        27
54.680         7
54.690         0
54.700         7
54.710         7
54.720        20
54.730         0
54.740        20
54.750        13
54.760        33
54.770        33
54.780        20
54.790        27
54.800         0
54.810        33
54.820        20
54.830        53
54.840        33
54.850         7
54.860        40
54.870         7
54.880         0
54.890        40
54.900         7
54.910        13
54.920        13
54.930         7
54.940        33
54.950         7
54.960         7
54.970        13
54.980        13
54.990         0
55.000        13
55.010        20
55.020        27
55.030        13
55.040        47
55.050        33
55.060         7
55.070        20
55.080        13
55.090        27
55.100         7
55.110        33
55.120        13
55.130         0
55.140        20
55.150         0
55.160        13
55.170        20
55.180         7
55.190        13
55.200        20
55.210        13
55.220        20
55.230         7
55.240        13
55.250         0
55.260         0
55.270        13
55.280        20
55.290        27
55.300        20
55.310        13
55.320        67
55.330         7
55.340        13
55.350        13
55.360         7
55.370         0
55.380         7
55.390        20
55.400        27
55.410        13
55.420        20
55.430         7
55.440        20
55.450        20
55.460        33
55.470        27
55.480         7
55.490        20
55.500         7
55.510        20
55.520         7
55.530         7
55.540         7
55.550        13
55.560         7
55.570        13
55.580        27
55.590        40
55.600        13
55.610         7
55.620        27
55.630        27
55.640        27
55.650        13
55.660        33
55.670         7
55.680         0
55.690        33
55.700         0
55.710        20
55.720        40
55.730         7
55.740        13
55.750         0
55.760        27
55.770         0
55.780        20
55.790         0
55.800        27
55.810        13
55.820         0
55.830         7
55.840        20
55.850         0
55.860         7
55.870        13
55.880         0
55.890        27
55.900         7
55.910        13
55.920        13
55.930        20
55.940        13
55.950         7
55.960        13
55.970        13
55.980        13
55.990        20
56.000        20
56.010        20
56.020        13
56.030         7
56.040        27
56.050        13
56.060         0
56.070         0
56.080         0
56.090        13
56.100         7
56.110        13
56.120        13
56.130        20
56.140        13
56.150        13
56.160         0
56.170        27
56.180        20
56.190         7
56.200        20
56.210        13
56.220         0
56.230         7
56.240        13
56.250        20
56.260         0
56.270        27
56.280        13
56.290        33
56.300         0
56.310        20
56.320        33
56.330         0
56.340        13
56.350         7
56.360        20
56.370         0
56.380        33
56.390        20
56.400         7
56.410        33
56.420         0
56.430        13
56.440        13
56.450        13
56.460        20
56.470        20
56.480        13
56.490        27
56.500        27
56.510         7
56.520         7
56.530         7
56.540         0
56.550        13
56.560         7
56.570        13
56.580        13
56.590         7
56.600        27
56.610        20
56.620         7
56.630        20
56.640        13
56.650        13
56.660        27
56.670        13
56.680        27
56.690        27
56.700        20
56.710        27
56.720        20
56.730        27
56.740        20
56.750         0
56.760        13
56.770        13
56.780         0
56.790         7
56.800        13
56.810        20
56.820         0
56.830         7
56.840        13
56.850         7
56.860        20
56.870         7
56.880        27
56.890        13
56.900        13
56.910        13
56.920         7
56.930        13
56.940        13
56.950        13
56.960        27
56.970        27
56.980        20
56.990        27
57.000        20
57.010        27
57.020        20
57.030        33
57.040        20
57.050        27
57.060         0
57.070        27
57.080        13
57.090        20
57.100        53
57.110        20
57.120        27
57.130        27
57.140        20
57.150        33
57.160        33
57.170        27
57.180        33
57.190        40
57.200        13
57.210        33
57.220        20
57.230        27
57.240        40
57.250        27
57.260        33
57.270        20
57.280         7
57.290         7
57.300        53
57.310        13
57.320        40
57.330        27
57.340        27
57.350        40
57.360        27
57.370        40
57.380        40
57.390        20
57.400        60
57.410        40
57.420        60
57.430        27
57.440        33
57.450        80
57.460        87
57.470       120
57.480       113
57.490       180
57.500       193
57.510       153
57.520       120
57.530       120
57.540       120
57.550       113
57.560       240
57.570       140
57.580        47
57.590        67
57.600        67
57.610        67
57.620        80
57.630        87
57.640       140
57.650        80
57.660        60
57.670       107
57.680        93
57.690       120
57.700        53
57.710        53
57.720        87
57.730        87
57.740        33
57.750        67
57.760        20
57.770        33
57.780        20
57.790        33
57.800        40
57.810        60
57.820        27
57.830        33
57.840        53
57.850         7
57.860        20
57.870         7
57.880        27
57.890        20
57.900         7
57.910        13
57.920         7
57.930         7
57.940        20
57.950        40
57.960        20
57.970        53
57.980         7
57.990         7
58.000        20
58.010        20
58.020        13
58.030        13
58.040        33
58.050        13
58.060        13
58.070        13
58.080        20
58.090        13
58.100        20
58.110         0
58.120        13
58.130        47
58.140        20
58.150        20
58.160        27
58.170        20
58.180        13
58.190        20
58.200        13
58.210         7
58.220        13
58.230        40
58.240        13
58.250        20
58.260        13
58.270         0
58.280         0
58.290        20
58.300         0
58.310         0
58.320         7
58.330        13
58.340        13
58.350        13
58.360        13
58.370        13
58.380        20
58.390        20
58.400         7
58.410        33
58.420        13
58.430         7
58.440         7
58.450        20
58.460        27
58.470        27
58.480        27
58.490        20
58.500        13
58.510        13
58.520        20
58.530        33
58.540        33
58.550        20
58.560        13
58.570         7
58.580        20
58.590        33
58.600         7
58.610        13
58.620         7
58.630         0
58.640        20
58.650        20
58.660         0
58.670        27
58.680         7
58.690         7
58.700        27
58.710        20
58.720         7
58.730         7
58.740         0
58.750        47
58.760         0
58.770        20
58.780         7
58.790         7
58.800         7
58.810        27
58.820         7
58.830        47
58.840        27
58.850         7
58.860         7
58.870        27
58.880        20
58.890        27
58.900         7
58.910        27
58.920         0
58.930        13
58.940         7
58.950        33
58.960        13
58.970         0
58.980        13
58.990         7
59.000         0
59.010        20
59.020        33
59.030        27
59.040         7
59.050         7
59.060         0
59.070        27
59.080        40
59.090         7
59.100        13
59.110        13
59.120        20
59.130        13
59.140        13
59.150         7
59.160        20
59.170         7
59.180         7
59.190        33
59.200         7
59.210         7
59.220         0
59.230        13
59.240        40
59.250        13
59.260        20
59.270         7
59.280        20
59.290        13
59.300        33
59.310         7
59.320         7
59.330        20
59.340        27
59.350         7
59.360        13
59.370        13
59.380         0
59.390        13
59.400         7
59.410        13
59.420         0
59.430         7
59.440         7
59.450        20
59.460        27
59.470         7
59.480         7
59.490        27
59.500         0
59.510        27
59.520        13
59.530        40
59.540        40
59.550        33
59.560        13
59.570        40
59.580        20
59.590        20
59.600        13
59.610         0
59.620        20
59.630        13
59.640        27
59.650        27
59.660        20
59.670         7
59.680        20
59.690        13
59.700        20
59.710        27
59.720        33
59.730        27
59.740         7
59.750        33
59.760        20
59.770         7
59.780        13
59.790        33
59.800        20
59.810        33
59.820         7
59.830         7
59.840         7
59.850        20
59.860        13
59.870        20
59.880         7
59.890        20
59.900         7
59.910        20
59.920        27
59.930        27
59.940        13
59.950        13
59.960        27
59.970        27
59.980        27
59.990        33
60.000         7
