20.000        13
20.010        13
20.020        67
20.030        40
20.040        67
20.050        27
20.060        47
20.070        67
20.080        13
20.090        33
20.100        33
20.110        40
20.120        53
20.130        27
20.140        40
20.150        40
20.160        53
20.170        67
20.180        67
20.190        67
20.200        93
20.210        27
20.220        87
20.230        80
20.240        40
20.250        73
20.260        33
20.270        20
20.280        60
20.290        60
20.300        47
20.310        40
20.320        47
20.330        47
20.340        53
20.350        60
20.360        13
20.370        27
20.380        47
20.390        60
20.400        33
20.410        67
20.420        33
20.430        27
20.440        53
20.450        40
20.460        13
20.470        33
20.480        27
20.490        33
20.500        67
20.510        40
20.520        13
20.530        20
20.540        33
20.550        40
20.560        33
20.570        40
20.580        40
20.590        40
20.600        47
20.610        87
20.620        40
20.630        33
20.640        40
20.650        40
20.660        40
20.670        20
20.680        73
20.690        53
20.700        27
20.710        13
20.720        67
20.730        73
20.740        13
20.750        27
20.760        40
20.770        47
20.780        33
20.790        33
20.800        33
20.810        47
20.820        20
20.830        53
20.840        33
20.850        20
20.860        53
20.870        33
20.880        47
20.890        47
20.900        67
20.910        47
20.920        40
20.930        67
20.940        33
20.950        33
20.960        67
20.970        47
20.980        27
20.990        27
21.000        80
21.010        33
21.020        33
21.030        47
21.040        53
21.050        33
21.060        47
21.070        33
21.080        47
21.090        40
21.100        13
21.110        20
21.120        20
21.130        33
21.140        60
21.150        40
21.160        40
21.170        33
21.180        40
21.190        80
21.200        33
21.210        47
21.220        40
21.230        13
21.240        47
21.250        20
21.260        13
21.270        20
21.280        27
21.290        47
21.300        27
21.310        20
21.320        67
21.330        27
21.340        27
21.350        60
21.360        33
21.370        27
21.380         7
21.390         7
21.400        53
21.410        80
21.420        27
21.430        13
21.440        47
21.450        13
21.460        27
21.470        33
21.480        33
21.490        40
21.500        47
21.510        87
21.520        60
21.530        60
21.540        53
21.550        40
21.560        53
21.570        40
21.580        27
21.590        47
21.600        20
21.610        20
21.620        33
21.630        60
21.640        27
21.650        40
21.660        53
21.670        20
21.680        33
21.690        60
21.700        33
21.710        47
21.720        33
21.730        33
21.740        53
21.750        27
21.760        13
21.770        53
21.780        40
21.790        87
21.800        47
21.810        60
21.820        53
21.830        67
21.840        53
21.850        40
21.860        27
21.870        67
21.880        73
21.890        53
21.900        47
21.910        60
21.920        60
21.930        53
21.940        13
21.950        33
21.960        47
21.970        40
21.980        40
21.990        73
22.000        47
22.010        27
22.020        47
22.030        47
22.040         7
22.050        47
22.060        73
22.070        47
22.080        40
22.090        47
22.100        53
22.110        40
22.120        73
22.130        80
22.140        80
22.150        60
22.160        87
22.170        40
22.180        40
22.190       113
22.200       113
22.210        80
22.220        73
22.230       120
22.240       107
22.250       120
22.260       140
22.270        73
22.280       133
22.290       187
22.300       140
22.310       173
22.320       173
22.330       193
22.340       187
22.350       247
22.360       200
22.370       413
22.380       293
22.390       313
22.400       300
22.410       300
22.420       347
22.430       426
22.440       480
22.450       540
22.460       626
22.470       673
22.480       686
22.490       740
22.500       693
22.510       580
22.520       786
22.530       760
22.540       520
22.550       686
22.560       660
22.570       580
22.580       480
22.590       413
22.600       333
22.610       213
22.620       200
22.630       240
22.640       187
22.650       120
22.660       107
22.670       113
22.680       107
22.690        73
22.700       147
22.710       160
22.720       113
22.730       133
22.740       113
22.750       140
22.760       100
22.770       140
22.780       133
22.790       193
22.800       160
22.810       120
22.820       147
22.830       187
22.840       247
22.850       200
22.860       267
22.870       247
22.880       233
22.890       333
22.900       227
22.910       360
22.920       320
22.930       327
22.940       267
22.950       300
22.960       273
22.970       240
22.980       233
22.990       287
23.000       293
23.010       233
23.020       187
23.030       207
23.040       227
23.050       160
23.060       133
23.070       113
23.080       147
23.090       113
23.100        73
23.110        93
23.120        80
23.130        93
23.140       107
23.150        80
23.160        53
23.170        60
23.180        60
23.190        60
23.200        47
23.210        33
23.220        60
23.230        60
23.240        67
23.250        53
23.260        73
23.270        53
23.280        67
23.290        47
23.300        73
23.310        67
23.320        67
23.330        47
23.340        67
23.350        20
23.360        47
23.370        60
23.380        53
23.390        40
23.400        20
23.410        33
23.420        53
23.430        20
23.440        40
23.450        53
23.460        47
23.470        40
23.480        47
23.490        27
23.500        33
23.510        53
23.520        27
23.530        53
23.540        73
23.550        33
23.560        53
23.570        53
23.580        60
23.590        47
23.600        40
23.610        40
23.620        40
23.630        40
23.640        13
23.650        33
23.660        53
23.670        60
23.680        27
23.690        40
23.700        73
23.710        53
23.720        40
23.730        53
23.740        53
23.750        40
23.760        47
23.770        33
23.780        67
23.790        47
23.800        33
23.810        40
23.820        60
23.830        87
23.840        33
23.850        40
23.860        27
23.870        80
23.880        20
23.890        27
23.900        40
23.910        87
23.920        60
23.930        27
23.940        60
23.950        33
23.960        40
23.970        40
23.980        40
23.990        40
24.000        53
24.010        53
24.020        73
24.030        60
24.040        47
24.050        53
24.060        60
24.070        27
24.080        53
24.090        33
24.100        40
24.110        33
24.120        60
24.130        27
24.140        33
24.150        87
24.160        33
24.170        40
24.180        53
24.190        53
24.200        47
24.210        20
24.220        27
24.230        53
24.240        53
24.250        47
24.260        33
24.270        40
24.280        67
24.290        40
24.300        20
24.310        33
24.320        33
24.330        27
24.340        40
24.350        47
24.360        67
24.370        40
24.380        27
24.390        20
24.400        60
24.410        47
24.420        67
24.430        67
24.440        40
24.450        20
24.460        40
24.470        33
24.480        67
24.490        40
24.500        40
24.510        40
24.520        53
24.530        27
24.540        47
24.550        40
24.560        47
24.570        33
24.580        60
24.590        27
24.600        67
24.610        40
24.620        40
24.630        47
24.640        53
24.650        53
24.660        60
24.670        40
24.680        20
24.690        20
24.700        47
24.710        67
24.720        33
24.730        53
24.740        13
24.750        47
24.760        40
24.770        93
24.780        33
24.790        67
24.800        40
24.810        40
24.820        20
24.830        27
24.840        33
24.850        53
24.860        67
24.870        33
24.880        33
24.890        27
24.900        53
24.910        47
24.920        33
24.930        40
24.940        13
24.950        53
24.960        53
24.970        47
24.980        73
24.990        33
25.000        40
25.010        67
25.020        40
25.030        67
25.040        33
25.050        53
25.060        33
25.070        33
25.080        13
25.090        47
25.100        40
25.110        27
25.120        47
25.130        27
25.140        27
25.150        20
25.160        47
25.170        33
25.180        47
25.190        40
25.200        60
25.210        33
25.220        27
25.230        27
25.240        47
25.250        20
25.260        47
25.270        27
25.280        67
25.290        20
25.300        53
25.310        20
25.320        47
25.330        53
25.340        60
25.350        33
25.360        40
25.370        67
25.380        67
25.390        20
25.400        60
25.410        60
25.420        60
25.430        33
25.440        33
25.450        60
25.460        60
25.470        47
25.480        40
25.490        53
25.500        20
25.510        40
25.520        53
25.530        47
25.540        53
25.550        53
25.560        67
25.570        87
25.580        73
25.590        67
25.600        60
25.610        80
25.620        87
25.630        73
25.640        87
25.650        67
25.660       107
25.670        33
25.680        60
25.690       100
25.700        67
25.710        67
25.720        47
25.730        67
25.740        53
25.750        73
25.760        87
25.770        93
25.780        73
25.790        67
25.800        67
25.810        87
25.820       120
25.830        67
25.840       113
25.850       120
25.860        60
25.870        67
25.880        73
25.890        60
25.900        73
25.910        67
25.920        20
25.930        33
25.940        40
25.950        67
25.960        47
25.970        13
25.980        73
25.990        27
26.000        40
26.010        33
26.020        27
26.030        53
26.040        40
26.050        27
26.060        87
26.070        33
26.080        47
26.090        27
26.100        20
26.110        47
26.120        53
26.130        33
26.140        40
26.150        53
26.160        40
26.170        33
26.180        27
26.190        27
26.200        40
26.210        13
26.220        47
26.230        27
26.240        13
26.250        20
26.260        13
26.270        33
26.280         0
26.290        13
26.300        47
26.310        33
26.320        20
26.330        20
26.340        67
26.350        33
26.360        40
26.370        27
26.380        60
26.390        33
26.400        20
26.410        53
26.420        53
26.430        33
26.440        20
26.450        40
26.460        27
26.470        40
26.480        40
26.490        20
26.500        27
26.510        20
26.520        47
26.530        47
26.540        20
26.550        47
26.560        13
26.570        40
26.580        60
26.590        27
26.600        67
26.610        27
26.620        47
26.630        13
26.640        67
26.650        20
26.660        20
26.670        47
26.680        27
26.690        20
26.700        47
26.710        27
26.720        47
26.730        40
26.740        33
26.750        27
26.760        53
26.770        40
26.780        40
26.790        33
26.800        13
26.810        47
26.820        60
26.830        40
26.840        27
26.850        60
26.860        27
26.870        33
26.880        33
26.890        27
26.900        40
26.910        73
26.920        27
26.930        33
26.940        53
26.950        27
26.960        13
26.970        33
26.980        33
26.990        33
27.000         7
27.010        20
27.020        60
27.030        33
27.040        13
27.050        33
27.060        47
27.070        20
27.080        20
27.090        33
27.100        47
27.110        47
27.120        27
27.130        53
27.140        20
27.150        40
27.160        40
27.170        33
27.180        33
27.190         7
27.200        13
27.210        40
27.220        20
27.230        27
27.240        53
27.250        33
27.260        27
27.270        53
27.280        40
27.290         7
27.300        13
27.310         7
27.320        20
27.330        20
27.340        20
27.350        27
27.360        47
27.370        33
27.380        40
27.390        27
27.400        27
27.410        47
27.420        33
27.430        47
27.440        33
27.450        67
27.460         7
27.470        13
27.480        27
27.490        53
27.500        33
27.510        33
27.520        53
27.530        47
27.540        27
27.550        47
27.560        60
27.570        60
27.580        60
27.590        60
27.600        53
27.610        60
27.620        47
27.630        60
27.640        80
27.650        33
27.660        53
27.670        40
27.680        67
27.690        87
27.700        93
27.710        53
27.720        60
27.730        87
27.740        87
27.750        67
27.760        93
27.770        27
27.780        60
27.790        47
27.800        47
27.810        80
27.820        67
27.830        47
27.840        40
27.850        33
27.860        20
27.870        60
27.880        60
27.890        40
27.900        40
27.910        33
27.920        47
27.930        53
27.940        47
27.950        53
27.960        53
27.970        47
27.980        20
27.990        60
28.000        40
28.010        60
28.020        60
28.030        40
28.040        53
28.050        27
28.060        53
28.070        53
28.080        73
28.090        60
28.100        40
28.110        73
28.120        73
28.130       107
28.140        47
28.150        93
28.160       127
28.170        73
28.180        67
28.190        60
28.200        67
28.210        87
28.220        47
28.230       133
28.240        87
28.250       100
28.260        67
28.270        67
28.280        80
28.290        80
28.300        47
28.310        93
28.320        73
28.330        20
28.340       100
28.350        60
28.360        87
28.370        80
28.380        60
28.390        40
28.400       140
28.410        53
28.420        33
28.430        67
28.440        40
28.450        40
28.460        60
28.470        47
28.480        80
28.490        87
28.500        47
28.510        73
28.520        20
28.530        40
28.540        27
28.550        27
28.560        27
28.570        53
28.580        67
28.590        67
28.600        47
28.610        33
28.620        27
28.630        67
28.640        47
28.650        40
28.660        47
28.670        60
28.680        80
28.690        47
28.700        60
28.710        47
28.720        60
28.730        33
28.740        53
28.750        40
28.760        60
28.770        73
28.780        47
28.790        40
28.800        40
28.810        53
28.820        47
28.830        33
28.840        47
28.850        53
28.860        47
28.870        47
28.880        93
28.890        60
28.900       107
28.910        60
28.920        60
28.930        40
28.940        67
28.950        53
28.960        60
28.970        60
28.980        53
28.990        67
29.000        67
29.010        60
29.020        73
29.030        93
29.040        73
29.050        47
29.060        67
29.070        53
29.080        87
29.090        67
29.100        60
29.110        33
29.120        47
29.130        47
29.140        20
29.150        73
29.160        60
29.170        40
29.180        33
29.190        80
29.200        60
29.210        33
29.220        60
29.230        67
29.240        47
29.250        20
29.260        53
29.270        13
29.280        20
29.290        20
29.300        53
29.310        47
29.320        27
29.330        33
29.340        60
29.350        33
29.360        40
29.370        67
29.380        47
29.390        33
29.400        20
29.410        33
29.420        60
29.430        67
29.440        73
29.450        67
29.460        33
29.470        67
29.480        67
29.490        67
29.500        53
29.510       107
29.520        47
29.530        40
29.540        93
29.550        87
29.560        47
29.570        47
29.580        73
29.590        47
29.600        53
29.610        67
29.620        80
29.630        53
29.640        33
29.650        80
29.660        80
29.670        47
29.680        40
29.690       100
29.700        27
29.710        60
29.720        27
29.730        33
29.740        53
29.750        47
29.760        53
29.770        53
29.780        27
29.790        33
29.800        13
29.810        20
29.820        33
29.830        20
29.840        33
29.850        40
29.860        47
29.870        40
29.880        33
29.890        33
29.900        47
29.910        13
29.920        47
29.930        33
29.940        20
29.950        53
29.960        40
29.970        40
29.980        80
29.990         7
30.000        27
30.010        47
30.020         7
30.030        53
30.040        27
30.050        20
30.060        20
30.070        20
30.080        33
30.090        40
30.100        27
30.110        33
30.120        40
30.130        53
30.140        53
30.150        40
30.160        27
30.170        13
30.180        13
30.190        27
30.200        60
30.210        27
30.220        73
30.230        13
30.240        27
30.250        47
30.260        40
30.270        33
30.280        27
30.290        47
30.300        13
30.310        33
30.320        80
30.330         7
30.340        53
30.350        40
30.360        33
30.370        47
30.380        73
30.390        47
30.400        47
30.410        40
30.420        40
30.430        60
30.440        67
30.450        60
30.460        93
30.470        67
30.480        73
30.490        60
30.500        40
30.510        13
30.520        33
30.530        47
30.540        33
30.550        53
30.560        47
30.570        33
30.580        33
30.590        27
30.600        20
30.610        27
30.620        40
30.630        33
30.640        53
30.650        27
30.660        27
30.670        47
30.680        40
30.690        33
30.700        33
30.710        13
30.720        53
30.730        53
30.740        40
30.750        47
30.760        33
30.770         7
30.780        13
30.790        53
30.800        20
30.810        13
30.820        67
30.830        20
30.840        67
30.850        47
30.860        33
30.870        33
30.880        27
30.890        33
30.900        20
30.910         7
30.920        40
30.930        13
30.940        20
30.950        60
30.960        13
30.970        20
30.980        40
30.990        20
31.000        27
31.010        40
31.020        60
31.030        27
31.040        40
31.050        20
31.060        53
31.070        20
31.080        27
31.090        33
31.100        27
31.110        13
31.120        47
31.130        67
31.140        40
31.150        20
31.160        20
31.170         7
31.180        47
31.190        20
31.200        20
31.210        53
31.220        33
31.230        20
31.240        27
31.250        27
31.260         7
31.270        40
31.280        20
31.290        20
31.300        33
31.310        13
31.320        20
31.330        13
31.340        60
31.350        27
31.360        20
31.370        40
31.380        47
31.390        27
31.400        13
31.410        27
31.420        13
31.430        20
31.440        40
31.450        13
31.460        33
31.470        53
31.480        33
31.490        60
31.500        47
31.510        40
31.520        33
31.530        33
31.540        20
31.550        67
31.560        27
31.570        20
31.580        27
31.590         0
31.600        27
31.610        33
31.620        53
31.630        27
31.640        27
31.650        27
31.660        40
31.670        40
31.680         0
31.690        27
31.700        20
31.710        27
31.720        33
31.730        40
31.740        27
31.750        33
31.760        40
31.770        47
31.780         0
31.790        33
31.800        33
31.810        20
31.820        13
31.830        33
31.840        33
31.850        40
31.860        60
31.870         7
31.880        13
31.890        13
31.900        67
31.910        20
31.920        40
31.930        40
31.940        40
31.950        27
31.960        53
31.970        27
31.980        73
31.990        67
32.000        60
32.010        53
32.020        47
32.030        47
32.040       100
32.050        60
32.060        73
32.070        60
32.080        40
32.090       133
32.100        80
32.110        80
32.120        53
32.130        80
32.140       120
32.150        53
32.160        73
32.170       127
32.180        73
32.190        87
32.200        40
32.210       107
32.220        67
32.230        53
32.240        33
32.250        67
32.260        67
32.270        33
32.280        20
32.290        53
32.300        13
32.310        40
32.320        13
32.330        27
32.340        33
32.350        20
32.360        33
32.370        47
32.380        13
32.390        33
32.400        13
32.410        13
32.420        33
32.430        27
32.440        20
32.450        27
32.460        20
32.470        33
32.480        33
32.490        20
32.500        47
32.510        33
32.520        40
32.530        20
32.540        20
32.550        20
32.560        27
32.570        33
32.580        27
32.590        47
32.600        13
32.610         7
32.620        47
32.630         0
32.640        13
32.650        53
32.660         7
32.670        20
32.680        20
32.690        40
32.700        13
32.710        20
32.720        60
32.730         7
32.740        27
32.750        27
32.760        40
32.770        20
32.780         7
32.790        47
32.800        27
32.810        13
32.820         7
32.830        27
32.840         0
32.850        20
32.860        40
32.870        27
32.880        27
32.890        13
32.900        33
32.910        13
32.920        20
32.930        27
32.940        20
32.950        27
32.960        80
32.970        20
32.980        20
32.990        33
33.000        13
33.010         7
33.020        13
33.030        40
33.040         7
33.050        13
33.060        13
33.070        33
33.080        27
33.090        40
33.100        27
33.110        60
33.120        40
33.130        40
33.140        27
33.150        33
33.160        20
33.170        53
33.180        27
33.190        93
33.200        40
33.210        27
33.220        27
33.230        33
33.240        13
33.250        27
33.260         7
33.270        20
33.280        13
33.290        40
33.300        40
33.310        33
33.320        40
33.330        40
33.340         7
33.350        27
33.360        27
33.370        20
33.380        27
33.390        20
33.400        33
33.410        13
33.420        27
33.430        27
33.440        13
33.450        13
33.460        27
33.470        20
33.480        13
33.490        47
33.500        13
33.510        40
33.520        33
33.530        40
33.540        20
33.550         7
33.560        20
33.570        33
33.580        33
33.590         7
33.600        40
33.610         7
33.620        13
33.630        33
33.640        40
33.650        33
33.660        13
33.670        27
33.680        33
33.690        27
33.700        27
33.710        33
33.720         0
33.730        20
33.740        13
33.750        13
33.760         0
33.770        13
33.780        20
33.790        13
33.800         7
33.810        27
33.820        27
33.830        33
33.840        27
33.850        20
33.860        40
33.870        33
33.880        53
33.890        20
33.900         7
33.910        13
33.920        20
33.930        13
33.940        20
33.950        13
33.960        47
33.970        13
33.980        27
33.990        27
34.000        27
34.010        40
34.020         0
34.030         7
34.040        33
34.050        33
34.060        13
34.070        33
34.080        33
34.090        27
34.100        33
34.110        20
34.120         7
34.130        33
34.140         7
34.150        27
34.160        47
34.170         7
34.180         7
34.190        33
34.200        40
34.210        33
34.220        27
34.230         0
34.240        40
34.250        27
34.260        27
34.270        27
34.280         0
34.290        20
34.300        27
34.310        27
34.320        27
34.330        40
34.340        27
34.350        33
34.360        47
34.370        27
34.380        13
34.390        60
34.400        27
34.410        40
34.420        33
34.430        20
34.440        20
34.450        27
34.460        53
34.470        20
34.480        60
34.490        40
34.500        47
34.510        47
34.520        47
34.530        47
34.540        13
34.550        53
34.560        33
34.570        27
34.580        60
34.590        33
34.600        20
34.610        53
34.620        40
34.630        40
34.640        27
34.650        20
34.660        33
34.670        13
34.680        20
34.690        20
34.700         7
34.710        13
34.720        27
34.730         7
34.740        20
34.750        20
34.760        40
34.770        20
34.780        40
34.790        47
34.800        20
34.810        27
34.820        13
34.830        20
34.840        20
34.850        13
34.860        27
34.870        27
34.880        33
34.890        20
34.900        20
34.910        27
34.920        13
34.930        13
34.940        47
34.950        27
34.960        20
34.970        13
34.980        47
34.990        40
35.000        20
35.010        67
35.020        73
35.030        47
35.040        33
35.050        53
35.060        47
35.070        60
35.080        27
35.090        40
35.100        60
35.110       100
35.120       107
35.130       127
35.140       193
35.150       207
35.160       320
35.170       127
35.180       167
35.190       193
35.200       107
35.210       113
35.220       167
35.230        73
35.240       120
35.250       140
35.260       120
35.270        93
35.280       147
35.290        80
35.300        53
35.310        80
35.320        40
35.330        20
35.340        47
35.350        80
35.360        53
35.370        20
35.380        47
35.390        27
35.400        13
35.410        47
35.420        27
35.430         0
35.440        27
35.450         7
35.460        27
35.470         7
35.480        47
35.490         7
35.500        13
35.510        13
35.520        20
35.530        20
35.540        33
35.550        40
35.560        13
35.570        47
35.580        13
35.590        13
35.600        27
35.610        27
35.620        27
35.630        13
35.640        20
35.650         0
35.660        27
35.670        33
35.680        47
35.690        13
35.700        13
35.710        13
35.720        33
35.730         7
35.740        27
35.750         7
35.760         7
35.770        40
35.780        27
35.790        40
35.800        13
35.810         7
35.820        27
35.830         7
35.840        53
35.850        33
35.860         7
35.870        40
35.880        13
35.890        40
35.900        53
35.910        13
35.920        33
35.930        13
35.940        13
35.950        20
35.960        33
35.970        13
35.980         7
35.990        20
36.000        13
36.010        13
36.020        27
36.030        20
36.040        47
36.050        27
36.060         7
36.070        13
36.080        33
36.090        47
36.100        27
36.110        13
36.120        13
36.130        20
36.140         7
36.150        20
36.160        33
36.170        40
36.180         7
36.190        20
36.200         7
36.210        33
36.220        20
36.230        20
36.240        40
36.250        20
36.260        13
36.270        27
36.280         0
36.290        27
36.300        13
36.310        20
36.320         0
36.330        40
36.340        20
36.350        40
36.360        20
36.370        27
36.380        33
36.390        53
36.400        13
36.410        13
36.420        20
36.430        20
36.440        33
36.450        47
36.460         7
36.470        13
36.480        20
36.490         0
36.500         0
36.510         7
36.520         7
36.530        33
36.540        27
36.550        27
36.560         7
36.570        27
36.580        13
36.590        20
36.600        27
36.610         7
36.620        13
36.630        20
36.640        13
36.650        40
36.660        13
36.670        13
36.680        33
36.690        40
36.700        27
36.710        13
36.720        27
36.730        20
36.740        67
36.750        27
36.760        27
36.770        13
36.780        27
36.790        40
36.800        13
36.810        33
36.820        13
36.830        13
36.840        20
36.850        33
36.860        13
36.870        20
36.880        13
36.890        20
36.900        47
36.910        20
36.920        20
36.930        20
36.940        20
36.950        13
36.960        20
36.970        33
36.980        20
36.990        27
37.000        27
37.010        33
37.020        13
37.030        27
37.040        33
37.050        47
37.060        33
37.070        40
37.080        13
37.090        13
37.100        33
37.110        20
37.120        20
37.130         0
37.140         0
37.150        13
37.160         7
37.170        13
37.180         7
37.190        20
37.200        20
37.210        27
37.220        27
37.230        20
37.240        20
37.250        27
37.260        13
37.270        33
37.280         7
37.290         0
37.300        20
37.310         0
37.320        13
37.330        13
37.340        20
37.350         7
37.360         7
37.370        13
37.380        13
37.390        13
37.400        47
37.410        20
37.420        40
37.430         7
37.440        13
37.450        40
37.460        47
37.470         0
37.480        33
37.490        40
37.500        13
37.510        20
37.520        33
37.530        40
37.540        33
37.550        27
37.560        13
37.570        27
37.580        20
37.590        20
37.600         7
37.610        33
37.620        73
37.630        47
37.640        60
37.650        53
37.660        40
37.670        53
37.680        13
37.690        33
37.700        33
37.710        20
37.720        40
37.730        33
37.740         7
37.750        47
37.760        53
37.770        40
37.780        67
37.790        53
37.800        27
37.810        87
37.820        13
37.830        40
37.840        20
37.850        40
37.860        20
37.870         7
37.880        20
37.890        13
37.900        27
37.910        27
37.920        33
37.930         7
37.940        27
37.950        33
37.960        13
37.970        13
37.980        20
37.990         7
38.000         0
38.010         7
38.020        27
38.030         7
38.040         0
38.050        20
38.060        13
38.070         0
38.080         7
38.090         7
38.100         7
38.110        33
38.120        20
38.130        13
38.140        40
38.150        20
38.160         0
38.170         7
38.180         7
38.190        33
38.200        33
38.210        20
38.220        20
38.230        33
38.240        27
38.250        20
38.260        40
38.270         7
38.280        20
38.290        27
38.300        27
38.310        13
38.320        33
38.330        27
38.340        27
38.350        40
38.360        27
38.370        27
38.380        20
38.390        20
38.400        27
38.410        33
38.420        27
38.430        13
38.440        20
38.450         7
38.460        40
38.470        27
38.480        33
38.490        67
38.500        27
38.510        27
38.520        73
38.530        27
38.540        20
38.550        40
38.560        33
38.570         7
38.580        13
38.590        27
38.600        27
38.610        27
38.620        13
38.630        20
38.640        40
38.650        13
38.660        33
38.670        33
38.680        33
38.690        47
38.700        20
38.710        20
38.720        20
38.730        20
38.740        33
38.750        33
38.760         7
38.770        20
38.780        13
38.790        20
38.800        33
38.810         0
38.820        20
38.830        47
38.840        13
38.850        20
38.860        53
38.870        33
38.880        13
38.890        13
38.900        20
38.910        33
38.920        13
38.930        13
38.940        33
38.950        13
38.960        33
38.970        27
38.980        13
38.990        40
39.000         7
39.010        20
39.020        13
39.030        20
39.040        33
39.050         7
39.060        20
39.070        33
39.080        40
39.090        33
39.100        13
39.110        40
39.120        47
39.130        20
39.140        27
39.150        27
39.160        33
39.170        20
39.180        20
39.190        27
39.200        27
39.210        13
39.220        20
39.230        27
39.240        33
39.250        20
39.260        13
39.270        27
39.280        33
39.290        20
39.300        33
39.310        27
39.320        53
39.330        20
39.340         7
39.350         0
39.360        33
39.370        40
39.380        33
39.390         7
39.400        33
39.410        40
39.420        20
39.430        40
39.440         7
39.450        13
39.460        27
39.470        13
39.480         7
39.490        20
39.500        20
39.510        20
39.520        27
39.530        13
39.540        33
39.550        53
39.560         7
39.570        13
39.580         0
39.590         0
39.600         0
39.610        33
39.620         7
39.630        33
39.640        13
39.650        33
39.660        13
39.670        27
39.680         7
39.690        20
39.700         0
39.710        20
39.720        20
39.730        13
39.740        33
39.750        40
39.760        13
39.770        60
39.780        20
39.790        27
39.800         0
39.810        20
39.820         7
39.830        27
39.840        20
39.850        27
39.860        27
39.870        33
39.880        33
39.890        20
39.900        20
39.910        13
39.920        13
39.930         7
39.940        27
39.950        27
39.960        33
39.970        33
39.980        27
39.990        40
40.000        27
40.010        13
40.020         7
40.030        33
40.040        13
40.050        27
40.060         7
40.070        20
40.080        33
40.090        47
40.100        13
40.110        13
40.120        33
40.130         7
40.140        27
40.150        13
40.160        13
40.170        20
40.180        27
40.190        27
40.200        20
40.210        27
40.220         0
40.230        20
40.240        20
40.250        20
40.260        13
40.270        27
40.280        20
40.290         7
40.300        40
40.310        27
40.320        27
40.330        27
40.340        33
40.350        40
40.360        20
40.370        27
40.380        40
40.390        13
40.400         0
40.410        27
40.420        20
40.430        20
40.440        27
40.450        27
40.460        27
40.470        33
40.480        33
40.490        20
40.500         0
40.510        20
40.520        27
40.530        13
40.540         7
40.550        27
40.560        20
40.570        27
40.580        27
40.590        27
40.600        20
40.610        20
40.620        27
40.630        40
40.640        27
40.650        27
40.660        47
40.670         7
40.680        20
40.690         7
40.700        40
40.710        13
40.720        27
40.730         0
40.740        27
40.750        40
40.760        27
40.770        27
40.780        27
40.790         7
40.800        53
40.810        13
40.820        13
40.830        27
40.840        27
40.850        27
40.860         0
40.870        13
40.880         0
40.890        33
40.900         7
40.910        60
40.920         7
40.930        13
40.940         7
40.950        20
40.960        20
40.970        27
40.980        20
40.990        13
41.000        47
41.010        27
41.020        33
41.030        13
41.040        20
41.050        60
41.060        20
41.070        13
41.080         7
41.090        20
41.100        20
41.110        27
41.120        13
41.130        27
41.140        20
41.150         7
41.160         7
41.170        47
41.180        13
41.190        27
41.200        40
41.210        27
41.220        47
41.230         7
41.240        20
41.250        33
41.260        40
41.270        20
41.280         0
41.290        20
41.300        33
41.310         7
41.320        40
41.330        27
41.340        20
41.350        40
41.360         7
41.370        27
41.380        33
41.390        13
41.400        27
41.410        27
41.420        13
41.430        20
41.440        27
41.450         0
41.460        27
41.470        13
41.480        60
41.490        40
41.500        60
41.510        13
41.520        33
41.530        13
41.540        33
41.550        33
41.560        47
41.570        53
41.580        47
41.590        40
41.600        67
41.610       107
41.620        47
41.630        80
41.640        80
41.650        87
41.660        60
41.670       160
41.680       100
41.690       120
41.700       107
41.710       100
41.720       100
41.730        73
41.740        80
41.750        53
41.760        73
41.770        93
41.780        27
41.790       120
41.800        53
41.810        67
41.820        33
41.830        40
41.840        60
41.850        73
41.860        13
41.870        60
41.880        13
41.890        27
41.900        13
41.910        27
41.920        20
41.930        33
41.940        27
41.950        13
41.960         7
41.970        13
41.980        27
41.990        33
42.000        13
42.010        27
42.020        53
42.030        33
42.040        20
42.050        40
42.060        60
42.070        33
42.080        20
42.090         0
42.100        27
42.110        20
42.120        33
42.130        47
42.140         0
42.150        40
42.160        27
42.170        40
42.180        13
42.190        33
42.200        53
42.210         0
42.220        27
42.230         7
42.240        53
42.250        20
42.260        33
42.270        13
42.280        40
42.290        27
42.300        47
42.310        20
42.320        40
42.330        33
42.340        53
42.350        33
42.360        20
42.370        40
42.380        40
42.390        67
42.400        67
42.410        33
42.420        27
42.430        27
42.440        20
42.450        40
42.460         7
42.470        53
42.480        20
42.490        33
42.500        13
42.510        40
42.520        53
42.530        53
42.540        33
42.550        33
42.560        33
42.570        33
42.580        20
42.590        33
42.600        27
42.610        20
42.620        33
42.630        33
42.640        20
42.650        20
42.660        27
42.670        33
42.680        20
42.690        20
42.700        33
42.710        47
42.720         7
42.730         0
42.740        13
42.750        33
42.760        27
42.770        27
42.780         7
42.790        20
42.800        27
42.810        20
42.820        13
42.830        27
42.840        13
42.850        33
42.860        20
42.870        13
42.880        13
42.890        20
42.900        47
42.910         7
42.920        27
42.930         7
42.940        13
42.950        13
42.960        33
42.970        33
42.980        27
42.990         7
43.000        40
43.010        13
43.020        33
43.030        20
43.040        27
43.050        20
43.060         7
43.070        13
43.080         7
43.090        20
43.100        27
43.110        33
43.120        27
43.130        53
43.140        27
43.150        47
43.160        20
43.170        33
43.180        33
43.190        20
43.200        40
43.210        47
43.220         0
43.230        47
43.240        33
43.250        47
43.260        53
43.270        40
43.280        47
43.290        60
43.300        93
43.310        73
43.320       140
43.330       140
43.340        87
43.350       100
43.360       127
43.370       113
43.380        80
43.390       167
43.400       147
43.410       113
43.420       193
43.430        93
43.440       153
43.450        93
43.460        93
43.470        60
43.480        33
43.490        87
43.500        40
43.510        93
43.520        87
43.530        67
43.540        60
43.550        67
43.560        60
43.570        27
43.580        27
43.590        20
43.600        33
43.610        27
43.620        20
43.630        20
43.640        27
43.650        40
43.660        40
43.670         7
43.680        47
43.690        20
43.700        20
43.710        27
43.720        20
43.730        33
43.740        13
43.750        40
43.760        33
43.770        20
43.780        33
43.790         7
43.800        60
43.810        27
43.820        20
43.830        20
43.840        40
43.850        20
43.860        20
43.870        27
43.880        40
43.890        47
43.900        13
43.910        27
43.920        13
43.930         0
43.940        27
43.950        33
43.960        27
43.970         0
43.980        20
43.990        20
44.000        13
44.010        13
44.020        20
44.030         7
44.040         7
44.050        47
44.060        13
44.070         7
44.080        47
44.090         0
44.100        27
44.110         7
44.120        27
44.130        20
44.140         7
44.150        27
44.160         7
44.170        13
44.180        13
44.190        27
44.200        27
44.210         7
44.220        13
44.230        40
44.240         7
44.250        27
44.260        13
44.270        20
44.280        20
44.290        13
44.300        20
44.310        20
44.320        60
44.330        13
44.340        33
44.350        33
44.360        20
44.370        27
44.380        27
44.390        13
44.400        20
44.410        20
44.420        27
44.430        27
44.440        27
44.450         7
44.460        40
44.470        20
44.480        40
44.490         7
44.500        13
44.510        40
44.520        40
44.530        13
44.540         0
44.550        40
44.560        27
44.570        33
44.580        20
44.590        13
44.600        13
44.610        20
44.620        60
44.630        33
44.640        40
44.650        27
44.660        13
44.670        13
44.680        27
44.690        20
44.700         7
44.710        27
44.720        27
44.730        13
44.740        33
44.750        27
44.760        20
44.770        13
44.780         7
44.790        33
44.800        27
44.810        27
44.820        27
44.830        33
44.840        20
44.850        13
44.860        27
44.870        27
44.880        20
44.890        13
44.900        20
44.910        20
44.920        33
44.930        33
44.940        53
44.950        53
44.960        47
44.970        47
44.980        13
44.990        27
45.000        27
45.010        40
45.020        13
45.030        27
45.040        27
45.050        20
45.060        20
45.070        13
45.080        20
45.090        20
45.100        27
45.110        27
45.120        33
45.130        13
45.140        13
45.150        27
45.160        13
45.170        33
45.180        20
45.190         0
45.200        27
45.210        33
45.220        40
45.230        27
45.240        27
45.250        33
45.260        33
45.270        13
45.280        33
45.290        13
45.300         7
45.310        33
45.320        27
45.330        27
45.340        47
45.350        27
45.360         7
45.370        27
45.380        20
45.390        13
45.400        13
45.410        27
45.420        27
45.430        33
45.440        13
45.450        20
45.460        33
45.470        40
45.480        40
45.490         7
45.500        27
45.510         0
45.520        20
45.530        20
45.540        40
45.550        33
45.560        53
45.570        13
45.580        27
45.590        20
45.600        20
45.610        53
45.620        33
45.630        33
45.640        27
45.650        27
45.660        47
45.670        40
45.680        20
45.690        53
45.700        40
45.710        53
45.720        60
45.730        60
45.740        73
45.750        47
45.760        47
45.770        73
45.780        93
45.790       107
45.800       140
45.810       133
45.820       147
45.830       133
45.840       160
45.850       247
45.860       160
45.870       267
45.880       213
45.890       287
45.900       387
45.910       347
45.920       420
45.930       353
45.940       300
45.950       473
45.960       407
45.970       387
45.980       353
45.990       320
46.000       373
46.010       287
46.020       240
46.030       247
46.040       320
46.050       287
46.060       227
46.070       207
46.080       273
46.090       180
46.100       213
46.110       193
46.120       200
46.130       193
46.140       147
46.150        53
46.160       140
46.170        73
46.180       147
46.190       107
46.200        80
46.210       107
46.220        67
46.230        87
46.240        67
46.250        67
46.260        67
46.270        20
46.280        73
46.290        53
46.300        53
46.310        40
46.320        87
46.330        40
46.340        40
46.350        27
46.360        40
46.370        40
46.380        20
46.390        40
46.400        33
46.410        53
46.420        33
46.430        40
46.440        20
46.450        27
46.460        53
46.470        53
46.480        40
46.490        53
46.500        73
46.510        67
46.520        33
46.530        27
46.540        67
46.550        73
46.560        13
46.570        73
46.580        53
46.590        60
46.600        87
46.610        53
46.620        73
46.630       107
46.640        87
46.650       100
46.660       100
46.670       160
46.680       133
46.690       107
46.700       120
46.710       140
46.720       120
46.730       207
46.740       187
46.750       153
46.760       107
46.770       160
46.780       180
46.790       120
46.800       187
46.810       147
46.820       173
46.830       147
46.840       167
46.850       193
46.860       193
46.870       227
46.880       127
46.890       260
46.900       220
46.910       207
46.920       140
46.930       187
46.940       187
46.950       187
46.960       167
46.970       153
46.980       193
46.990       187
47.000       160
47.010       153
47.020       167
47.030       167
47.040       147
47.050       113
47.060       100
47.070       113
47.080        87
47.090       140
47.100        87
47.110       107
47.120        73
47.130        67
47.140        60
47.150        53
47.160        80
47.170        33
47.180        47
47.190        67
47.200        73
47.210        40
47.220        33
47.230        20
47.240        13
47.250        53
47.260        33
47.270        47
47.280        33
47.290        33
47.300        33
47.310        40
47.320        40
47.330        27
47.340        53
47.350        33
47.360         7
47.370        47
47.380        27
47.390        27
47.400        20
47.410        13
47.420        47
47.430        33
47.440        40
47.450        40
47.460        33
47.470        20
47.480        40
47.490        27
47.500        13
47.510         7
47.520        27
47.530        60
47.540        33
47.550        13
47.560        13
47.570        33
47.580        13
47.590        20
47.600        40
47.610        33
47.620        33
47.630         7
47.640         7
47.650        20
47.660        33
47.670        33
47.680        20
47.690        40
47.700        20
47.710        13
47.720        33
47.730        33
47.740        47
47.750        20
47.760        13
47.770        20
47.780        13
47.790        13
47.800        13
47.810        20
47.820        33
47.830        13
47.840        27
47.850        40
47.860        27
47.870        27
47.880        33
47.890        27
47.900        20
47.910         0
47.920        33
47.930        40
47.940        13
47.950        20
47.960         7
47.970        20
47.980        33
47.990        33
48.000        20
48.010        40
48.020         7
48.030        27
48.040        13
48.050        27
48.060        20
48.070        20
48.080        40
48.090        20
48.100        33
48.110        47
48.120        27
48.130        27
48.140         7
48.150        33
48.160        40
48.170        13
48.180        13
48.190        33
48.200        27
48.210        20
48.220         7
48.230        27
48.240        40
48.250        27
48.260        40
48.270        20
48.280        20
48.290        47
48.300        53
48.310         7
48.320         0
48.330        27
48.340        27
48.350        27
48.360        40
48.370        27
48.380        20
48.390        33
48.400         7
48.410        20
48.420        20
48.430        33
48.440        27
48.450        20
48.460        13
48.470        33
48.480        13
48.490        13
48.500        27
48.510         7
48.520        27
48.530        20
48.540        13
48.550        20
48.560        40
48.570        20
48.580        13
48.590        27
48.600         7
48.610        33
48.620         7
48.630        20
48.640        33
48.650        33
48.660        20
48.670        53
48.680         7
48.690        20
48.700        27
48.710        27
48.720        53
48.730         0
48.740        13
48.750        20
48.760        33
48.770         7
48.780        20
48.790        33
48.800         7
48.810        27
48.820        20
48.830        13
48.840        27
48.850        47
48.860        40
48.870        13
48.880        60
48.890        27
48.900        40
48.910        53
48.920        33
48.930        27
48.940         7
48.950        27
48.960        40
48.970        33
48.980         7
48.990        40
49.000        40
49.010        40
49.020        47
49.030         7
49.040        20
49.050        27
49.060        13
49.070        40
49.080        33
49.090        33
49.100        60
49.110        13
49.120        27
49.130        20
49.140        40
49.150        20
49.160        53
49.170        33
49.180        13
49.190        33
49.200        40
49.210        47
49.220        27
49.230        20
49.240         0
49.250        13
49.260        47
49.270        33
49.280        13
49.290        40
49.300        27
49.310        40
49.320        33
49.330        27
49.340         7
49.350        40
49.360        20
49.370        13
49.380        20
49.390        13
49.400        27
49.410        20
49.420        33
49.430        53
49.440        13
49.450        13
49.460        33
49.470         7
49.480        47
49.490        20
49.500        33
49.510        40
49.520        27
49.530        20
49.540        13
49.550        20
49.560        13
49.570        13
49.580        13
49.590        33
49.600        47
49.610        13
49.620        40
49.630        60
49.640        40
49.650        27
49.660        27
49.670         7
49.680        13
49.690        47
49.700        33
49.710        27
49.720        13
49.730         7
49.740        13
49.750        13
49.760        33
49.770        47
49.780        20
49.790        20
49.800        13
49.810        33
49.820        27
49.830        33
49.840        33
49.850         0
49.860        20
49.870        27
49.880        33
49.890        47
49.900         7
49.910        20
49.920        20
49.930        47
49.940        53
49.950        33
49.960        20
49.970        20
49.980         0
49.990        40
50.000        13
50.010         7
50.020        27
50.030        47
50.040        33
50.050        20
50.060        20
50.070        27
50.080        47
50.090        13
50.100        47
50.110        27
50.120        13
50.130        13
50.140        47
50.150        27
50.160        40
50.170        33
50.180        53
50.190        33
50.200        27
50.210        27
50.220        40
50.230        27
50.240        13
50.250        13
50.260        40
50.270         7
50.280        40
50.290        40
50.300        40
50.310        20
50.320        40
50.330        13
50.340         7
50.350        40
50.360         7
50.370        60
50.380        47
50.390        27
50.400        20
50.410        47
50.420         7
50.430        27
50.440        27
50.450        20
50.460        27
50.470        33
50.480        40
50.490         7
50.500        40
50.510        27
50.520        33
50.530        20
50.540        33
50.550         7
50.560        33
50.570        20
50.580        33
50.590         7
50.600        40
50.610        27
50.620        40
50.630         7
50.640        27
50.650        20
50.660        53
50.670        40
50.680        20
50.690         7
50.700         0
50.710        20
50.720        27
50.730        27
50.740        13
50.750         7
50.760         0
50.770        20
50.780        20
50.790         0
50.800        20
50.810        27
50.820        40
50.830        13
50.840         7
50.850        13
50.860        40
50.870        40
50.880        13
50.890        13
50.900        33
50.910         7
50.920         0
50.930        20
50.940        20
50.950        13
50.960        33
50.970        13
50.980         7
50.990        20
51.000         7
51.010        33
51.020        33
51.030        20
51.040         7
51.050        13
51.060        40
51.070        27
51.080        27
51.090        13
51.100         0
51.110        20
51.120        40
51.130        13
51.140        20
51.150         7
51.160        27
51.170        20
51.180         0
51.190         7
51.200        27
51.210         7
51.220        27
51.230        20
51.240        20
51.250        20
51.260        13
51.270        13
51.280        13
51.290        13
51.300         0
51.310        13
51.320        13
51.330        27
51.340        20
51.350        13
51.360        20
51.370        33
51.380        13
51.390        20
51.400        33
51.410        13
51.420        27
51.430        20
51.440        33
51.450        33
51.460        20
51.470         7
51.480        33
51.490        13
51.500        40
51.510        13
51.520        40
51.530        20
51.540        40
51.550        13
51.560        40
51.570        27
51.580        27
51.590        13
51.600        13
51.610        33
51.620        33
51.630        13
51.640         7
51.650         7
51.660        40
51.670        13
51.680         7
51.690        40
51.700        20
51.710        20
51.720        13
51.730        13
51.740        27
51.750        20
51.760        60
51.770        20
51.780        53
51.790        40
51.800        47
51.810        47
51.820        53
51.830        33
51.840        53
51.850        27
51.860        20
51.870        27
51.880        27
51.890        40
51.900        40
51.910        47
51.920        27
51.930        53
51.940        33
51.950        47
51.960        33
51.970        47
51.980        27
51.990        47
52.000        33
52.010        40
52.020        67
52.030        27
52.040        27
52.050        20
52.060        13
52.070         7
52.080        47
52.090        53
52.100        13
52.110        27
52.120        33
52.130        13
52.140        33
52.150        13
52.160        27
52.170         7
52.180        27
52.190        13
52.200        20
52.210        33
52.220        13
52.230        27
52.240        20
52.250        20
52.260        13
52.270         7
52.280        13
52.290        20
52.300        13
52.310        13
52.320        13
52.330        40
52.340        27
52.350        20
52.360        13
52.370        13
52.380        47
52.390        73
52.400         7
52.410        40
52.420        40
52.430         0
52.440         7
52.450        27
52.460        27
52.470        33
52.480        27
52.490        20
52.500        33
52.510        47
52.520        40
52.530        47
52.540        60
52.550        60
52.560        67
52.570        53
52.580        47
52.590        67
52.600        33
52.610        20
52.620        33
52.630        33
52.640        40
52.650        47
52.660        60
52.670        13
52.680        20
52.690        60
52.700        53
52.710        27
52.720        67
52.730        33
52.740        67
52.750         7
52.760        13
52.770        20
52.780         7
52.790        20
52.800         7
52.810        20
52.820        13
52.830        27
52.840        27
52.850        20
52.860        73
52.870        13
52.880        27
52.890        13
52.900        13
52.910        13
52.920         7
52.930        20
52.940        13
52.950        27
52.960        20
52.970        27
52.980         7
52.990        47
53.000        13
53.010        13
53.020         0
53.030        20
53.040        13
53.050        20
53.060         0
53.070        27
53.080        13
53.090        20
53.100        27
53.110        40
53.120        20
53.130         7
53.140         0
53.150         7
53.160         7
53.170        40
53.180         0
53.190        33
53.200        27
53.210        13
53.220        20
53.230        27
53.240        27
53.250         7
53.260        40
53.270        13
53.280        20
53.290        27
53.300         0
53.310        20
53.320        13
53.330        33
53.340        20
53.350         0
53.360        13
53.370         0
53.380        13
53.390        13
53.400        47
53.410        27
53.420        20
53.430        27
53.440        20
53.450        40
53.460        27
53.470        27
53.480         7
53.490        20
53.500        27
53.510        20
53.520        33
53.530        47
53.540        33
53.550         7
53.560         7
53.570        20
53.580        27
53.590        20
53.600        13
53.610        13
53.620        20
53.630        33
53.640        20
53.650        33
53.660        27
53.670        47
53.680        27
53.690        20
53.700        33
53.710        27
53.720        13
53.730         7
53.740         7
53.750        13
53.760        33
53.770        13
53.780        13
53.790        13
53.800        40
53.810        27
53.820         7
53.830        13
53.840         7
53.850        27
53.860        13
53.870        20
53.880        13
53.890        33
53.900         7
53.910        13
53.920        33
53.930         7
53.940        33
53.950         7
53.960         0
53.970        13
53.980        20
53.990         7
54.000        13
54.010        27
54.020         7
54.030         7
54.040        13
54.050        13
54.060        33
54.070        13
54.080         0
54.090         0
54.100        13
54.110         7
54.120        40
54.130        20
54.140        20
54.150        27
54.160        47
54.170        13
54.180        13
54.190        13
54.200         7
54.210        27
54.220         7
54.230        20
54.240        13
54.250        13
54.260        20
54.270         0
54.280        33
54.290         7
54.300        13
54.310        20
54.320        33
54.330        13
54.340        20
54.350        13
54.360         7
54.370        33
54.380        13
54.390        13
54.400        13
54.410         0
54.420        13
54.430         7
54.440        13
54.450        13
54.460        33
54.470        13
54.480        20
54.490        33
54.500        20
54.510        13
54.520        13
54.530         7
54.540        27
54.550         7
54.560        20
54.570        27
54.580         7
54.590        20
54.600        20
54.610        13
54.620        27
54.630        13
54.640        13
54.650        27
54.660         7
54.670        27
54.680         7
54.690        13
54.700        20
54.710         0
54.720        13
54.730        13
54.740        20
54.750        13
54.760        40
54.770         0
54.780        33
54.790        13
54.800        33
54.810        13
54.820        13
54.830        27
54.840        27
54.850        13
54.860        47
54.870         7
54.880        20
54.890        20
54.900        13
54.910        33
54.920        13
54.930         7
54.940        20
54.950        13
54.960        13
54.970        13
54.980        13
54.990        20
55.000        13
55.010        13
55.020         7
55.030        20
55.040        20
55.050        13
55.060        20
55.070         0
55.080         7
55.090        27
55.100        27
55.110        20
55.120        27
55.130        20
55.140        27
55.150         0
55.160        27
55.170        20
55.180         0
55.190        13
55.200        20
55.210        27
55.220        13
55.230        40
55.240        13
55.250        27
55.260        40
55.270        20
55.280         7
55.290        20
55.300        13
55.310         7
55.320        13
55.330        33
55.340        27
55.350        27
55.360         7
55.370         7
55.380        27
55.390        13
55.400        20
55.410        13
55.420        20
55.430        13
55.440        33
55.450         7
55.460        40
55.470        13
55.480        13
55.490        27
55.500        67
55.510        47
55.520        40
55.530        13
55.540        33
55.550        13
55.560        27
55.570        20
55.580        33
55.590        13
55.600        47
55.610        27
55.620        20
55.630         7
55.640        20
55.650        20
55.660        47
55.670        27
55.680        47
55.690         7
55.700        27
55.710        27
55.720        53
55.730        40
55.740        33
55.750        33
55.760        13
55.770        27
55.780        27
55.790        33
55.800        13
55.810        40
55.820        27
55.830        27
55.840        13
55.850        20
55.860        47
55.870         0
55.880        20
55.890        33
55.900        40
55.910        13
55.920        33
55.930        20
55.940        13
55.950        33
55.960        27
55.970        27
55.980        27
55.990        33
56.000        33
56.010        20
56.020        27
56.030        27
56.040        33
56.050        13
56.060        67
56.070        40
56.080        20
56.090        40
56.100        27
56.110        47
56.120        40
56.130        33
56.140        40
56.150        47
56.160        20
56.170        67
56.180        20
56.190        20
56.200        20
56.210        33
56.220        47
56.230        47
56.240        27
56.250        47
56.260        40
56.270        53
56.280        33
56.290        33
56.300        33
56.310        27
56.320        27
56.330        47
56.340        47
56.350        33
56.360        20
56.370        33
56.380        40
56.390        27
56.400        33
56.410        40
56.420         0
56.430        20
56.440        47
56.450        20
56.460        13
56.470        27
56.480         7
56.490        40
56.500        27
56.510        27
56.520        27
56.530        20
56.540        47
56.550        13
56.560        13
56.570        13
56.580        13
56.590        13
56.600        20
56.610        40
56.620        20
56.630        20
56.640        20
56.650        13
56.660         7
56.670        40
56.680        20
56.690         7
56.700        27
56.710         7
56.720        27
56.730        33
56.740         7
56.750        13
56.760         7
56.770        20
56.780        20
56.790        13
56.800         0
56.810        27
56.820         7
56.830        27
56.840        13
56.850        13
56.860         0
56.870        27
56.880         0
56.890        40
56.900        13
56.910         7
56.920        20
56.930        20
56.940         7
56.950        27
56.960         7
56.970        47
56.980        20
56.990        13
57.000         7
57.010        20
57.020        20
57.030        27
57.040        33
57.050        27
57.060        13
57.070         7
57.080         7
57.090        13
57.100        20
57.110        33
57.120        13
57.130        33
57.140        13
57.150        53
57.160        33
57.170        40
57.180        20
57.190         7
57.200        27
57.210        27
57.220        33
57.230        27
57.240        27
57.250        33
57.260        20
57.270        27
57.280        20
57.290        33
57.300        40
57.310        33
57.320        40
57.330        60
57.340        27
57.350        67
57.360        20
57.370        40
57.380        53
57.390        67
57.400        67
57.410       113
57.420        93
57.430        47
57.440        73
57.450       120
57.460       113
57.470       133
57.480       127
57.490       120
57.500       193
57.510       207
57.520       267
57.530       200
57.540       160
57.550       140
57.560       113
57.570       107
57.580        87
57.590        73
57.600        53
57.610        80
57.620        67
57.630        67
57.640        53
57.650        93
57.660        47
57.670        80
57.680       207
57.690       107
57.700       113
57.710        60
57.720        60
57.730        60
57.740        40
57.750        27
57.760        67
57.770        27
57.780        13
57.790        20
57.800        40
57.810        20
57.820        27
57.830        13
57.840        13
57.850        27
57.860        27
57.870        13
57.880         7
57.890        20
57.900         0
57.910        13
57.920         7
57.930        20
57.940        27
57.950        13
57.960         7
57.970        13
57.980        20
57.990         7
58.000        13
58.010        40
58.020        27
58.030         7
58.040        13
58.050        20
58.060        33
58.070        13
58.080         7
58.090         7
58.100        20
58.110        20
58.120        13
58.130        20
58.140        13
58.150        13
58.160         7
58.170         7
58.180        27
58.190        33
58.200        27
58.210        27
58.220        20
58.230        20
58.240        13
58.250        33
58.260         7
58.270        20
58.280        13
58.290        27
58.300        33
58.310        27
58.320        33
58.330        27
58.340         7
58.350         0
58.360        33
58.370        53
58.380        13
58.390         7
58.400        40
58.410        27
58.420        20
58.430        20
58.440        27
58.450        20
58.460        20
58.470         7
58.480         7
58.490        13
58.500         7
58.510        20
58.520        20
58.530        47
58.540        20
58.550        20
58.560        13
58.570         0
58.580        27
58.590        27
58.600        20
58.610        13
58.620        20
58.630        13
58.640        13
58.650        13
58.660        20
58.670         0
58.680         7
58.690        27
58.700        27
58.710         0
58.720         7
58.730         7
58.740         7
58.750         7
58.760        13
58.770        33
58.780        20
58.790        20
58.800        20
58.810        13
58.820        13
58.830        20
58.840        20
58.850        13
58.860        40
58.870         7
58.880         7
58.890        20
58.900        27
58.910         7
58.920         7
58.930        13
58.940         0
58.950         0
58.960         7
58.970        13
58.980        20
58.990         7
59.000        27
59.010         0
59.020        13
59.030        13
59.040        13
59.050        27
59.060        13
59.070        20
59.080        13
59.090        33
59.100         0
59.110        20
59.120         7
59.130        20
59.140        13
59.150        27
59.160         7
59.170         0
59.180        27
59.190        27
59.200        40
59.210        13
59.220         0
59.230        13
59.240        20
59.250         7
59.260         7
59.270         7
59.280        20
59.290         7
59.300        13
59.310        20
59.320        20
59.330        13
59.340        20
59.350         0
59.360         7
59.370        13
59.380        20
59.390        20
59.400         7
59.410        13
59.420        47
59.430        13
59.440        27
59.450        13
59.460        13
59.470        27
59.480        13
59.490        20
59.500        27
59.510        33
59.520        20
59.530        13
59.540        33
59.550         7
59.560        40
59.570        13
59.580        47
59.590        33
59.600         0
59.610        20
59.620         0
59.630         7
59.640        13
59.650         7
59.660        13
59.670        20
59.680        13
59.690         7
59.700        20
59.710         0
59.720        13
59.730         7
59.740        33
59.750        27
59.760         7
59.770        27
59.780        40
59.790        47
59.800        47
59.810        13
59.820        27
59.830         7
59.840        20
59.850        20
59.860         7
59.870        13
59.880         7
59.890        20
59.900         7
59.910        27
59.920        53
59.930         7
59.940        33
59.950        20
59.960         0
59.970         7
59.980         7
59.990         7
60.000        13
