20.000        60
20.010        47
20.020        40
20.030        60
20.040        47
20.050        40
20.060        20
20.070        33
20.080        80
20.090        60
20.100        53
20.110        60
20.120        40
20.130        67
20.140        47
20.150        40
20.160        53
20.170        73
20.180        60
20.190        27
20.200        93
20.210        93
20.220        47
20.230        73
20.240        40
20.250        47
20.260        40
20.270        67
20.280        20
20.290        60
20.300        40
20.310        67
20.320        53
20.330        40
20.340        47
20.350        73
20.360        80
20.370        73
20.380        47
20.390        40
20.400        47
20.410         7
20.420        73
20.430        60
20.440        33
20.450        67
20.460        33
20.470        47
20.480        67
20.490        93
20.500        40
20.510        60
20.520        47
20.530        40
20.540        60
20.550        27
20.560        53
20.570        27
20.580        60
20.590        60
20.600        60
20.610        53
20.620        33
20.630        53
20.640        67
20.650        33
20.660        67
20.670        47
20.680        47
20.690        60
20.700        80
20.710        67
20.720        40
20.730        53
20.740        73
20.750        27
20.760        67
20.770        60
20.780        13
20.790        20
20.800        73
20.810        67
20.820        47
20.830        40
20.840        53
20.850        40
20.860        40
20.870        20
20.880        60
20.890        47
20.900        33
20.910        53
20.920        33
20.930        40
20.940        60
20.950        47
20.960        20
20.970        27
20.980        40
20.990       113
21.000        40
21.010        67
21.020        87
21.030        33
21.040        47
21.050        47
21.060        33
21.070        20
21.080        47
21.090        67
21.100        53
21.110        40
21.120        60
21.130        33
21.140        20
21.150        73
21.160        93
21.170        47
21.180        60
21.190        53
21.200        47
21.210        67
21.220        67
21.230        47
21.240        40
21.250        80
21.260        60
21.270        80
21.280        53
21.290        73
21.300        27
21.310        53
21.320        67
21.330        33
21.340        27
21.350         7
21.360        47
21.370        40
21.380        40
21.390        73
21.400        27
21.410        60
21.420        47
21.430        60
21.440        67
21.450        40
21.460        27
21.470        60
21.480        60
21.490        40
21.500        33
21.510        40
21.520        73
21.530        20
21.540        33
21.550        27
21.560        93
21.570        27
21.580        73
21.590        13
21.600        53
21.610        53
21.620        40
21.630        20
21.640        33
21.650        27
21.660        33
21.670        60
21.680        53
21.690        60
21.700        87
21.710        60
21.720        60
21.730        47
21.740        20
21.750        47
21.760        47
21.770        60
21.780        53
21.790        60
21.800        27
21.810        33
21.820        27
21.830        33
21.840        67
21.850        60
21.860        47
21.870        87
21.880        67
21.890        67
21.900        33
21.910        67
21.920        67
21.930        47
21.940        40
21.950        40
21.960        53
21.970        27
21.980        60
21.990        67
22.000        47
22.010        20
22.020        53
22.030        60
22.040        47
22.050        53
22.060        47
22.070        40
22.080        40
22.090        40
22.100        33
22.110        67
22.120        40
22.130        33
22.140        73
22.150        47
22.160        47
22.170        93
22.180        40
22.190        33
22.200        60
22.210        53
22.220        47
22.230        53
22.240        53
22.250        80
22.260        53
22.270        53
22.280        47
22.290        40
22.300        27
22.310        73
22.320        67
22.330        40
22.340        60
22.350        47
22.360        47
22.370        73
22.380        47
22.390        40
22.400        40
22.410        53
22.420        67
22.430        40
22.440       100
22.450        80
22.460        87
22.470        93
22.480        80
22.490        73
22.500        27
22.510        73
22.520        60
22.530        47
22.540        87
22.550        33
22.560       107
22.570        93
22.580        47
22.590        67
22.600        87
22.610        87
22.620       120
22.630        87
22.640        73
22.650       107
22.660        40
22.670        67
22.680        73
22.690        93
22.700        87
22.710        67
22.720        80
22.730        80
22.740        33
22.750        40
22.760        20
22.770        53
22.780       100
22.790        40
22.800        93
22.810        73
22.820        40
22.830        53
22.840        20
22.850        87
22.860        67
22.870        33
22.880        53
22.890        73
22.900        33
22.910        80
22.920        60
22.930       113
22.940        53
22.950        60
22.960        80
22.970        73
22.980        67
22.990        33
23.000        53
23.010        40
23.020        33
23.030        53
23.040        73
23.050        27
23.060        60
23.070        53
23.080        60
23.090        67
23.100        73
23.110        53
23.120        53
23.130        60
23.140        73
23.150        47
23.160        27
23.170        40
23.180        40
23.190        87
23.200        47
23.210        67
23.220        47
23.230        53
23.240       100
23.250        47
23.260        40
23.270        47
23.280        47
23.290        60
23.300        40
23.310        53
23.320        20
23.330        33
23.340        40
23.350        60
23.360        33
23.370        33
23.380        60
23.390        47
23.400        20
23.410        53
23.420        33
23.430        27
23.440        27
23.450        33
23.460        47
23.470        80
23.480        20
23.490        53
23.500        33
23.510        47
23.520        27
23.530        53
23.540        47
23.550        40
23.560        47
23.570        53
23.580        53
23.590        33
23.600        33
23.610        20
23.620        13
23.630        73
23.640        40
23.650        20
23.660        13
23.670        47
23.680        73
23.690        73
23.700        47
23.710        33
23.720        13
23.730        20
23.740        47
23.750        73
23.760        60
23.770        33
23.780        47
23.790        20
23.800        40
23.810        33
23.820        33
23.830        27
23.840        20
23.850        40
23.860        60
23.870        60
23.880        47
23.890        47
23.900        33
23.910        67
23.920        20
23.930        60
23.940        33
23.950        47
23.960        53
23.970        27
23.980        33
23.990        60
24.000        53
24.010        60
24.020        60
24.030        47
24.040        27
24.050        87
24.060        33
24.070        53
24.080        67
24.090        47
24.100        40
24.110        47
24.120        53
24.130        47
24.140        40
24.150        40
24.160        40
24.170        73
24.180        13
24.190        27
24.200        60
24.210        20
24.220        47
24.230        60
24.240        47
24.250        47
24.260        53
24.270        40
24.280        40
24.290        33
24.300        27
24.310        13
24.320        33
24.330         7
24.340        47
24.350        33
24.360        40
24.370        53
24.380        27
24.390        40
24.400        47
24.410        20
24.420        53
24.430        53
24.440        60
24.450        20
24.460        47
24.470        27
24.480        67
24.490        33
24.500        80
24.510        27
24.520        20
24.530        47
24.540        67
24.550        40
24.560        40
24.570        53
24.580        40
24.590        20
24.600        27
24.610        33
24.620        33
24.630        40
24.640        47
24.650        20
24.660        40
24.670        33
24.680        67
24.690        27
24.700        13
24.710        33
24.720        47
24.730        27
24.740        53
24.750        33
24.760        47
24.770        40
24.780        27
24.790        87
24.800        53
24.810        33
24.820        13
24.830        67
24.840        33
24.850        40
24.860        40
24.870        27
24.880        33
24.890        73
24.900        47
24.910        13
24.920        20
24.930        20
24.940        33
24.950        53
24.960        33
24.970        20
24.980        73
24.990        40
25.000        40
25.010        60
25.020        33
25.030        40
25.040        53
25.050        27
25.060        53
25.070        40
25.080        47
25.090        27
25.100        33
25.110        47
25.120        27
25.130        20
25.140        13
25.150        33
25.160        40
25.170        40
25.180        33
25.190        27
25.200        33
25.210        60
25.220        33
25.230        67
25.240        40
25.250        33
25.260        73
25.270        40
25.280        67
25.290        53
25.300        67
25.310        53
25.320        40
25.330        60
25.340        67
25.350       113
25.360       100
25.370       167
25.380       120
25.390       187
25.400       213
25.410        87
25.420       113
25.430       113
25.440       147
25.450       127
25.460       200
25.470       133
25.480       153
25.490       200
25.500       200
25.510       280
25.520       360
25.530       280
25.540       273
25.550       300
25.560       280
25.570       293
25.580       193
25.590       173
25.600       147
25.610       207
25.620       100
25.630       120
25.640        93
25.650        87
25.660        47
25.670        47
25.680        60
25.690        67
25.700        47
25.710        53
25.720        40
25.730        20
25.740        33
25.750        40
25.760        60
25.770        47
25.780        60
25.790        47
25.800        33
25.810        13
25.820        33
25.830        60
25.840        20
25.850        33
25.860        47
25.870        60
25.880        33
25.890        47
25.900        67
25.910        73
25.920        20
25.930        27
25.940        27
25.950        47
25.960        47
25.970        33
25.980        60
25.990        20
26.000        40
26.010        53
26.020        13
26.030        47
26.040        47
26.050        33
26.060        20
26.070        60
26.080        20
26.090        53
26.100        40
26.110        53
26.120         7
26.130        40
26.140        47
26.150        27
26.160        67
26.170        27
26.180        53
26.190        47
26.200        47
26.210        53
26.220        40
26.230        33
26.240        27
26.250        27
26.260        27
26.270         7
26.280        20
26.290        60
26.300        33
26.310        60
26.320        60
26.330        13
26.340        27
26.350        33
26.360        27
26.370        40
26.380        40
26.390        47
26.400        20
26.410        27
26.420        40
26.430        13
26.440        27
26.450        73
26.460        33
26.470        47
26.480        13
26.490        27
26.500         7
26.510        53
26.520        40
26.530        27
26.540        40
26.550        33
26.560        40
26.570        40
26.580        40
26.590        20
26.600        60
26.610        67
26.620        20
26.630        20
26.640        20
26.650        40
26.660        47
26.670        20
26.680        27
26.690        27
26.700        33
26.710        20
26.720        47
26.730        40
26.740        13
26.750        27
26.760        40
26.770        27
26.780        60
26.790        67
26.800        40
26.810        40
26.820        33
26.830        27
26.840        40
26.850        13
26.860        27
26.870        27
26.880        27
26.890        20
26.900        53
26.910        33
26.920        20
26.930        27
26.940        20
26.950        33
26.960        33
26.970        13
26.980        20
26.990        33
27.000        20
27.010        20
27.020        47
27.030        47
27.040        27
27.050        67
27.060        27
27.070        20
27.080        53
27.090        60
27.100        33
27.110        47
27.120        20
27.130        53
27.140        20
27.150        27
27.160        33
27.170        20
27.180        33
27.190        33
27.200         0
27.210        20
27.220        27
27.230        33
27.240        33
27.250        20
27.260        40
27.270        27
27.280        33
27.290        53
27.300        27
27.310        40
27.320        33
27.330        13
27.340        27
27.350        27
27.360        33
27.370        53
27.380        20
27.390        20
27.400        47
27.410        73
27.420        40
27.430        27
27.440         0
27.450        33
27.460        20
27.470        27
27.480        40
27.490         7
27.500        13
27.510        80
27.520        33
27.530        40
27.540        27
27.550        40
27.560        27
27.570        13
27.580        40
27.590        33
27.600         7
27.610        47
27.620        33
27.630        53
27.640        40
27.650        47
27.660        20
27.670        40
27.680        33
27.690        40
27.700        27
27.710        53
27.720         7
27.730        33
27.740         7
27.750        33
27.760        13
27.770        53
27.780        40
27.790        33
27.800        33
27.810        47
27.820        47
27.830        20
27.840        47
27.850        47
27.860        40
27.870        33
27.880        53
27.890        20
27.900        33
27.910        20
27.920        27
27.930        33
27.940        47
27.950        27
27.960        33
27.970        27
27.980        27
27.990        13
28.000        47
28.010        33
28.020        27
28.030        20
28.040        27
28.050        40
28.060        33
28.070        53
28.080        47
28.090        33
28.100        27
28.110        53
28.120        20
28.130        27
28.140        47
28.150        13
28.160        40
28.170        20
28.180        47
28.190        27
28.200        33
28.210        33
28.220        33
28.230        47
28.240        27
28.250        33
28.260        13
28.270        13
28.280        27
28.290        60
28.300        27
28.310        33
28.320        27
28.330        60
28.340        13
28.350         7
28.360        27
28.370        40
28.380        47
28.390        40
28.400        53
28.410        27
28.420        13
28.430        20
28.440        13
28.450        40
28.460        20
28.470        20
28.480        40
28.490        27
28.500        27
28.510        33
28.520        47
28.530        40
28.540        60
28.550        33
28.560        33
28.570         7
28.580        20
28.590        33
28.600        27
28.610        20
28.620        33
28.630        40
28.640        20
28.650        67
28.660        33
28.670        53
28.680        40
28.690        20
28.700        33
28.710        33
28.720        53
28.730        27
28.740        27
28.750        33
28.760        27
28.770        27
28.780        33
28.790        20
28.800        20
28.810        40
28.820        13
28.830        40
28.840        40
28.850        60
28.860        13
28.870        33
28.880        27
28.890        27
28.900        13
28.910        53
28.920        13
28.930        40
28.940        33
28.950        33
28.960        47
28.970        47
28.980        33
28.990        47
29.000        20
29.010        40
29.020        40
29.030        13
29.040        53
29.050        73
29.060        60
29.070        47
29.080        60
29.090        27
29.100        27
29.110        13
29.120        27
29.130        47
29.140        27
29.150        27
29.160        20
29.170         7
29.180        27
29.190        27
29.200        27
29.210         7
29.220        20
29.230        67
29.240        40
29.250        27
29.260        33
29.270        13
29.280        27
29.290        33
29.300        27
29.310        40
29.320         7
29.330        47
29.340        27
29.350        20
29.360        33
29.370        20
29.380        40
29.390        20
29.400        27
29.410        20
29.420        47
29.430        47
29.440         7
29.450        13
29.460        27
29.470        40
29.480         7
29.490        33
29.500        20
29.510        47
29.520        13
29.530        13
29.540        13
29.550        27
29.560        33
29.570        27
29.580        67
29.590        27
29.600        27
29.610        20
29.620        13
29.630        33
29.640        40
29.650        53
29.660        67
29.670        27
29.680        33
29.690        47
29.700        20
29.710        33
29.720        40
29.730        60
29.740        33
29.750        27
29.760        27
29.770        13
29.780        27
29.790        47
29.800        33
29.810         7
29.820        33
29.830        27
29.840        20
29.850        47
29.860        33
29.870         7
29.880        13
29.890        20
29.900        20
29.910        27
29.920        33
29.930        33
29.940        60
29.950        27
29.960        33
29.970        40
29.980        60
29.990        33
30.000        20
30.010        60
30.020        40
30.030        47
30.040        13
30.050        33
30.060        40
30.070        20
30.080        20
30.090        20
30.100        40
30.110        27
30.120        40
30.130        27
30.140        27
30.150        20
30.160        13
30.170        27
30.180        13
30.190        33
30.200        33
30.210        33
30.220        47
30.230        47
30.240        53
30.250        33
30.260         7
30.270        20
30.280        27
30.290        60
30.300        13
30.310        20
30.320        20
30.330        27
30.340        47
30.350        13
30.360        20
30.370        53
30.380        27
30.390        47
30.400        20
30.410        27
30.420        20
30.430        27
30.440        20
30.450        20
30.460        67
30.470        33
30.480        13
30.490        13
30.500        40
30.510        20
30.520        53
30.530        20
30.540        20
30.550        40
30.560        20
30.570        20
30.580        13
30.590        53
30.600        27
30.610        20
30.620        27
30.630        40
30.640        27
30.650        27
30.660        33
30.670        27
30.680        27
30.690        40
30.700        33
30.710        53
30.720        27
30.730        13
30.740        13
30.750         7
30.760        33
30.770        53
30.780        20
30.790        40
30.800        33
30.810        53
30.820        33
30.830        13
30.840        60
30.850        27
30.860        20
30.870        27
30.880        53
30.890        20
30.900        13
30.910        27
30.920        40
30.930        60
30.940        40
30.950        27
30.960        27
30.970        20
30.980        20
30.990        53
31.000        40
31.010        20
31.020         7
31.030        27
31.040        53
31.050        47
31.060        60
31.070        27
31.080        47
31.090        13
31.100         7
31.110        67
31.120        53
31.130        27
31.140        60
31.150        27
31.160        40
31.170        33
31.180        20
31.190        73
31.200        47
31.210        40
31.220        47
31.230        60
31.240        20
31.250        20
31.260        47
31.270        67
31.280        40
31.290        27
31.300        40
31.310        33
31.320        60
31.330        40
31.340        60
31.350         0
31.360        53
31.370        47
31.380        20
31.390        27
31.400       100
31.410        40
31.420        27
31.430        33
31.440        27
31.450        40
31.460        40
31.470        60
31.480        33
31.490        20
31.500        87
31.510        40
31.520        53
31.530        33
31.540        20
31.550        47
31.560        33
31.570        47
31.580        80
31.590        40
31.600        27
31.610        47
31.620        33
31.630        87
31.640        53
31.650        60
31.660        40
31.670       100
31.680        27
31.690        80
31.700        47
31.710        47
31.720        67
31.730        67
31.740        67
31.750        53
31.760        60
31.770        33
31.780        73
31.790        60
31.800        80
31.810        67
31.820        60
31.830        87
31.840        60
31.850        80
31.860        67
31.870        67
31.880        73
31.890       100
31.900        93
31.910        87
31.920        80
31.930        87
31.940        53
31.950        80
31.960        73
31.970       127
31.980       160
31.990       107
32.000       100
32.010        87
32.020       220
32.030       187
32.040       153
32.050       147
32.060       207
32.070       173
32.080       213
32.090       173
32.100       207
32.110       280
32.120       207
32.130       307
32.140       307
32.150       300
32.160       267
32.170       360
32.180       367
32.190       433
32.200       480
32.210       433
32.220       380
32.230       493
32.240       566
32.250       646
32.260       640
32.270       546
32.280       620
32.290       646
32.300       546
32.310       673
32.320       753
32.330       660
32.340       580
32.350       606
32.360       606
32.370       713
32.380       600
32.390       700
32.400       626
32.410       540
32.420       466
32.430       473
32.440       526
32.450       453
32.460       407
32.470       453
32.480       407
32.490       387
32.500       300
32.510       327
32.520       367
32.530       253
32.540       167
32.550       200
32.560       120
32.570       100
32.580       160
32.590       153
32.600       140
32.610       127
32.620       120
32.630        80
32.640       107
32.650       140
32.660       100
32.670        93
32.680        93
32.690        53
32.700        47
32.710        47
32.720        87
32.730        67
32.740        93
32.750       107
32.760        47
32.770        53
32.780        80
32.790        47
32.800        33
32.810        53
32.820        67
32.830        40
32.840        73
32.850        60
32.860        27
32.870        33
32.880        33
32.890        53
32.900        33
32.910        53
32.920        53
32.930        53
32.940        60
32.950        47
32.960        47
32.970        40
32.980        33
32.990        60
33.000        33
33.010        53
33.020        53
33.030        27
33.040        53
33.050        33
33.060        40
33.070        20
33.080        60
33.090        67
33.100        67
33.110        40
33.120        40
33.130        40
33.140        47
33.150        27
33.160        13
33.170        47
33.180        47
33.190        20
33.200        80
33.210        53
33.220        33
33.230        53
33.240        27
33.250        20
33.260        67
33.270        47
33.280        27
33.290        53
33.300        73
33.310        47
33.320        53
33.330        27
33.340        27
33.350        67
33.360        20
33.370        20
33.380        47
33.390        20
33.400        47
33.410        47
33.420        47
33.430        60
33.440        33
33.450        33
33.460        33
33.470        40
33.480        20
33.490        33
33.500        27
33.510        53
33.520        33
33.530        20
33.540         0
33.550        47
33.560        40
33.570        27
33.580        13
33.590        33
33.600        33
33.610        27
33.620        47
33.630        40
33.640         7
33.650        20
33.660        13
33.670        33
33.680        13
33.690        47
33.700        40
33.710        53
33.720        33
33.730        47
33.740        47
33.750        27
33.760        27
33.770        47
33.780        13
33.790         7
33.800        20
33.810        20
33.820        40
33.830        33
33.840        33
33.850         7
33.860        53
33.870        33
33.880        27
33.890        20
33.900        27
33.910        27
33.920        13
33.930        40
33.940        20
33.950        47
33.960        20
33.970        33
33.980        47
33.990        47
34.000        13
34.010        40
34.020        67
34.030        40
34.040        53
34.050        53
34.060        20
34.070        20
34.080        33
34.090        13
34.100        47
34.110         0
34.120        27
34.130        27
34.140        27
34.150        53
34.160        47
34.170        33
34.180        40
34.190        20
34.200        33
34.210        33
34.220        13
34.230        27
34.240        33
34.250        20
34.260        33
34.270        13
34.280        27
34.290        33
34.300        27
34.310        33
34.320        33
34.330        53
34.340        20
34.350        53
34.360        13
34.370        67
34.380        20
34.390        13
34.400        13
34.410        13
34.420        20
34.430        60
34.440        33
34.450        47
34.460        33
34.470        40
34.480        33
34.490        67
34.500        27
34.510        20
34.520        13
34.530        27
34.540        40
34.550        20
34.560        13
34.570        33
34.580        27
34.590         7
34.600        13
34.610        47
34.620        47
34.630        27
34.640        27
34.650        60
34.660         7
34.670        27
34.680        40
34.690        40
34.700         7
34.710        13
34.720        53
34.730        20
34.740        27
34.750        40
34.760        47
34.770        27
34.780        67
34.790        20
34.800        73
34.810        53
34.820        13
34.830        47
34.840        47
34.850        80
34.860        53
34.870        67
34.880        40
34.890        87
34.900       100
34.910        60
34.920       153
34.930       160
34.940       160
34.950       173
34.960       147
34.970       180
34.980       160
34.990       173
35.000       153
35.010       160
35.020       160
35.030       233
35.040       187
35.050       207
35.060       220
35.070       267
35.080       333
35.090       400
35.100       426
35.110       566
35.120       766
35.130       793
35.140       960
35.150       853
35.160       706
35.170       626
35.180       533
35.190       373
35.200       420
35.210       373
35.220       546
35.230       520
35.240       300
35.250       380
35.260       267
35.270       193
35.280       173
35.290       113
35.300        60
35.310        40
35.320        47
35.330        67
35.340        60
35.350        53
35.360        27
35.370        27
35.380        27
35.390        40
35.400        40
35.410        27
35.420        13
35.430        20
35.440        13
35.450        47
35.460        27
35.470        20
35.480        27
35.490        20
35.500        20
35.510        40
35.520        33
35.530        47
35.540        13
35.550        20
35.560        53
35.570        53
35.580        20
35.590        47
35.600        40
35.610        40
35.620        20
35.630        20
35.640        20
35.650         7
35.660        27
35.670         7
35.680        33
35.690        40
35.700        53
35.710        20
35.720        33
35.730        33
35.740        33
35.750        27
35.760        47
35.770        33
35.780         0
35.790        13
35.800        20
35.810        27
35.820        33
35.830        40
35.840        27
35.850        13
35.860        20
35.870        20
35.880        40
35.890        13
35.900        33
35.910        13
35.920        40
35.930        20
35.940        13
35.950        13
35.960        33
35.970        20
35.980        27
35.990        27
36.000        60
36.010        33
36.020        20
36.030        27
36.040        27
36.050        13
36.060        27
36.070        40
36.080        20
36.090        67
36.100        27
36.110        33
36.120        53
36.130         0
36.140         7
36.150        13
36.160        20
36.170        20
36.180        20
36.190        27
36.200        27
36.210        27
36.220        33
36.230        33
36.240        20
36.250        20
36.260        33
36.270        27
36.280        60
36.290        13
36.300        33
36.310        20
36.320        20
36.330        47
36.340        47
36.350        20
36.360        27
36.370        27
36.380        27
36.390        13
36.400        27
36.410        20
36.420        13
36.430        67
36.440        27
36.450        47
36.460        33
36.470        33
36.480        33
36.490         7
36.500        13
36.510        13
36.520        47
36.530        33
36.540         7
36.550        47
36.560        27
36.570        40
36.580         7
36.590        27
36.600        53
36.610        13
36.620        20
36.630        33
36.640        47
36.650        20
36.660        20
36.670         7
36.680         7
36.690        27
36.700        27
36.710        13
36.720        20
36.730        47
36.740        20
36.750         7
36.760        27
36.770        20
36.780        13
36.790        27
36.800        20
36.810        33
36.820        47
36.830        27
36.840        47
36.850        47
36.860        27
36.870        33
36.880        47
36.890        40
36.900        27
36.910        33
36.920        67
36.930        20
36.940        27
36.950        13
36.960        40
36.970        20
36.980        27
36.990        20
37.000        33
37.010        27
37.020        20
37.030        27
37.040        20
37.050        20
37.060        20
37.070        33
37.080        20
37.090        33
37.100        13
37.110        53
37.120         7
37.130        33
37.140        60
37.150        13
37.160        27
37.170        20
37.180        27
37.190        27
37.200        33
37.210        13
37.220        20
37.230        20
37.240        40
37.250        40
37.260        20
37.270        20
37.280        13
37.290        13
37.300        13
37.310        47
37.320        40
37.330        20
37.340        20
37.350        33
37.360        40
37.370        27
37.380         0
37.390        47
37.400         7
37.410        13
37.420        27
37.430        20
37.440        27
37.450        40
37.460        27
37.470        73
37.480        20
37.490        27
37.500        33
37.510        27
37.520        20
37.530        20
37.540        20
37.550        47
37.560         7
37.570        20
37.580        33
37.590        27
37.600        13
37.610        80
37.620        33
37.630        80
37.640        53
37.650        67
37.660        73
37.670        40
37.680        73
37.690        80
37.700        73
37.710        87
37.720        80
37.730       133
37.740       193
37.750       253
37.760       367
37.770       353
37.780       293
37.790       273
37.800       293
37.810       133
37.820       147
37.830       153
37.840       113
37.850       207
37.860       107
37.870       227
37.880       200
37.890       153
37.900       153
37.910        40
37.920        80
37.930        93
37.940       120
37.950        60
37.960        20
37.970        27
37.980        33
37.990        40
38.000        40
38.010        33
38.020        20
38.030        20
38.040        40
38.050        33
38.060        47
38.070        13
38.080        27
38.090        47
38.100        60
38.110        20
38.120        53
38.130        13
38.140        20
38.150        27
38.160        13
38.170        20
38.180         7
38.190        33
38.200        33
38.210        13
38.220        40
38.230        13
38.240        13
38.250         0
38.260        33
38.270        13
38.280        20
38.290        13
38.300        13
38.310        27
38.320         7
38.330        20
38.340        40
38.350        13
38.360        20
38.370        13
38.380        13
38.390        27
38.400         7
38.410        20
38.420        27
38.430        13
38.440        13
38.450        33
38.460        33
38.470        20
38.480        20
38.490        20
38.500        20
38.510        20
38.520        27
38.530        27
38.540        20
38.550        40
38.560        20
38.570        20
38.580        20
38.590        40
38.600        20
38.610        27
38.620        20
38.630         7
38.640        47
38.650        20
38.660        13
38.670        47
38.680        40
38.690        13
38.700        33
38.710        20
38.720        53
38.730        20
38.740         0
38.750        13
38.760        27
38.770        20
38.780        40
38.790        20
38.800         7
38.810         0
38.820        20
38.830        20
38.840        40
38.850         7
38.860        20
38.870        27
38.880        27
38.890        20
38.900        53
38.910        20
38.920        20
38.930        20
38.940        20
38.950        27
38.960         7
38.970        20
38.980        20
38.990        27
39.000        27
39.010        33
39.020        33
39.030        20
39.040         7
39.050        47
39.060        20
39.070        20
39.080        13
39.090        20
39.100        27
39.110        33
39.120        33
39.130        33
39.140        33
39.150        13
39.160         7
39.170         7
39.180         7
39.190        13
39.200        40
39.210        13
39.220         0
39.230        27
39.240        33
39.250        47
39.260        13
39.270         7
39.280        20
39.290         7
39.300        20
39.310        27
39.320        20
39.330        20
39.340        27
39.350         0
39.360        13
39.370        13
39.380        20
39.390         0
39.400        27
39.410        13
39.420        47
39.430        27
39.440        40
39.450        33
39.460        20
39.470        13
39.480        13
39.490        20
39.500         7
39.510        20
39.520        27
39.530        27
39.540        27
39.550         0
39.560        20
39.570         7
39.580        40
39.590        13
39.600        13
39.610        20
39.620        40
39.630        27
39.640        27
39.650        20
39.660        40
39.670        40
39.680        13
39.690        13
39.700        33
39.710        40
39.720        27
39.730        60
39.740        27
39.750        47
39.760        27
39.770        47
39.780        53
39.790        53
39.800        47
39.810        40
39.820        60
39.830        67
39.840        60
39.850        40
39.860        60
39.870        47
39.880        73
39.890        73
39.900        80
39.910       100
39.920        80
39.930       107
39.940        67
39.950        80
39.960       127
39.970        93
39.980        93
39.990        40
40.000        53
40.010        73
40.020        47
40.030       113
40.040       140
40.050        80
40.060        93
40.070        33
40.080        53
40.090        60
40.100        27
40.110        60
40.120        60
40.130        40
40.140        27
40.150        33
40.160        33
40.170        53
40.180        27
40.190        13
40.200        60
40.210        27
40.220        13
40.230        20
40.240         0
40.250        33
40.260         7
40.270        20
40.280        47
40.290        67
40.300        60
40.310        27
40.320        20
40.330        13
40.340        20
40.350        40
40.360        27
40.370        27
40.380        13
40.390        20
40.400         7
40.410        13
40.420        20
40.430        13
40.440        40
40.450        13
40.460        27
40.470        20
40.480        47
40.490        13
40.500        13
40.510        47
40.520         0
40.530        53
40.540         7
40.550        13
40.560         7
40.570        20
40.580        33
40.590        40
40.600        40
40.610        27
40.620        27
40.630        13
40.640        13
40.650        13
40.660         7
40.670        33
40.680        20
40.690        27
40.700        20
40.710        13
40.720        13
40.730        27
40.740        20
40.750        13
40.760        20
40.770        47
40.780         7
40.790        13
40.800        27
40.810         7
40.820        33
40.830        47
40.840         0
40.850        20
40.860        20
40.870        13
40.880        27
40.890         0
40.900        20
40.910        33
40.920        20
40.930        27
40.940        20
40.950        27
40.960        33
40.970        13
40.980        13
40.990        13
41.000        47
41.010        27
41.020        27
41.030        27
41.040         7
41.050         7
41.060        20
41.070        13
41.080        20
41.090        20
41.100        13
41.110         0
41.120         0
41.130         7
41.140        27
41.150        20
41.160        20
41.170        27
41.180        27
41.190         7
41.200        27
41.210        13
41.220         7
41.230        13
41.240        27
41.250        40
41.260        20
41.270        27
41.280        13
41.290        40
41.300         0
41.310        13
41.320        20
41.330         7
41.340        13
41.350        40
41.360        27
41.370        27
41.380        47
41.390        47
41.400        20
41.410         7
41.420        47
41.430        33
41.440        40
41.450        47
41.460        33
41.470        13
41.480        33
41.490        33
41.500        20
41.510        47
41.520        53
41.530        60
41.540        13
41.550        40
41.560        53
41.570        73
41.580        53
41.590        47
41.600        60
41.610        80
41.620        60
41.630       107
41.640       160
41.650       120
41.660       120
41.670       127
41.680       147
41.690       113
41.700       107
41.710       107
41.720        40
41.730        73
41.740       100
41.750        87
41.760        87
41.770       100
41.780       113
41.790        87
41.800        67
41.810        60
41.820        87
41.830        40
41.840        33
41.850         7
41.860        40
41.870        47
41.880        33
41.890        40
41.900        33
41.910        13
41.920        27
41.930        47
41.940        13
41.950        13
41.960         7
41.970        20
41.980        20
41.990        20
42.000        20
42.010        13
42.020         7
42.030        20
42.040        13
42.050        13
42.060        40
42.070        13
42.080         0
42.090        33
42.100         7
42.110        20
42.120        27
42.130        47
42.140        27
42.150        27
42.160        27
42.170        20
42.180         7
42.190        13
42.200        20
42.210        13
42.220        13
42.230         7
42.240        13
42.250        33
42.260         0
42.270        53
42.280         7
42.290        33
42.300        20
42.310        40
42.320        33
42.330         0
42.340        20
42.350         0
42.360        13
42.370        27
42.380        20
42.390        20
42.400        20
42.410        40
42.420         0
42.430        33
42.440        20
42.450         7
42.460        20
42.470        33
42.480         7
42.490        13
42.500        20
42.510        47
42.520        20
42.530         7
42.540        20
42.550        27
42.560        13
42.570        33
42.580        33
42.590        40
42.600        13
42.610        13
42.620        40
42.630        20
42.640        33
42.650        40
42.660        20
42.670        33
42.680        27
42.690        13
42.700        27
42.710        20
42.720        27
42.730        47
42.740        13
42.750        20
42.760         7
42.770        13
42.780        27
42.790        33
42.800         7
42.810        27
42.820         0
42.830        13
42.840         7
42.850        13
42.860        27
42.870        20
42.880        27
42.890        13
42.900        20
42.910        27
42.920        20
42.930        13
42.940        13
42.950        27
42.960         7
42.970         7
42.980        27
42.990        33
43.000        33
43.010        40
43.020        33
43.030        13
43.040        20
43.050        13
43.060        20
43.070        20
43.080        20
43.090        27
43.100        27
43.110        47
43.120        47
43.130        33
43.140        27
43.150        33
43.160        33
43.170        33
43.180        53
43.190        33
43.200        47
43.210        47
43.220        67
43.230        67
43.240        60
43.250        53
43.260        40
43.270        67
43.280        87
43.290        47
43.300        47
43.310       100
43.320       127
43.330       107
43.340       120
43.350       140
43.360       153
43.370       120
43.380       133
43.390       140
43.400       167
43.410       107
43.420       100
43.430       127
43.440        80
43.450        73
43.460        73
43.470       107
43.480        60
43.490        60
43.500        87
43.510        93
43.520        80
43.530        60
43.540        27
43.550        67
43.560        33
43.570        13
43.580        27
43.590        13
43.600        13
43.610        20
43.620        33
43.630        33
43.640         7
43.650         7
43.660        20
43.670        27
43.680        20
43.690        33
43.700         7
43.710         7
43.720        27
43.730        20
43.740        47
43.750        13
43.760        20
43.770        20
43.780        20
43.790        40
43.800         0
43.810        20
43.820        20
43.830        27
43.840        27
43.850        20
43.860         7
43.870        20
43.880        20
43.890        13
43.900        27
43.910        20
43.920        27
43.930         0
43.940        13
43.950        20
43.960        27
43.970        20
43.980        40
43.990        40
44.000        27
44.010        27
44.020        20
44.030        27
44.040        20
44.050        20
44.060        20
44.070        13
44.080        47
44.090        13
44.100        33
44.110        13
44.120        13
44.130        40
44.140        27
44.150        27
44.160        13
44.170        20
44.180         7
44.190         7
44.200        27
44.210        20
44.220        20
44.230        33
44.240        20
44.250        13
44.260        20
44.270        27
44.280        40
44.290        13
44.300        20
44.310        20
44.320         7
44.330        40
44.340        13
44.350        13
44.360        13
44.370        13
44.380        27
44.390        27
44.400        53
44.410        40
44.420        13
44.430        27
44.440        13
44.450        20
44.460        13
44.470        20
44.480        33
44.490        13
44.500        27
44.510         7
44.520         7
44.530         7
44.540        60
44.550        27
44.560        20
44.570        27
44.580        13
44.590        20
44.600        33
44.610        27
44.620         0
44.630        27
44.640        13
44.650         7
44.660        20
44.670        13
44.680        20
44.690        13
44.700         7
44.710        27
44.720        27
44.730        20
44.740        20
44.750         7
44.760        33
44.770        33
44.780        40
44.790         7
44.800        13
44.810        27
44.820        27
44.830        20
44.840        27
44.850        40
44.860        13
44.870        40
44.880        20
44.890        20
44.900        27
44.910        13
44.920        33
44.930        33
44.940        40
44.950        20
44.960        33
44.970        27
44.980        40
44.990        27
45.000        20
45.010         7
45.020         7
45.030        20
45.040        33
45.050        40
45.060        13
45.070        20
45.080        13
45.090        20
45.100        20
45.110        27
45.120         7
45.130        53
45.140        20
45.150        20
45.160        20
45.170        13
45.180        20
45.190        47
45.200        13
45.210        13
45.220        40
45.230        27
45.240        13
45.250        47
45.260        33
45.270        27
45.280        27
45.290        20
45.300        33
45.310        47
45.320        20
45.330        33
45.340        13
45.350        20
45.360        40
45.370        67
45.380        33
45.390        33
45.400        33
45.410        27
45.420        33
45.430        47
45.440        33
45.450        33
45.460        47
45.470        13
45.480        40
45.490        33
45.500        47
45.510        47
45.520        20
45.530        53
45.540        33
45.550        20
45.560        53
45.570        40
45.580        53
45.590        40
45.600        47
45.610        53
45.620        47
45.630        40
45.640        33
45.650        60
45.660        67
45.670        53
45.680       120
45.690        80
45.700       100
45.710        60
45.720       100
45.730        67
45.740        20
45.750        33
45.760        80
45.770       107
45.780       100
45.790       100
45.800        87
45.810        60
45.820       107
45.830        93
45.840       120
45.850        87
45.860        87
45.870       107
45.880       100
45.890       160
45.900       127
45.910        93
45.920       100
45.930       133
45.940       213
45.950       100
45.960       100
45.970       153
45.980       213
45.990       187
46.000       273
46.010       193
46.020       160
46.030       220
46.040       227
46.050       213
46.060       293
46.070       200
46.080       227
46.090       320
46.100       193
46.110       240
46.120       273
46.130       280
46.140       293
46.150       273
46.160       327
46.170       273
46.180       293
46.190       340
46.200       280
46.210       260
46.220       313
46.230       320
46.240       320
46.250       300
46.260       293
46.270       260
46.280       300
46.290       280
46.300       307
46.310       353
46.320       267
46.330       293
46.340       273
46.350       233
46.360       287
46.370       313
46.380       247
46.390       300
46.400       287
46.410       287
46.420       193
46.430       280
46.440       307
46.450       280
46.460       280
46.470       293
46.480       240
46.490       253
46.500       253
46.510       213
46.520       220
46.530       200
46.540       193
46.550       200
46.560       200
46.570       207
46.580       213
46.590       193
46.600       233
46.610       127
46.620       127
46.630       127
46.640       133
46.650        93
46.660       100
46.670       153
46.680        87
46.690        80
46.700       127
46.710       107
46.720       113
46.730       120
46.740       120
46.750       127
46.760        67
46.770        53
46.780       113
46.790       107
46.800        73
46.810        67
46.820        60
46.830        60
46.840        33
46.850        93
46.860        80
46.870        67
46.880        60
46.890        60
46.900        80
46.910        67
46.920        53
46.930        40
46.940        67
46.950        20
46.960        60
46.970        40
46.980        73
46.990        87
47.000        40
47.010        87
47.020        20
47.030        13
47.040        33
47.050        33
47.060        27
47.070        13
47.080         7
47.090        60
47.100        33
47.110        53
47.120        40
47.130        40
47.140        27
47.150        53
47.160        20
47.170        13
47.180        20
47.190        20
47.200        40
47.210        20
47.220        20
47.230        20
47.240        33
47.250        13
47.260        33
47.270        47
47.280        27
47.290         7
47.300        53
47.310        33
47.320         7
47.330         7
47.340        13
47.350        20
47.360         7
47.370        40
47.380        13
47.390        33
47.400        47
47.410        13
47.420        27
47.430         0
47.440        47
47.450        47
47.460        27
47.470        40
47.480        20
47.490        20
47.500        27
47.510        20
47.520        33
47.530        27
47.540        27
47.550         7
47.560        20
47.570        40
47.580        20
47.590        20
47.600        13
47.610        20
47.620        33
47.630        33
47.640        27
47.650         0
47.660         7
47.670        13
47.680        20
47.690        27
47.700        27
47.710        27
47.720        20
47.730        13
47.740        33
47.750        20
47.760        33
47.770        33
47.780        20
47.790        40
47.800         0
47.810        33
47.820         7
47.830        20
47.840        27
47.850         7
47.860        40
47.870         7
47.880         7
47.890        33
47.900        27
47.910        13
47.920        13
47.930        20
47.940        47
47.950         7
47.960        27
47.970        27
47.980         0
47.990        20
48.000        20
48.010        13
48.020        20
48.030        20
48.040        47
48.050        13
48.060         0
48.070         7
48.080         0
48.090        20
48.100        27
48.110        13
48.120         7
48.130        33
48.140        27
48.150         7
48.160        20
48.170        13
48.180        13
48.190         7
48.200         7
48.210        27
48.220         7
48.230        27
48.240        13
48.250        20
48.260         7
48.270        20
48.280        13
48.290        20
48.300         7
48.310        20
48.320        27
48.330        20
48.340        27
48.350        13
48.360        33
48.370        60
48.380         7
48.390        13
48.400        33
48.410         7
48.420        33
48.430        20
48.440        20
48.450        13
48.460        27
48.470        20
48.480        13
48.490        40
48.500         7
48.510        13
48.520        13
48.530         7
48.540        20
48.550        27
48.560        20
48.570        20
48.580        27
48.590        13
48.600        27
48.610        20
48.620        13
48.630        33
48.640        13
48.650        20
48.660         0
48.670         7
48.680        20
48.690        13
48.700         7
48.710         7
48.720         0
48.730        20
48.740         0
48.750        20
48.760        20
48.770        13
48.780        20
48.790         7
48.800        13
48.810        20
48.820         7
48.830        13
48.840         7
48.850        20
48.860        13
48.870        20
48.880         7
48.890        13
48.900        33
48.910        47
48.920        13
48.930        13
48.940         7
48.950        40
48.960        27
48.970        27
48.980        40
48.990        27
49.000        13
49.010        13
49.020        20
49.030         0
49.040        13
49.050        20
49.060         7
49.070        13
49.080         7
49.090         7
49.100        13
49.110        13
49.120        13
49.130        20
49.140        20
49.150        20
49.160        13
49.170        33
49.180        27
49.190         7
49.200        13
49.210        13
49.220         7
49.230        27
49.240        27
49.250        40
49.260         0
49.270        33
49.280        13
49.290        13
49.300         7
49.310        13
49.320        13
49.330        13
49.340         7
49.350         7
49.360        13
49.370        13
49.380         7
49.390        13
49.400        13
49.410        20
49.420        27
49.430        13
49.440         0
49.450        47
49.460         0
49.470         7
49.480        47
49.490        27
49.500        20
49.510         0
49.520        27
49.530         0
49.540         7
49.550        27
49.560         0
49.570         7
49.580        27
49.590        13
49.600        20
49.610         0
49.620        13
49.630        20
49.640        20
49.650         0
49.660         7
49.670        27
49.680         0
49.690         0
49.700        27
49.710         7
49.720         7
49.730        27
49.740        20
49.750        33
49.760        27
49.770        27
49.780        40
49.790        13
49.800         7
49.810        27
49.820        33
49.830         7
49.840         0
49.850        20
49.860        27
49.870        27
49.880        33
49.890        13
49.900        13
49.910        27
49.920         7
49.930        13
49.940         7
49.950        33
49.960        27
49.970         7
49.980        13
49.990        20
50.000        13
50.010        13
50.020        13
50.030         7
50.040         7
50.050        27
50.060         7
50.070         7
50.080         0
50.090        13
50.100        13
50.110        13
50.120         7
50.130        13
50.140        20
50.150        20
50.160        20
50.170        13
50.180        27
50.190        53
50.200         7
50.210         0
50.220         0
50.230        20
50.240        13
50.250        20
50.260         0
50.270        40
50.280         0
50.290        27
50.300         0
50.310        33
50.320        13
50.330        20
50.340         0
50.350        13
50.360         0
50.370        13
50.380        13
50.390        13
50.400        20
50.410         0
50.420        13
50.430        13
50.440        13
50.450        13
50.460        13
50.470         0
50.480         7
50.490        20
50.500        13
50.510        20
50.520         7
50.530         7
50.540        13
50.550         7
50.560        20
50.570        20
50.580        20
50.590        53
50.600        27
50.610        20
50.620        40
50.630        27
50.640        20
50.650        13
50.660        13
50.670        13
50.680        13
50.690        33
50.700         0
50.710        20
50.720        13
50.730        33
50.740        47
50.750         7
50.760        33
50.770        13
50.780         7
50.790         7
50.800        13
50.810        33
50.820         0
50.830         0
50.840        33
50.850         0
50.860        40
50.870        20
50.880        33
50.890        20
50.900         7
50.910        13
50.920        27
50.930        13
50.940         7
50.950        20
50.960        27
50.970        20
50.980        20
50.990         7
51.000        13
51.010        27
51.020         7
51.030        33
51.040        13
51.050         7
51.060        13
51.070         7
51.080         0
51.090        13
51.100        20
51.110        27
51.120        20
51.130         0
51.140        27
51.150        20
51.160        13
51.170        20
51.180        27
51.190         7
51.200        13
51.210        27
51.220         7
51.230        27
51.240        20
51.250        27
51.260        13
51.270        27
51.280         7
51.290        13
51.300        20
51.310        47
51.320        27
51.330         0
51.340        13
51.350        20
51.360         7
51.370         7
51.380         0
51.390        13
51.400        13
51.410        13
51.420         0
51.430        20
51.440         0
51.450        33
51.460         7
51.470        20
51.480        20
51.490         7
51.500        40
51.510        13
51.520        33
51.530        33
51.540        20
51.550        20
51.560        27
51.570        40
51.580        40
51.590        20
51.600        13
51.610        60
51.620        27
51.630        13
51.640        47
51.650         0
51.660        13
51.670         7
51.680        33
51.690        20
51.700         7
51.710         7
51.720        13
51.730        13
51.740        13
51.750        20
51.760        20
51.770        13
51.780        20
51.790         7
51.800         7
51.810        20
51.820        27
51.830        13
51.840         7
51.850        13
51.860        20
51.870        20
51.880         0
51.890        27
51.900        13
51.910         0
51.920         7
51.930        27
51.940        27
51.950         0
51.960        13
51.970        27
51.980        20
51.990        33
52.000         0
52.010        13
52.020        33
52.030        13
52.040         7
52.050         7
52.060        33
52.070         7
52.080        20
52.090        13
52.100         7
52.110         7
52.120        27
52.130         7
52.140        13
52.150        20
52.160        27
52.170        20
52.180        40
52.190         7
52.200        13
52.210         7
52.220        20
52.230         7
52.240        13
52.250        13
52.260        20
52.270        33
52.280        13
52.290        27
52.300        27
52.310         7
52.320        20
52.330        33
52.340        33
52.350        20
52.360         7
52.370        33
52.380        27
52.390        27
52.400         7
52.410        13
52.420        47
52.430        33
52.440        60
52.450        40
52.460        73
52.470        20
52.480        40
52.490        67
52.500        67
52.510        53
52.520       147
52.530       207
52.540       193
52.550       287
52.560       213
52.570       420
52.580       353
52.590       260
52.600       287
52.610       127
52.620       120
52.630        60
52.640        47
52.650        73
52.660        60
52.670        80
52.680       120
52.690       120
52.700       167
52.710       193
52.720       173
52.730       113
52.740        87
52.750        80
52.760        33
52.770        33
52.780        40
52.790         7
52.800        20
52.810        40
52.820        20
52.830         7
52.840        27
52.850         7
52.860         0
52.870        20
52.880        27
52.890        20
52.900        33
52.910         7
52.920        20
52.930         0
52.940         7
52.950        20
52.960        20
52.970        20
52.980        13
52.990        20
53.000        20
53.010        20
53.020        20
53.030         7
53.040        33
53.050        13
53.060        13
53.070        20
53.080        13
53.090         7
53.100        13
53.110        13
53.120        20
53.130         7
53.140        13
53.150         0
53.160         7
53.170        20
53.180        33
53.190        27
53.200         7
53.210        27
53.220        20
53.230        20
53.240        33
53.250        13
53.260        13
53.270        20
53.280        27
53.290        13
53.300        13
53.310        20
53.320         7
53.330         7
53.340        20
53.350        40
53.360         0
53.370        20
53.380         7
53.390        13
53.400         0
53.410        13
53.420         0
53.430         0
53.440        27
53.450        13
53.460         0
53.470        13
53.480        13
53.490        13
53.500        13
53.510        20
53.520         0
53.530        20
53.540         7
53.550        13
53.560        13
53.570         7
53.580        13
53.590        47
53.600         7
53.610        13
53.620         7
53.630         7
53.640        27
53.650        33
53.660         7
53.670        27
53.680        20
53.690        27
53.700        13
53.710        33
53.720        20
53.730        27
53.740        20
53.750        27
53.760         0
53.770        13
53.780         7
53.790        13
53.800        13
53.810         7
53.820         7
53.830        20
53.840        13
53.850         0
53.860        13
53.870        13
53.880        20
53.890        13
53.900        13
53.910         7
53.920         7
53.930         7
53.940         0
53.950        13
53.960        20
53.970        13
53.980        13
53.990         7
54.000        13
54.010         0
54.020         0
54.030        13
54.040         0
54.050        13
54.060        20
54.070        13
54.080        13
54.090        33
54.100        20
54.110         7
54.120        13
54.130        27
54.140        13
54.150        33
54.160         7
54.170         0
54.180         7
54.190        20
54.200         7
54.210        27
54.220         7
54.230         7
54.240        13
54.250        27
54.260         7
54.270        20
54.280        13
54.290        13
54.300         7
54.310        13
54.320         7
54.330        20
54.340        13
54.350        13
54.360        40
54.370        53
54.380        27
54.390        13
54.400        13
54.410        13
54.420        13
54.430        20
54.440        60
54.450         7
54.460         7
54.470         7
54.480        13
54.490        13
54.500        13
54.510         0
54.520         0
54.530         7
54.540        13
54.550         7
54.560        27
54.570        13
54.580         7
54.590        20
54.600        53
54.610         7
54.620        20
54.630         0
54.640        13
54.650        13
54.660        20
54.670        20
54.680        20
54.690        20
54.700         7
54.710         7
54.720         7
54.730        13
54.740         7
54.750         7
54.760        20
54.770         7
54.780        33
54.790        13
54.800        40
54.810         7
54.820        20
54.830        13
54.840         7
54.850        27
54.860        27
54.870         0
54.880        20
54.890        27
54.900        20
54.910        20
54.920        20
54.930        13
54.940         7
54.950         7
54.960        20
54.970        27
54.980        13
54.990         0
55.000        20
55.010        13
55.020         7
55.030        13
55.040        13
55.050         7
55.060         7
55.070         7
55.080         7
55.090        13
55.100        13
55.110         7
55.120         7
55.130         7
55.140        13
55.150         0
55.160        13
55.170        13
55.180        20
55.190        27
55.200        13
55.210        13
55.220        27
55.230         7
55.240        33
55.250         7
55.260         7
55.270         7
55.280        27
55.290         0
55.300        13
55.310        20
55.320        20
55.330        20
55.340        20
55.350         0
55.360        20
55.370         0
55.380        13
55.390        13
55.400        20
55.410        13
55.420         7
55.430        20
55.440        13
55.450        13
55.460        20
55.470        27
55.480        20
55.490         7
55.500         7
55.510         0
55.520         7
55.530        13
55.540        33
55.550        20
55.560        27
55.570        13
55.580        13
55.590        20
55.600        40
55.610         7
55.620        20
55.630        27
55.640         0
55.650        27
55.660         0
55.670        13
55.680         7
55.690        20
55.700         0
55.710        20
55.720        13
55.730        33
55.740         7
55.750        13
55.760         7
55.770        13
55.780         7
55.790        27
55.800        13
55.810        27
55.820        13
55.830         7
55.840        13
55.850        13
55.860        20
55.870         7
55.880        20
55.890         7
55.900        13
55.910         7
55.920         7
55.930         0
55.940        20
55.950        27
55.960         7
55.970        13
55.980         7
55.990         7
56.000         7
56.010        33
56.020         0
56.030        13
56.040        13
56.050         7
56.060        80
56.070        20
56.080         0
56.090         0
56.100        13
56.110         7
56.120         7
56.130        27
56.140         7
56.150        60
56.160        13
56.170        13
56.180        13
56.190        13
56.200        20
56.210         7
56.220        13
56.230        13
56.240        13
56.250        20
56.260         7
56.270         0
56.280         7
56.290        13
56.300         7
56.310        13
56.320        33
56.330        20
56.340        13
56.350        27
56.360         7
56.370        27
56.380        13
56.390         7
56.400        20
56.410         0
56.420         7
56.430         7
56.440        13
56.450        33
56.460         7
56.470        33
56.480         7
56.490         0
56.500        27
56.510         7
56.520        27
56.530        13
56.540        20
56.550        13
56.560        13
56.570         7
56.580        13
56.590        27
56.600        13
56.610        13
56.620        33
56.630        20
56.640        27
56.650        20
56.660        20
56.670        33
56.680        20
56.690        27
56.700         7
56.710         7
56.720        27
56.730        13
56.740         7
56.750        27
56.760         0
56.770        20
56.780        33
56.790         7
56.800        27
56.810        13
56.820        13
56.830        27
56.840        13
56.850         7
56.860        13
56.870        27
56.880        13
56.890        27
56.900        20
56.910        20
56.920        13
56.930        20
56.940        20
56.950        27
56.960         7
56.970         7
56.980         7
56.990         7
57.000        20
57.010        27
57.020         0
57.030        13
57.040        27
57.050        27
57.060        13
57.070        13
57.080        27
57.090        33
57.100        53
57.110         7
57.120         7
57.130        20
57.140        33
57.150         7
57.160        33
57.170         0
57.180         7
57.190        27
57.200        33
57.210        33
57.220        33
57.230        13
57.240        13
57.250        20
57.260        13
57.270        33
57.280        47
57.290        13
57.300         7
57.310        40
57.320        13
57.330        47
57.340        20
57.350        47
57.360        53
57.370        53
57.380        33
57.390        67
57.400        27
57.410        80
57.420        73
57.430       160
57.440       147
57.450       193
57.460       167
57.470       380
57.480       300
57.490       393
57.500       526
57.510       626
57.520       546
57.530       673
57.540       680
57.550       713
57.560       566
57.570       426
57.580       387
57.590       340
57.600       300
57.610       260
57.620       167
57.630       240
57.640       200
57.650       253
57.660       300
57.670       273
57.680       407
57.690       307
57.700       273
57.710       373
57.720       307
57.730       233
57.740       193
57.750       167
57.760       107
57.770        80
57.780        73
57.790        73
57.800        60
57.810        80
57.820        60
57.830        33
57.840        40
57.850        53
57.860        53
57.870        40
57.880        40
57.890        60
57.900        47
57.910        47
57.920        20
57.930        20
57.940        20
57.950        33
57.960        33
57.970        13
57.980        53
57.990        27
58.000        33
58.010        33
58.020        53
58.030        13
58.040        20
58.050        53
58.060        13
58.070        60
58.080        20
58.090        33
58.100        20
58.110        13
58.120        13
58.130        20
58.140        20
58.150         7
58.160        13
58.170        27
58.180        27
58.190        20
58.200        27
58.210        13
58.220         0
58.230        20
58.240        20
58.250        13
58.260        27
58.270        20
58.280        27
58.290        40
58.300        20
58.310        27
58.320        13
58.330        20
58.340        20
58.350        27
58.360         7
58.370         7
58.380        33
58.390         7
58.400        13
58.410        27
58.420        20
58.430        20
58.440        20
58.450        13
58.460        27
58.470        20
58.480        20
58.490        13
58.500         7
58.510        13
58.520        13
58.530         0
58.540         7
58.550        13
58.560        13
58.570        13
58.580         7
58.590         7
58.600        40
58.610         7
58.620         7
58.630        20
58.640        13
58.650        27
58.660         0
58.670         7
58.680        27
58.690         7
58.700         7
58.710         7
58.720        27
58.730        13
58.740         7
58.750        27
58.760         0
58.770        13
58.780         7
58.790         0
58.800        13
58.810        27
58.820        13
58.830         0
58.840        33
58.850        33
58.860         7
58.870        27
58.880        13
58.890         7
58.900        13
58.910        20
58.920         7
58.930         7
58.940        13
58.950        27
58.960        33
58.970         7
58.980         7
58.990         7
59.000        13
59.010        20
59.020        20
59.030        13
59.040        13
59.050        13
59.060        13
59.070         7
59.080        20
59.090        13
59.100        13
59.110        40
59.120        27
59.130         7
59.140         7
59.150        13
59.160        13
59.170        27
59.180         7
59.190         0
59.200        13
59.210        20
59.220        20
59.230        20
59.240        33
59.250         0
59.260        27
59.270         7
59.280        20
59.290         7
59.300         7
59.310         0
59.320        13
59.330        27
59.340        33
59.350        13
59.360        20
59.370        20
59.380        13
59.390        13
59.400        33
59.410        13
59.420        13
59.430        13
59.440        13
59.450        20
59.460        47
59.470        27
59.480        20
59.490        13
59.500         7
59.510         0
59.520         7
59.530        27
59.540         7
59.550        33
59.560         0
59.570        13
59.580        20
59.590        13
59.600        13
59.610        20
59.620        20
59.630        20
59.640        20
59.650        13
59.660        13
59.670        13
59.680        20
59.690        27
59.700         7
59.710        33
59.720         7
59.730        13
59.740        20
59.750        20
59.760        13
59.770        27
59.780        40
59.790         7
59.800        20
59.810        27
59.820        20
59.830         7
59.840        27
59.850         7
59.860         7
59.870        27
59.880        20
59.890        13
59.900        27
59.910         0
59.920        20
59.930        27
59.940         7
59.950         7
59.960        20
59.970        13
59.980         7
59.990         0
60.000         0
