20.000        47
20.010        47
20.020        60
20.030        53
20.040        73
20.050        47
20.060        47
20.070        53
20.080        47
20.090        20
20.100        73
20.110        40
20.120        60
20.130        47
20.140        47
20.150        33
20.160        47
20.170        73
20.180        33
20.190        33
20.200        33
20.210        40
20.220        60
20.230       107
20.240        53
20.250        27
20.260        73
20.270        40
20.280        40
20.290        13
20.300        60
20.310        47
20.320        40
20.330        47
20.340        60
20.350        47
20.360        27
20.370        33
20.380        67
20.390        60
20.400        47
20.410        47
20.420        67
20.430        33
20.440        53
20.450        40
20.460        47
20.470        47
20.480        80
20.490        40
20.500        67
20.510        53
20.520        67
20.530        60
20.540        40
20.550        27
20.560        47
20.570        73
20.580        40
20.590        40
20.600        47
20.610        40
20.620        53
20.630        40
20.640        47
20.650        33
20.660        40
20.670        40
20.680        47
20.690        53
20.700        40
20.710        40
20.720        67
20.730        73
20.740        20
20.750        73
20.760        60
20.770        80
20.780        20
20.790        33
20.800        40
20.810        33
20.820        67
20.830        53
20.840        53
20.850        60
20.860        67
20.870        47
20.880        40
20.890        53
20.900        73
20.910        20
20.920        73
20.930        80
20.940        73
20.950        40
20.960        27
20.970        67
20.980        40
20.990        53
21.000        33
21.010        67
21.020        33
21.030        40
21.040        67
21.050        27
21.060        47
21.070        73
21.080        60
21.090        33
21.100        40
21.110        40
21.120        47
21.130        53
21.140        67
21.150        33
21.160        53
21.170        53
21.180        40
21.190        67
21.200        33
21.210        40
21.220        67
21.230        47
21.240        33
21.250        33
21.260        47
21.270        27
21.280        53
21.290        27
21.300        67
21.310        27
21.320        40
21.330        13
21.340        67
21.350        60
21.360        80
21.370        27
21.380        27
21.390        53
21.400        80
21.410        40
21.420        47
21.430        53
21.440        47
21.450        40
21.460        20
21.470        60
21.480        47
21.490        20
21.500        60
21.510        40
21.520        27
21.530        13
21.540        53
21.550        27
21.560        40
21.570        47
21.580        60
21.590        47
21.600        33
21.610        27
21.620        40
21.630        47
21.640        20
21.650        40
21.660        33
21.670        53
21.680        40
21.690        67
21.700        67
21.710        40
21.720        47
21.730        27
21.740        53
21.750        53
21.760        73
21.770        13
21.780        40
21.790        27
21.800        53
21.810        53
21.820        33
21.830        33
21.840        73
21.850        40
21.860        13
21.870        60
21.880        87
21.890        40
21.900        80
21.910        27
21.920        53
21.930        13
21.940        67
21.950        27
21.960        27
21.970        47
21.980        73
21.990        60
22.000        33
22.010        53
22.020        67
22.030        33
22.040        47
22.050        73
22.060        40
22.070        67
22.080        27
22.090        73
22.100        60
22.110        47
22.120        53
22.130        40
22.140        40
22.150        60
22.160        53
22.170        40
22.180        47
22.190        80
22.200        53
22.210        40
22.220        40
22.230        60
22.240        67
22.250        47
22.260        67
22.270        53
22.280        53
22.290        47
22.300        27
22.310        33
22.320        33
22.330        40
22.340        93
22.350        47
22.360        73
22.370        53
22.380       107
22.390        60
22.400        53
22.410        53
22.420        67
22.430        40
22.440        60
22.450        40
22.460        87
22.470        47
22.480       120
22.490        80
22.500        80
22.510        40
22.520        80
22.530        80
22.540        60
22.550       120
22.560        60
22.570       107
22.580        60
22.590        87
22.600        53
22.610        80
22.620        47
22.630       107
22.640        93
22.650        67
22.660        87
22.670       113
22.680        73
22.690        60
22.700        60
22.710        87
22.720        60
22.730        87
22.740        80
22.750        47
22.760        20
22.770        80
22.780        60
22.790        27
22.800        87
22.810       100
22.820        60
22.830        47
22.840        67
22.850        27
22.860       100
22.870        27
22.880        33
22.890        47
22.900        53
22.910        40
22.920        40
22.930        53
22.940        33
22.950        60
22.960        67
22.970        27
22.980        60
22.990        60
23.000        47
23.010        13
23.020        40
23.030        47
23.040        33
23.050        73
23.060        67
23.070        40
23.080        40
23.090        60
23.100        67
23.110        40
23.120        33
23.130        27
23.140        73
23.150        60
23.160        47
23.170        80
23.180        47
23.190        27
23.200        60
23.210        40
23.220        60
23.230        33
23.240         7
23.250        40
23.260        33
23.270        40
23.280        47
23.290        27
23.300        93
23.310        53
23.320        53
23.330        53
23.340        53
23.350        67
23.360        60
23.370        20
23.380        47
23.390        53
23.400        73
23.410        20
23.420        40
23.430        47
23.440        47
23.450        73
23.460        33
23.470        40
23.480        33
23.490        53
23.500        53
23.510        40
23.520        27
23.530        60
23.540        33
23.550        40
23.560        40
23.570        13
23.580        73
23.590        33
23.600        27
23.610        53
23.620        47
23.630        53
23.640        47
23.650        33
23.660        40
23.670        47
23.680        40
23.690        27
23.700        27
23.710        40
23.720        33
23.730        33
23.740        53
23.750        40
23.760        53
23.770        20
23.780        27
23.790        20
23.800        53
23.810        47
23.820        40
23.830        60
23.840        33
23.850        27
23.860        40
23.870        53
23.880        40
23.890        60
23.900        20
23.910        53
23.920        27
23.930        47
23.940        53
23.950        60
23.960        60
23.970        47
23.980        47
23.990        33
24.000        13
24.010        60
24.020        33
24.030        40
24.040        20
24.050        47
24.060        27
24.070        60
24.080        20
24.090        40
24.100        40
24.110        53
24.120        60
24.130        53
24.140        40
24.150        53
24.160        47
24.170        33
24.180        53
24.190        13
24.200        33
24.210        33
24.220        47
24.230        60
24.240        13
24.250        33
24.260        60
24.270        33
24.280        67
24.290        20
24.300        27
24.310        87
24.320        60
24.330         7
24.340        33
24.350        53
24.360        53
24.370        53
24.380        47
24.390        33
24.400        20
24.410        20
24.420        53
24.430        27
24.440        40
24.450        40
24.460        47
24.470         0
24.480        73
24.490        40
24.500        53
24.510        20
24.520        33
24.530        27
24.540        33
24.550        27
24.560        47
24.570        47
24.580        27
24.590        27
24.600        67
24.610        47
24.620        60
24.630        40
24.640        27
24.650        53
24.660        40
24.670        67
24.680        47
24.690        27
24.700        67
24.710        53
24.720        33
24.730        33
24.740        27
24.750        33
24.760        40
24.770        40
24.780        13
24.790        33
24.800        47
24.810        47
24.820        47
24.830        53
24.840        40
24.850        53
24.860        40
24.870        47
24.880         7
24.890        53
24.900        40
24.910        20
24.920        33
24.930        40
24.940        47
24.950        47
24.960        40
24.970        20
24.980        13
24.990        47
25.000        20
25.010        40
25.020        33
25.030        27
25.040        27
25.050        33
25.060        13
25.070        53
25.080        40
25.090        40
25.100        27
25.110        73
25.120        40
25.130        27
25.140        47
25.150        40
25.160        27
25.170        27
25.180       100
25.190        47
25.200        40
25.210        53
25.220        40
25.230        33
25.240        40
25.250        40
25.260        47
25.270        40
25.280        47
25.290        73
25.300        33
25.310        80
25.320        73
25.330        40
25.340        60
25.350        33
25.360       100
25.370        67
25.380        60
25.390       100
25.400        80
25.410       100
25.420        47
25.430        40
25.440        73
25.450        60
25.460        53
25.470        27
25.480        60
25.490        80
25.500       113
25.510       100
25.520       120
25.530        93
25.540       107
25.550       180
25.560       227
25.570       207
25.580       273
25.590       200
25.600       280
25.610       193
25.620       207
25.630       140
25.640       180
25.650       140
25.660        93
25.670       107
25.680        93
25.690        80
25.700        40
25.710        67
25.720        40
25.730        47
25.740        33
25.750        33
25.760        53
25.770        33
25.780        33
25.790        40
25.800        47
25.810        40
25.820        20
25.830        20
25.840        47
25.850        47
25.860        27
25.870        47
25.880        40
25.890        20
25.900        33
25.910        40
25.920        67
25.930        47
25.940        20
25.950        33
25.960        27
25.970        13
25.980        40
25.990        67
26.000        13
26.010        20
26.020        40
26.030        40
26.040        40
26.050        60
26.060        53
26.070        33
26.080        53
26.090        40
26.100        20
26.110        33
26.120        20
26.130        33
26.140        20
26.150        67
26.160        73
26.170         7
26.180        33
26.190        53
26.200        27
26.210        47
26.220         7
26.230        47
26.240        47
26.250        27
26.260        33
26.270        20
26.280        27
26.290        33
26.300        33
26.310        20
26.320        73
26.330        20
26.340        73
26.350        33
26.360        47
26.370        53
26.380        20
26.390        67
26.400        60
26.410        20
26.420        73
26.430        53
26.440        27
26.450        33
26.460        33
26.470        20
26.480        13
26.490        20
26.500        33
26.510        60
26.520        40
26.530        33
26.540        53
26.550        27
26.560        13
26.570        47
26.580        47
26.590        53
26.600        33
26.610        13
26.620        33
26.630        47
26.640        20
26.650        47
26.660        20
26.670        20
26.680        40
26.690         7
26.700        33
26.710        53
26.720        47
26.730        67
26.740        60
26.750        60
26.760        40
26.770        13
26.780        60
26.790        53
26.800        20
26.810        47
26.820        33
26.830        27
26.840        27
26.850        27
26.860        27
26.870        40
26.880        40
26.890        27
26.900        33
26.910        20
26.920        20
26.930        33
26.940        33
26.950        13
26.960        33
26.970        47
26.980         7
26.990        20
27.000        20
27.010        20
27.020        13
27.030        47
27.040        33
27.050        33
27.060        40
27.070        27
27.080        27
27.090        13
27.100        27
27.110        53
27.120        53
27.130        40
27.140        67
27.150        40
27.160        40
27.170        40
27.180        27
27.190        20
27.200        47
27.210        40
27.220        20
27.230        60
27.240        40
27.250        53
27.260        40
27.270        13
27.280        13
27.290        20
27.300        33
27.310        33
27.320        40
27.330        20
27.340        27
27.350        20
27.360        40
27.370        40
27.380        53
27.390        60
27.400        40
27.410        67
27.420        27
27.430        40
27.440         0
27.450        47
27.460        33
27.470        40
27.480        40
27.490        13
27.500        40
27.510        33
27.520        40
27.530        20
27.540        20
27.550        33
27.560        20
27.570        40
27.580        20
27.590        20
27.600        27
27.610        40
27.620        27
27.630        53
27.640        47
27.650        27
27.660        27
27.670        27
27.680        20
27.690        20
27.700        33
27.710        33
27.720        33
27.730        13
27.740        40
27.750        33
27.760        47
27.770        33
27.780        33
27.790        40
27.800        20
27.810        20
27.820        40
27.830        40
27.840        40
27.850        67
27.860        53
27.870        33
27.880        20
27.890        27
27.900        27
27.910        53
27.920        27
27.930        13
27.940        40
27.950        20
27.960        47
27.970        33
27.980        33
27.990        40
28.000        27
28.010        27
28.020        33
28.030        40
28.040        27
28.050        27
28.060        47
28.070        27
28.080        27
28.090        40
28.100        47
28.110        47
28.120        27
28.130        47
28.140        40
28.150        40
28.160        20
28.170        27
28.180        13
28.190        33
28.200        27
28.210        40
28.220        13
28.230        27
28.240        27
28.250        33
28.260        53
28.270         7
28.280        40
28.290        33
28.300        27
28.310        27
28.320        20
28.330        20
28.340        60
28.350        20
28.360        13
28.370        60
28.380        60
28.390        20
28.400        33
28.410        27
28.420        27
28.430        40
28.440        13
28.450        67
28.460        60
28.470        27
28.480        20
28.490        60
28.500        40
28.510        27
28.520        13
28.530        20
28.540        27
28.550        53
28.560        40
28.570        27
28.580         0
28.590         7
28.600        33
28.610        33
28.620        33
28.630        47
28.640        47
28.650        33
28.660        13
28.670        33
28.680        33
28.690        33
28.700        20
28.710        13
28.720        40
28.730        33
28.740        47
28.750        20
28.760        20
28.770        27
28.780        20
28.790        20
28.800        60
28.810        80
28.820       100
28.830        13
28.840        20
28.850        47
28.860        40
28.870         7
28.880         7
28.890        60
28.900        33
28.910        53
28.920        53
28.930        40
28.940        33
28.950        27
28.960        20
28.970        27
28.980        40
28.990        27
29.000        73
29.010        53
29.020        40
29.030        20
29.040        53
29.050        33
29.060        27
29.070        47
29.080        33
29.090        33
29.100        20
29.110        20
29.120        27
29.130        40
29.140        33
29.150        40
29.160        27
29.170        27
29.180         7
29.190        40
29.200        20
29.210         7
29.220        53
29.230        53
29.240        13
29.250        40
29.260        33
29.270        13
29.280        67
29.290        27
29.300        20
29.310        27
29.320        40
29.330        33
29.340        13
29.350        47
29.360        40
29.370        13
29.380        33
29.390        33
29.400        47
29.410        33
29.420        47
29.430        33
29.440        27
29.450        20
29.460        67
29.470        13
29.480        60
29.490        53
29.500        40
29.510        27
29.520        33
29.530        20
29.540        13
29.550        40
29.560        27
29.570        13
29.580        13
29.590        40
29.600        33
29.610        20
29.620        27
29.630        40
29.640        13
29.650        27
29.660        20
29.670        33
29.680        47
29.690        13
29.700        67
29.710        20
29.720        47
29.730        20
29.740        33
29.750        33
29.760        40
29.770        20
29.780        40
29.790        33
29.800        20
29.810         7
29.820        33
29.830        33
29.840        47
29.850        53
29.860        33
29.870        67
29.880        33
29.890        27
29.900        47
29.910        20
29.920        20
29.930        40
29.940        47
29.950        33
29.960        13
29.970        53
29.980        33
29.990        47
30.000        20
30.010        27
30.020        27
30.030        27
30.040        47
30.050        13
30.060        27
30.070        27
30.080        27
30.090         7
30.100        13
30.110        53
30.120        27
30.130        33
30.140        27
30.150        13
30.160        13
30.170        40
30.180        20
30.190        27
30.200        27
30.210        33
30.220        27
30.230        33
30.240        20
30.250        27
30.260        40
30.270        20
30.280        33
30.290        27
30.300         7
30.310        20
30.320        20
30.330        40
30.340        67
30.350        40
30.360        20
30.370        47
30.380        40
30.390        13
30.400        13
30.410        40
30.420        33
30.430        20
30.440        27
30.450        27
30.460        40
30.470        20
30.480        20
30.490        67
30.500        53
30.510        53
30.520        27
30.530        13
30.540        40
30.550        33
30.560        13
30.570        13
30.580        33
30.590        33
30.600        27
30.610        33
30.620        20
30.630        33
30.640        33
30.650        20
30.660        27
30.670        47
30.680        40
30.690        20
30.700        40
30.710        27
30.720        33
30.730        47
30.740        33
30.750        33
30.760        40
30.770        33
30.780        27
30.790        20
30.800        40
30.810        20
30.820         7
30.830        13
30.840        33
30.850        47
30.860        33
30.870        27
30.880        40
30.890        47
30.900        27
30.910        27
30.920        60
30.930        13
30.940        33
30.950        53
30.960        20
30.970        47
30.980        27
30.990        33
31.000        33
31.010        20
31.020        27
31.030        13
31.040        47
31.050        20
31.060        67
31.070        33
31.080        27
31.090        27
31.100        40
31.110        27
31.120        60
31.130        67
31.140        13
31.150        40
31.160        27
31.170        13
31.180        40
31.190        20
31.200        40
31.210        40
31.220        47
31.230        20
31.240        13
31.250        53
31.260        33
31.270        40
31.280        33
31.290        53
31.300        53
31.310        33
31.320        53
31.330        33
31.340        47
31.350        67
31.360        53
31.370        53
31.380        60
31.390        73
31.400        80
31.410         7
31.420        53
31.430        40
31.440        60
31.450        47
31.460        47
31.470        67
31.480        60
31.490       100
31.500        73
31.510        47
31.520        60
31.530        47
31.540        87
31.550        40
31.560        33
31.570        67
31.580        60
31.590        87
31.600        60
31.610        67
31.620       113
31.630        67
31.640        67
31.650        87
31.660        93
31.670        93
31.680       107
31.690       133
31.700       107
31.710       107
31.720       113
31.730        93
31.740       107
31.750       113
31.760       140
31.770       153
31.780       167
31.790        93
31.800       127
31.810       173
31.820       100
31.830       187
31.840       207
31.850       120
31.860       160
31.870       187
31.880       260
31.890       160
31.900       267
31.910       240
31.920       267
31.930       227
31.940       187
31.950       420
31.960       327
31.970       260
31.980       387
31.990       327
32.000       353
32.010       380
32.020       400
32.030       380
32.040       393
32.050       513
32.060       440
32.070       420
32.080       513
32.090       553
32.100       453
32.110       506
32.120       593
32.130       533
32.140       560
32.150       586
32.160       586
32.170       466
32.180       493
32.190       593
32.200       533
32.210       593
32.220       673
32.230       646
32.240       500
32.250       626
32.260       466
32.270       506
32.280       553
32.290       646
32.300       660
32.310       546
32.320       573
32.330       506
32.340       460
32.350       440
32.360       407
32.370       440
32.380       473
32.390       440
32.400       480
32.410       440
32.420       380
32.430       373
32.440       293
32.450       393
32.460       333
32.470       380
32.480       300
32.490       333
32.500       307
32.510       247
32.520       267
32.530       233
32.540       260
32.550       267
32.560       193
32.570       273
32.580       227
32.590       180
32.600       213
32.610       160
32.620       200
32.630       220
32.640       167
32.650       160
32.660       160
32.670       167
32.680       133
32.690       127
32.700       227
32.710       133
32.720        87
32.730       180
32.740        87
32.750       120
32.760        93
32.770       100
32.780        93
32.790       100
32.800       107
32.810       100
32.820       113
32.830        73
32.840        47
32.850        67
32.860        60
32.870       100
32.880       127
32.890        67
32.900        27
32.910        60
32.920        67
32.930        60
32.940        73
32.950        80
32.960        60
32.970        73
32.980        80
32.990        80
33.000        73
33.010        60
33.020        67
33.030        73
33.040        40
33.050        47
33.060        80
33.070        40
33.080        87
33.090        60
33.100        87
33.110        33
33.120        73
33.130        47
33.140        80
33.150        60
33.160        60
33.170        73
33.180        33
33.190        73
33.200        33
33.210        47
33.220        33
33.230        73
33.240        73
33.250        27
33.260        40
33.270        53
33.280        60
33.290        27
33.300        53
33.310        53
33.320        13
33.330        33
33.340        53
33.350        33
33.360        53
33.370        20
33.380        40
33.390        67
33.400        40
33.410        73
33.420        33
33.430        27
33.440        53
33.450        33
33.460        53
33.470        60
33.480        60
33.490        33
33.500        53
33.510        33
33.520        47
33.530        33
33.540        33
33.550        33
33.560        60
33.570        20
33.580        47
33.590        33
33.600        13
33.610        60
33.620        33
33.630        33
33.640        13
33.650        60
33.660        40
33.670        27
33.680        40
33.690        27
33.700        47
33.710        40
33.720        40
33.730        40
33.740        20
33.750        40
33.760        40
33.770        20
33.780        47
33.790        53
33.800        27
33.810        53
33.820        27
33.830         7
33.840        27
33.850        40
33.860        33
33.870        13
33.880        47
33.890        40
33.900        40
33.910        53
33.920        20
33.930        27
33.940        73
33.950        47
33.960        27
33.970        40
33.980        13
33.990        40
34.000        27
34.010        27
34.020        33
34.030        27
34.040        40
34.050        67
34.060        27
34.070        20
34.080        33
34.090        60
34.100        27
34.110        27
34.120        20
34.130        20
34.140        73
34.150        13
34.160        33
34.170        33
34.180        40
34.190        33
34.200        33
34.210        20
34.220        40
34.230         7
34.240        60
34.250        27
34.260        27
34.270        33
34.280        67
34.290        47
34.300        13
34.310        47
34.320        20
34.330        47
34.340        40
34.350        27
34.360        20
34.370        13
34.380        60
34.390        13
34.400        47
34.410        53
34.420        13
34.430        47
34.440        33
34.450        27
34.460        13
34.470        20
34.480        13
34.490        20
34.500        13
34.510        27
34.520        33
34.530        33
34.540        27
34.550        33
34.560        20
34.570        47
34.580        27
34.590        27
34.600        73
34.610        13
34.620        40
34.630        27
34.640        47
34.650        33
34.660        27
34.670        33
34.680        13
34.690        20
34.700        13
34.710        13
34.720        40
34.730        20
34.740        33
34.750        40
34.760        33
34.770        40
34.780        20
34.790        27
34.800        53
34.810        47
34.820         7
34.830        53
34.840        27
34.850        33
34.860        33
34.870        53
34.880        40
34.890        67
34.900        80
34.910        47
34.920        40
34.930        73
34.940        67
34.950        53
34.960       120
34.970        87
34.980       100
34.990        80
35.000        73
35.010        93
35.020        87
35.030       120
35.040       140
35.050       220
35.060       387
35.070       433
35.080       407
35.090       420
35.100       486
35.110       473
35.120       506
35.130       420
35.140       626
35.150       593
35.160       613
35.170       886
35.180       786
35.190       773
35.200       666
35.210       433
35.220       413
35.230       340
35.240       300
35.250       233
35.260       287
35.270       307
35.280       347
35.290       260
35.300       167
35.310       127
35.320        73
35.330        60
35.340        93
35.350        53
35.360        80
35.370        20
35.380        27
35.390        40
35.400        27
35.410        20
35.420        27
35.430        33
35.440         7
35.450        53
35.460        47
35.470        33
35.480        27
35.490        53
35.500        40
35.510        20
35.520        40
35.530        20
35.540        33
35.550        13
35.560        40
35.570        33
35.580         7
35.590        27
35.600         7
35.610        60
35.620         7
35.630        40
35.640        27
35.650        27
35.660        47
35.670        33
35.680        33
35.690        13
35.700        20
35.710        27
35.720        20
35.730        20
35.740        20
35.750        33
35.760        40
35.770        33
35.780        27
35.790        20
35.800        53
35.810        53
35.820        40
35.830        27
35.840        40
35.850        33
35.860         7
35.870        27
35.880         0
35.890        13
35.900        33
35.910        27
35.920        47
35.930        13
35.940        27
35.950        33
35.960        53
35.970        27
35.980        40
35.990        13
36.000        33
36.010        40
36.020        20
36.030        13
36.040        27
36.050        33
36.060        33
36.070        27
36.080        67
36.090        20
36.100         7
36.110        33
36.120        40
36.130        33
36.140        27
36.150         7
36.160        13
36.170        40
36.180         7
36.190        20
36.200        60
36.210        20
36.220        33
36.230        20
36.240         7
36.250        13
36.260        27
36.270         7
36.280        27
36.290        40
36.300        40
36.310        27
36.320        60
36.330         0
36.340        47
36.350        40
36.360         7
36.370        27
36.380        40
36.390        27
36.400        33
36.410         7
36.420        33
36.430        67
36.440         7
36.450        53
36.460        20
36.470        33
36.480        20
36.490        13
36.500        20
36.510        27
36.520        13
36.530        27
36.540        13
36.550        47
36.560        13
36.570        27
36.580         7
36.590        13
36.600         7
36.610        33
36.620        47
36.630        27
36.640        20
36.650        40
36.660        27
36.670        33
36.680        13
36.690        40
36.700        27
36.710        13
36.720        47
36.730        13
36.740        27
36.750        20
36.760        13
36.770        33
36.780        20
36.790         7
36.800        27
36.810        27
36.820        27
36.830        27
36.840        33
36.850        13
36.860        20
36.870        27
36.880        40
36.890        73
36.900        53
36.910        33
36.920        53
36.930        33
36.940        47
36.950        47
36.960        20
36.970        20
36.980        40
36.990        40
37.000        13
37.010        20
37.020        33
37.030        20
37.040         0
37.050        40
37.060        20
37.070        27
37.080        27
37.090        13
37.100        13
37.110        27
37.120        20
37.130         0
37.140         7
37.150        20
37.160        33
37.170        13
37.180        20
37.190         0
37.200        40
37.210        60
37.220        20
37.230        27
37.240        73
37.250        33
37.260        33
37.270        13
37.280        13
37.290        47
37.300         7
37.310         7
37.320        40
37.330        33
37.340        33
37.350        13
37.360        20
37.370        13
37.380        40
37.390        27
37.400        20
37.410        13
37.420         7
37.430        27
37.440        20
37.450        20
37.460        27
37.470        40
37.480        27
37.490        27
37.500        27
37.510        33
37.520        13
37.530        33
37.540        33
37.550        13
37.560        60
37.570        33
37.580        27
37.590        27
37.600        33
37.610        20
37.620        20
37.630        40
37.640        53
37.650        13
37.660        33
37.670        40
37.680        13
37.690        53
37.700        20
37.710        33
37.720        33
37.730        53
37.740        73
37.750        67
37.760        67
37.770        87
37.780       140
37.790       120
37.800       147
37.810       147
37.820        73
37.830        80
37.840        40
37.850        20
37.860        53
37.870       100
37.880        60
37.890        67
37.900        53
37.910        80
37.920        47
37.930        40
37.940        40
37.950        47
37.960        40
37.970        13
37.980        47
37.990        13
38.000        33
38.010        20
38.020        33
38.030         7
38.040        33
38.050        20
38.060        40
38.070        40
38.080        33
38.090        20
38.100        40
38.110        40
38.120        20
38.130        13
38.140        33
38.150        33
38.160        20
38.170        13
38.180        20
38.190        27
38.200        27
38.210        13
38.220        27
38.230        20
38.240         0
38.250        33
38.260         7
38.270        20
38.280        20
38.290        13
38.300        20
38.310         7
38.320        33
38.330        20
38.340        20
38.350        13
38.360        13
38.370        27
38.380        13
38.390        47
38.400        60
38.410        33
38.420        20
38.430         0
38.440        27
38.450        27
38.460        27
38.470        47
38.480        20
38.490        27
38.500        13
38.510        33
38.520         7
38.530        27
38.540        33
38.550        27
38.560        40
38.570        40
38.580        20
38.590        20
38.600        33
38.610        33
38.620        33
38.630        20
38.640        13
38.650        20
38.660        13
38.670         7
38.680        20
38.690        13
38.700        33
38.710         7
38.720        13
38.730        13
38.740        27
38.750        13
38.760         7
38.770        33
38.780        13
38.790        20
38.800        13
38.810         7
38.820        27
38.830        20
38.840        20
38.850         7
38.860        20
38.870        20
38.880         0
38.890         7
38.900         7
38.910        27
38.920         7
38.930        13
38.940        20
38.950        20
38.960        13
38.970        33
38.980        33
38.990        47
39.000        13
39.010        20
39.020        33
39.030        27
39.040        20
39.050        40
39.060        20
39.070        27
39.080        13
39.090        20
39.100        27
39.110        20
39.120        27
39.130         7
39.140        53
39.150        27
39.160        20
39.170        13
39.180        27
39.190        27
39.200        20
39.210        13
39.220        27
39.230        40
39.240        53
39.250        27
39.260        20
39.270        20
39.280        27
39.290        20
39.300        40
39.310        13
39.320        20
39.330         7
39.340        27
39.350        13
39.360         0
39.370        27
39.380        20
39.390        60
39.400        67
39.410         0
39.420        27
39.430         0
39.440        33
39.450        13
39.460        20
39.470        20
39.480        27
39.490        40
39.500         7
39.510        33
39.520        40
39.530        40
39.540        33
39.550        33
39.560        13
39.570        13
39.580        27
39.590        27
39.600        27
39.610        53
39.620        53
39.630        13
39.640        33
39.650         7
39.660        27
39.670        27
39.680        13
39.690        27
39.700        20
39.710        13
39.720        53
39.730        13
39.740        33
39.750        20
39.760        53
39.770         0
39.780        73
39.790        13
39.800        33
39.810        40
39.820        13
39.830        60
39.840        13
39.850        67
39.860        27
39.870        20
39.880        20
39.890        13
39.900        20
39.910        27
39.920        53
39.930        20
39.940        47
39.950        20
39.960        20
39.970        13
39.980        73
39.990        20
40.000        13
40.010        53
40.020        33
40.030        40
40.040        40
40.050        20
40.060        27
40.070        33
40.080        27
40.090        47
40.100        33
40.110        27
40.120        27
40.130        33
40.140        27
40.150        13
40.160        27
40.170         7
40.180        33
40.190        20
40.200        27
40.210        40
40.220        33
40.230        53
40.240         0
40.250        27
40.260        13
40.270        27
40.280        13
40.290        40
40.300        27
40.310        27
40.320        20
40.330        20
40.340        40
40.350        20
40.360        13
40.370        13
40.380        27
40.390        27
40.400        13
40.410        13
40.420        20
40.430        27
40.440        13
40.450         7
40.460        20
40.470        33
40.480        33
40.490         7
40.500        60
40.510        40
40.520        47
40.530        20
40.540        13
40.550         0
40.560        13
40.570        33
40.580        20
40.590         7
40.600         7
40.610        13
40.620        13
40.630        33
40.640        20
40.650        40
40.660        20
40.670        13
40.680        20
40.690         7
40.700        13
40.710        13
40.720        13
40.730        20
40.740        20
40.750        20
40.760         7
40.770        33
40.780        27
40.790        20
40.800        20
40.810         7
40.820        27
40.830        27
40.840        27
40.850         7
40.860        13
40.870        13
40.880        47
40.890        27
40.900        33
40.910        33
40.920        13
40.930        20
40.940        27
40.950        33
40.960        27
40.970        20
40.980        27
40.990        27
41.000        20
41.010        40
41.020        53
41.030        27
41.040        20
41.050        20
41.060        33
41.070        33
41.080        20
41.090        13
41.100        20
41.110        20
41.120        13
41.130        47
41.140        27
41.150         7
41.160        13
41.170        20
41.180        33
41.190        27
41.200        47
41.210        27
41.220        20
41.230        40
41.240        33
41.250        13
41.260        33
41.270         7
41.280        33
41.290        13
41.300        13
41.310        20
41.320        33
41.330        13
41.340        47
41.350        40
41.360        13
41.370         0
41.380        13
41.390        27
41.400        20
41.410        27
41.420        20
41.430        53
41.440        20
41.450        40
41.460        13
41.470        13
41.480        60
41.490        60
41.500        20
41.510        27
41.520        47
41.530        27
41.540        20
41.550        33
41.560        27
41.570        40
41.580        20
41.590        60
41.600        47
41.610        53
41.620        53
41.630        53
41.640        33
41.650        67
41.660        80
41.670        87
41.680       153
41.690       107
41.700       167
41.710       173
41.720       127
41.730       107
41.740       133
41.750        93
41.760        67
41.770       100
41.780        80
41.790        80
41.800       107
41.810       140
41.820       107
41.830        33
41.840       107
41.850        47
41.860        40
41.870        13
41.880        40
41.890        40
41.900        20
41.910        27
41.920         7
41.930        27
41.940        13
41.950        27
41.960        33
41.970        13
41.980        33
41.990        20
42.000         7
42.010        13
42.020        33
42.030        13
42.040        33
42.050        20
42.060        27
42.070        27
42.080         7
42.090        33
42.100         7
42.110         7
42.120         0
42.130        20
42.140        20
42.150        20
42.160         7
42.170        20
42.180         7
42.190        20
42.200        33
42.210        13
42.220        27
42.230        47
42.240        20
42.250        33
42.260        13
42.270        13
42.280        20
42.290        33
42.300        40
42.310        13
42.320        20
42.330         7
42.340        20
42.350         7
42.360        20
42.370        40
42.380        20
42.390        33
42.400        33
42.410        13
42.420         0
42.430        20
42.440        13
42.450        13
42.460        27
42.470        20
42.480        27
42.490        47
42.500        33
42.510         0
42.520        40
42.530        27
42.540        47
42.550        20
42.560        27
42.570        40
42.580        27
42.590         7
42.600        20
42.610         7
42.620        20
42.630        27
42.640        13
42.650        33
42.660        47
42.670         7
42.680        13
42.690        20
42.700        13
42.710        40
42.720        27
42.730        47
42.740        40
42.750        20
42.760        13
42.770        13
42.780        13
42.790        13
42.800         7
42.810        40
42.820        20
42.830         0
42.840        20
42.850        13
42.860        20
42.870        13
42.880        27
42.890        20
42.900        20
42.910         7
42.920         0
42.930        33
42.940        27
42.950        13
42.960         7
42.970        13
42.980         7
42.990         7
43.000         7
43.010        33
43.020        20
43.030        40
43.040        27
43.050        27
43.060        27
43.070        20
43.080        20
43.090        33
43.100        40
43.110        20
43.120        33
43.130        20
43.140        47
43.150        47
43.160        33
43.170        47
43.180        20
43.190        27
43.200        47
43.210        40
43.220        60
43.230        40
43.240        53
43.250        47
43.260        53
43.270        33
43.280        20
43.290        40
43.300        47
43.310        60
43.320        87
43.330       160
43.340       147
43.350       227
43.360       247
43.370       260
43.380       340
43.390       373
43.400       340
43.410       347
43.420       280
43.430       200
43.440       180
43.450       180
43.460       187
43.470       153
43.480       100
43.490       207
43.500       187
43.510       253
43.520       207
43.530       187
43.540        80
43.550       153
43.560        40
43.570        33
43.580        47
43.590        47
43.600        40
43.610        33
43.620        33
43.630        20
43.640        20
43.650        33
43.660        40
43.670         0
43.680        20
43.690         7
43.700        13
43.710        27
43.720        20
43.730        27
43.740        33
43.750         7
43.760        20
43.770        20
43.780        40
43.790        20
43.800         7
43.810        27
43.820        27
43.830         7
43.840        27
43.850        27
43.860        20
43.870        20
43.880        33
43.890        27
43.900         7
43.910        20
43.920        20
43.930        13
43.940        13
43.950        27
43.960        33
43.970        20
43.980        40
43.990         7
44.000         7
44.010        13
44.020        13
44.030        27
44.040        53
44.050        13
44.060        20
44.070        13
44.080        40
44.090        20
44.100        27
44.110        27
44.120        13
44.130        13
44.140        33
44.150         0
44.160        20
44.170        33
44.180        33
44.190        33
44.200        33
44.210        20
44.220        20
44.230        33
44.240        13
44.250        27
44.260         0
44.270        20
44.280        27
44.290        40
44.300        20
44.310        27
44.320        20
44.330        27
44.340        20
44.350        20
44.360        33
44.370        13
44.380        20
44.390        20
44.400        27
44.410         7
44.420        33
44.430        20
44.440        40
44.450        27
44.460        27
44.470        27
44.480        33
44.490         7
44.500        13
44.510        27
44.520        27
44.530         7
44.540        33
44.550        40
44.560        33
44.570        13
44.580        27
44.590        13
44.600         7
44.610        27
44.620        40
44.630         7
44.640         7
44.650        20
44.660        33
44.670        20
44.680         7
44.690         7
44.700        67
44.710        20
44.720        33
44.730        13
44.740        20
44.750        13
44.760        13
44.770        40
44.780        27
44.790        13
44.800        20
44.810        53
44.820        33
44.830        33
44.840        27
44.850        20
44.860        13
44.870        33
44.880        27
44.890        33
44.900        13
44.910        27
44.920        33
44.930        40
44.940        20
44.950        13
44.960         0
44.970        33
44.980        13
44.990        40
45.000        47
45.010        13
45.020        40
45.030        33
45.040        33
45.050        20
45.060        13
45.070        13
45.080        47
45.090        13
45.100        27
45.110        33
45.120         0
45.130        27
45.140         0
45.150        33
45.160        53
45.170        27
45.180        40
45.190        53
45.200        27
45.210        13
45.220        40
45.230        13
45.240        27
45.250        47
45.260        20
45.270        53
45.280        47
45.290        40
45.300        33
45.310        53
45.320        40
45.330        33
45.340        33
45.350        53
45.360        33
45.370        33
45.380        47
45.390        40
45.400        33
45.410        33
45.420        73
45.430        20
45.440        73
45.450        53
45.460        60
45.470        33
45.480        73
45.490        53
45.500        87
45.510        33
45.520        13
45.530        73
45.540       107
45.550        93
45.560        53
45.570        60
45.580        40
45.590        47
45.600       120
45.610        87
45.620        93
45.630        47
45.640        80
45.650       133
45.660        53
45.670        73
45.680       120
45.690       127
45.700        80
45.710       133
45.720       113
45.730       140
45.740       160
45.750        60
45.760       127
45.770       160
45.780       133
45.790       120
45.800       107
45.810       127
45.820       193
45.830       133
45.840       173
45.850       193
45.860        93
45.870       100
45.880       140
45.890       180
45.900       127
45.910       147
45.920       200
45.930       167
45.940       193
45.950       107
45.960       173
45.970       187
45.980       187
45.990       233
46.000       213
46.010       193
46.020       193
46.030       180
46.040       160
46.050       240
46.060       193
46.070       213
46.080       180
46.090       167
46.100       233
46.110       187
46.120       220
46.130       127
46.140       220
46.150       180
46.160       193
46.170       120
46.180       193
46.190       153
46.200       187
46.210       213
46.220       200
46.230       213
46.240       173
46.250       213
46.260       127
46.270       247
46.280       180
46.290       173
46.300       173
46.310       120
46.320       200
46.330       173
46.340       213
46.350       187
46.360       100
46.370       107
46.380       160
46.390       133
46.400       167
46.410       140
46.420       113
46.430       200
46.440       107
46.450       100
46.460       147
46.470       173
46.480       120
46.490       140
46.500       113
46.510       147
46.520        80
46.530       133
46.540       107
46.550       147
46.560       100
46.570       140
46.580        80
46.590       147
46.600       107
46.610        67
46.620        80
46.630        73
46.640       120
46.650        93
46.660        93
46.670        73
46.680        87
46.690        67
46.700        87
46.710        33
46.720        53
46.730       107
46.740        47
46.750        67
46.760        60
46.770        27
46.780        67
46.790        40
46.800        53
46.810        67
46.820        33
46.830        60
46.840        40
46.850        40
46.860        20
46.870        47
46.880        47
46.890        47
46.900        67
46.910        53
46.920        40
46.930        53
46.940        40
46.950         7
46.960        53
46.970        33
46.980        53
46.990        33
47.000        53
47.010        13
47.020        53
47.030        40
47.040        47
47.050        40
47.060        27
47.070        33
47.080        20
47.090        13
47.100        13
47.110        27
47.120        27
47.130        33
47.140        13
47.150        20
47.160        20
47.170        47
47.180        13
47.190        33
47.200        20
47.210        20
47.220        20
47.230        13
47.240        13
47.250        33
47.260        13
47.270         7
47.280        33
47.290        27
47.300         7
47.310        27
47.320        20
47.330        20
47.340        13
47.350        40
47.360        33
47.370        20
47.380        40
47.390        27
47.400        33
47.410         0
47.420        60
47.430        60
47.440        27
47.450        40
47.460        27
47.470        13
47.480         7
47.490        20
47.500         0
47.510        20
47.520        20
47.530        40
47.540        47
47.550        13
47.560        20
47.570         0
47.580        13
47.590        27
47.600        13
47.610        40
47.620        20
47.630        20
47.640        13
47.650         7
47.660        20
47.670         7
47.680        20
47.690        33
47.700         7
47.710        20
47.720        13
47.730        27
47.740        27
47.750         0
47.760        13
47.770        20
47.780         7
47.790        27
47.800        13
47.810         0
47.820        20
47.830         0
47.840        27
47.850        27
47.860        20
47.870        27
47.880         7
47.890        13
47.900         7
47.910        27
47.920        20
47.930        20
47.940        20
47.950        13
47.960        40
47.970        40
47.980         7
47.990        27
48.000        13
48.010        33
48.020        13
48.030        13
48.040        33
48.050        40
48.060        13
48.070        20
48.080        40
48.090        27
48.100         0
48.110         7
48.120        20
48.130        27
48.140        33
48.150        20
48.160        13
48.170         7
48.180        20
48.190        33
48.200        13
48.210        47
48.220        20
48.230        20
48.240         0
48.250        20
48.260        27
48.270        20
48.280         7
48.290        13
48.300        13
48.310        20
48.320        27
48.330        27
48.340         7
48.350         0
48.360        33
48.370        27
48.380         7
48.390        13
48.400        20
48.410        20
48.420         7
48.430        47
48.440        27
48.450        27
48.460        27
48.470        33
48.480        40
48.490        20
48.500        20
48.510         7
48.520        20
48.530         7
48.540         7
48.550        27
48.560        20
48.570         0
48.580        33
48.590         7
48.600        20
48.610        27
48.620        20
48.630        13
48.640        40
48.650        13
48.660        27
48.670        33
48.680        20
48.690         7
48.700        20
48.710        13
48.720        40
48.730        20
48.740        20
48.750         0
48.760         7
48.770        13
48.780        27
48.790        27
48.800        13
48.810         0
48.820        13
48.830         7
48.840        13
48.850        20
48.860        13
48.870        47
48.880        13
48.890         7
48.900         7
48.910        27
48.920        27
48.930        20
48.940        20
48.950         7
48.960         7
48.970        27
48.980         7
48.990        33
49.000        13
49.010         7
49.020        13
49.030         7
49.040         0
49.050        33
49.060        20
49.070        47
49.080        13
49.090         0
49.100        27
49.110         0
49.120        13
49.130         7
49.140        33
49.150        27
49.160        20
49.170         7
49.180         7
49.190        20
49.200        20
49.210         0
49.220        13
49.230        27
49.240        27
49.250         7
49.260        13
49.270        27
49.280        20
49.290        33
49.300        20
49.310         7
49.320        20
49.330        13
49.340        13
49.350        27
49.360         7
49.370        20
49.380        20
49.390        20
49.400        13
49.410        33
49.420         7
49.430        27
49.440        20
49.450        13
49.460        20
49.470         7
49.480        20
49.490        27
49.500         7
49.510         0
49.520        13
49.530        20
49.540        27
49.550         0
49.560         0
49.570        13
49.580        20
49.590        20
49.600         7
49.610        13
49.620        13
49.630        27
49.640        13
49.650        27
49.660        33
49.670         0
49.680        40
49.690        13
49.700        20
49.710         7
49.720        20
49.730        47
49.740        20
49.750        20
49.760        13
49.770        27
49.780         0
49.790         7
49.800        33
49.810        33
49.820        13
49.830        13
49.840        20
49.850        40
49.860        13
49.870        13
49.880        20
49.890        33
49.900        33
49.910        20
49.920        27
49.930        20
49.940        13
49.950         7
49.960        27
49.970        20
49.980        13
49.990        20
50.000         7
50.010         7
50.020        13
50.030        13
50.040        20
50.050        13
50.060        13
50.070         7
50.080         7
50.090        13
50.100         7
50.110        20
50.120        27
50.130        20
50.140        27
50.150        20
50.160        27
50.170        20
50.180        13
50.190        13
50.200        27
50.210        13
50.220        27
50.230        27
50.240        20
50.250        27
50.260         7
50.270        27
50.280        27
50.290        13
50.300        33
50.310        33
50.320        20
50.330        20
50.340        13
50.350        27
50.360        20
50.370        13
50.380        40
50.390        27
50.400        20
50.410         7
50.420        33
50.430        40
50.440        33
50.450        33
50.460        33
50.470        27
50.480        13
50.490        27
50.500         0
50.510         7
50.520        27
50.530        13
50.540        20
50.550        20
50.560        20
50.570        20
50.580         7
50.590         7
50.600        13
50.610        47
50.620        20
50.630        27
50.640        13
50.650        13
50.660         7
50.670        13
50.680         0
50.690         7
50.700        20
50.710         0
50.720        13
50.730         7
50.740         7
50.750        27
50.760         7
50.770         7
50.780         7
50.790        13
50.800        40
50.810         0
50.820        33
50.830        27
50.840         7
50.850        20
50.860         7
50.870         0
50.880        33
50.890        27
50.900        40
50.910         0
50.920        20
50.930        13
50.940        20
50.950        53
50.960        33
50.970        33
50.980         0
50.990        33
51.000        27
51.010        13
51.020        13
51.030         0
51.040         0
51.050        20
51.060        13
51.070        20
51.080        20
51.090        20
51.100        20
51.110        27
51.120        13
51.130        13
51.140         7
51.150         7
51.160         0
51.170        27
51.180         0
51.190        20
51.200        33
51.210         7
51.220        20
51.230        20
51.240         7
51.250        13
51.260        27
51.270         7
51.280        20
51.290        20
51.300        27
51.310        33
51.320         7
51.330         7
51.340        20
51.350         7
51.360        20
51.370        20
51.380         7
51.390        27
51.400        27
51.410        20
51.420        20
51.430        20
51.440         0
51.450         7
51.460        20
51.470        27
51.480         7
51.490        20
51.500        27
51.510        20
51.520        13
51.530        20
51.540        20
51.550         0
51.560        40
51.570        27
51.580        20
51.590        20
51.600        13
51.610        27
51.620         0
51.630        20
51.640        47
51.650        13
51.660         7
51.670        20
51.680        27
51.690         7
51.700        13
51.710        13
51.720        20
51.730        13
51.740        20
51.750        13
51.760         7
51.770         7
51.780        13
51.790         0
51.800        13
51.810        27
51.820        27
51.830         0
51.840        27
51.850         7
51.860        13
51.870        20
51.880        13
51.890        20
51.900        13
51.910         7
51.920        20
51.930        13
51.940        13
51.950        20
51.960        27
51.970        27
51.980         7
51.990         7
52.000        13
52.010        13
52.020        27
52.030        13
52.040        27
52.050         7
52.060         0
52.070        27
52.080        27
52.090        20
52.100        13
52.110        33
52.120         7
52.130        40
52.140        40
52.150        13
52.160         7
52.170        27
52.180        20
52.190        13
52.200         7
52.210        13
52.220        20
52.230        13
52.240         0
52.250        13
52.260        20
52.270        13
52.280        40
52.290        27
52.300        27
52.310        47
52.320        27
52.330         7
52.340        40
52.350        27
52.360        20
52.370        20
52.380        20
52.390        27
52.400        27
52.410        20
52.420        13
52.430        20
52.440        13
52.450        27
52.460         7
52.470        40
52.480        33
52.490        20
52.500        40
52.510        20
52.520        20
52.530        27
52.540        60
52.550        47
52.560        93
52.570        40
52.580        47
52.590        60
52.600        40
52.610        60
52.620        20
52.630         0
52.640        20
52.650        33
52.660        20
52.670        27
52.680        33
52.690        47
52.700        67
52.710        47
52.720        53
52.730        27
52.740        27
52.750        40
52.760        13
52.770        20
52.780         7
52.790        13
52.800        33
52.810        20
52.820        20
52.830         0
52.840        20
52.850        27
52.860        27
52.870        13
52.880        20
52.890        13
52.900        20
52.910         7
52.920        13
52.930        20
52.940         7
52.950         7
52.960        40
52.970         0
52.980         0
52.990         7
53.000         7
53.010        27
53.020         7
53.030        13
53.040        13
53.050        13
53.060         7
53.070         7
53.080        20
53.090        27
53.100        20
53.110        13
53.120        27
53.130        33
53.140        40
53.150         7
53.160        13
53.170        33
53.180         7
53.190        13
53.200        20
53.210        13
53.220         7
53.230         7
53.240        20
53.250        20
53.260        13
53.270        20
53.280        13
53.290         7
53.300        27
53.310        13
53.320        20
53.330        20
53.340        20
53.350        33
53.360         7
53.370        20
53.380        13
53.390        13
53.400        20
53.410        20
53.420        13
53.430         7
53.440         0
53.450        13
53.460         7
53.470        27
53.480        13
53.490        13
53.500         0
53.510        13
53.520         0
53.530        13
53.540        33
53.550        33
53.560        20
53.570        33
53.580        13
53.590        13
53.600        20
53.610        13
53.620         7
53.630        33
53.640        20
53.650         7
53.660        20
53.670        13
53.680        20
53.690        13
53.700        27
53.710         0
53.720        13
53.730        20
53.740        20
53.750         0
53.760        27
53.770         7
53.780        20
53.790        20
53.800         7
53.810        13
53.820        27
53.830        13
53.840         0
53.850        13
53.860        20
53.870        27
53.880        13
53.890        13
53.900        20
53.910         7
53.920        13
53.930        13
53.940         7
53.950        40
53.960        20
53.970         7
53.980        20
53.990         7
54.000        20
54.010         0
54.020         7
54.030         7
54.040         7
54.050         0
54.060        27
54.070        20
54.080        27
54.090         0
54.100        13
54.110        13
54.120         7
54.130         0
54.140        20
54.150        20
54.160         7
54.170        27
54.180         0
54.190         7
54.200        20
54.210         7
54.220        13
54.230        20
54.240         7
54.250        13
54.260        20
54.270        13
54.280         7
54.290        33
54.300         0
54.310        20
54.320        13
54.330         0
54.340         7
54.350        13
54.360        20
54.370         7
54.380        20
54.390        13
54.400        27
54.410        13
54.420         7
54.430        20
54.440        13
54.450        13
54.460         0
54.470         0
54.480        13
54.490        13
54.500         0
54.510        13
54.520        13
54.530         7
54.540         7
54.550         7
54.560         7
54.570         0
54.580        27
54.590         7
54.600        13
54.610        27
54.620         7
54.630        20
54.640         7
54.650         0
54.660         0
54.670         7
54.680        20
54.690         0
54.700        20
54.710        13
54.720         7
54.730        20
54.740        13
54.750        13
54.760        13
54.770        13
54.780        13
54.790         0
54.800        20
54.810        27
54.820        27
54.830         0
54.840        20
54.850        20
54.860        13
54.870        13
54.880        20
54.890        13
54.900        13
54.910         0
54.920        33
54.930        13
54.940         7
54.950         7
54.960        13
54.970        33
54.980        13
54.990         7
55.000        13
55.010        20
55.020         7
55.030         7
55.040         7
55.050         7
55.060         7
55.070         0
55.080        20
55.090         0
55.100         7
55.110         7
55.120        33
55.130        13
55.140         7
55.150         7
55.160        27
55.170        13
55.180         0
55.190         7
55.200        20
55.210        13
55.220        40
55.230         7
55.240        20
55.250         0
55.260        20
55.270         7
55.280         7
55.290        13
55.300        20
55.310        13
55.320         7
55.330         0
55.340        13
55.350        27
55.360        13
55.370        27
55.380         7
55.390        13
55.400         7
55.410        13
55.420        13
55.430        20
55.440         7
55.450        13
55.460         7
55.470        20
55.480         7
55.490         7
55.500        20
55.510         7
55.520        20
55.530         7
55.540         0
55.550        13
55.560        13
55.570         7
55.580         7
55.590        13
55.600        13
55.610         7
55.620        13
55.630        13
55.640        20
55.650         0
55.660        13
55.670        13
55.680        13
55.690        33
55.700         0
55.710         0
55.720        20
55.730        13
55.740        27
55.750        13
55.760        20
55.770         0
55.780         0
55.790        13
55.800        27
55.810        20
55.820        13
55.830        20
55.840        13
55.850        27
55.860        13
55.870        20
55.880        13
55.890        33
55.900        20
55.910        20
55.920        20
55.930        20
55.940         7
55.950         0
55.960        47
55.970        13
55.980        13
55.990         0
56.000        27
56.010         7
56.020         0
56.030        13
56.040         0
56.050        33
56.060        20
56.070        40
56.080         0
56.090         7
56.100        13
56.110        33
56.120         7
56.130        13
56.140        20
56.150         7
56.160        13
56.170         0
56.180         7
56.190        27
56.200        33
56.210         7
56.220         0
56.230        13
56.240        20
56.250        13
56.260         7
56.270        13
56.280         7
56.290         0
56.300        13
56.310        13
56.320        27
56.330        40
56.340        13
56.350         7
56.360        20
56.370        13
56.380        13
56.390        13
56.400         7
56.410        20
56.420        20
56.430        13
56.440        13
56.450         7
56.460         0
56.470        20
56.480        20
56.490        13
56.500        13
56.510         7
56.520         0
56.530         7
56.540        27
56.550        13
56.560        13
56.570        33
56.580        13
56.590        13
56.600         7
56.610         7
56.620        20
56.630         7
56.640         7
56.650         7
56.660         0
56.670        33
56.680        13
56.690        13
56.700        27
56.710         7
56.720         7
56.730         0
56.740        20
56.750        13
56.760        20
56.770        27
56.780         0
56.790        13
56.800        20
56.810         7
56.820        20
56.830        13
56.840        13
56.850         7
56.860        13
56.870         7
56.880         7
56.890         0
56.900         0
56.910        20
56.920        27
56.930        13
56.940        20
56.950        20
56.960         7
56.970        13
56.980        20
56.990        13
57.000        13
57.010         7
57.020        27
57.030        13
57.040         7
57.050        40
57.060        13
57.070         0
57.080        20
57.090        20
57.100         7
57.110        33
57.120         7
57.130        40
57.140        20
57.150        20
57.160        20
57.170        13
57.180         7
57.190        40
57.200        60
57.210        47
57.220        27
57.230        13
57.240         0
57.250        13
57.260        20
57.270        53
57.280        13
57.290        27
57.300        47
57.310        20
57.320        40
57.330        20
57.340        60
57.350        20
57.360        67
57.370        27
57.380        33
57.390        53
57.400        73
57.410       140
57.420       113
57.430       120
57.440       167
57.450       127
57.460       247
57.470       280
57.480       247
57.490       380
57.500       426
57.510       440
57.520       407
57.530       513
57.540       380
57.550       327
57.560       233
57.570       227
57.580       227
57.590       147
57.600       127
57.610       140
57.620       267
57.630       207
57.640       213
57.650       133
57.660       240
57.670       220
57.680       253
57.690       173
57.700       260
57.710       220
57.720       187
57.730        93
57.740       100
57.750        87
57.760        40
57.770        33
57.780        40
57.790        20
57.800        40
57.810        27
57.820        27
57.830        47
57.840        13
57.850        27
57.860        20
57.870        20
57.880        27
57.890         7
57.900        20
57.910        40
57.920        40
57.930        27
57.940         7
57.950         7
57.960        33
57.970        20
57.980        13
57.990         7
58.000        20
58.010        27
58.020        33
58.030        20
58.040        27
58.050        13
58.060        27
58.070        13
58.080        20
58.090         7
58.100        27
58.110         0
58.120         0
58.130         7
58.140         7
58.150        13
58.160        13
58.170        13
58.180        13
58.190         0
58.200         7
58.210        13
58.220        20
58.230         0
58.240        13
58.250        13
58.260        27
58.270        13
58.280        13
58.290         0
58.300        13
58.310         0
58.320        13
58.330         7
58.340         7
58.350        20
58.360        13
58.370        27
58.380        13
58.390        27
58.400        27
58.410        27
58.420         0
58.430         7
58.440         7
58.450         0
58.460        27
58.470        20
58.480        13
58.490         0
58.500        13
58.510        13
58.520        47
58.530         7
58.540         0
58.550        27
58.560        20
58.570        20
58.580         7
58.590         7
58.600         7
58.610         7
58.620        20
58.630         7
58.640         7
58.650        13
58.660         7
58.670        33
58.680        27
58.690        20
58.700        40
58.710        20
58.720        13
58.730        13
58.740        13
58.750        20
58.760        20
58.770        13
58.780        20
58.790        13
58.800        13
58.810        20
58.820         7
58.830         7
58.840        20
58.850        27
58.860        13
58.870         7
58.880        13
58.890        20
58.900         7
58.910        20
58.920        20
58.930         0
58.940         0
58.950        20
58.960        33
58.970        20
58.980         0
58.990         7
59.000        20
59.010        13
59.020        13
59.030         7
59.040         7
59.050         0
59.060        13
59.070        27
59.080         7
59.090        13
59.100         7
59.110        20
59.120         0
59.130         7
59.140         7
59.150         7
59.160         7
59.170        13
59.180        20
59.190        13
59.200         7
59.210         7
59.220        13
59.230        13
59.240        13
59.250        20
59.260         7
59.270         7
59.280        27
59.290        13
59.300         7
59.310         7
59.320        20
59.330        13
59.340        33
59.350        13
59.360        13
59.370        13
59.380        27
59.390         7
59.400         7
59.410        40
59.420         0
59.430        27
59.440         7
59.450         0
59.460         7
59.470        33
59.480        27
59.490         7
59.500        27
59.510        33
59.520         7
59.530         7
59.540         7
59.550        27
59.560        20
59.570        13
59.580        27
59.590         7
59.600         7
59.610         0
59.620         0
59.630        27
59.640         0
59.650        13
59.660         7
59.670        20
59.680         0
59.690        20
59.700        27
59.710        27
59.720        33
59.730        13
59.740         7
59.750        53
59.760        27
59.770        27
59.780        13
59.790        20
59.800        33
59.810         7
59.820        20
59.830        27
59.840        20
59.850        20
59.860        13
59.870        33
59.880        33
59.890        13
59.900         7
59.910        27
59.920        13
59.930         7
59.940         0
59.950         0
59.960        13
59.970        27
59.980        27
59.990        20
60.000        27
