20.000         7
20.010         7
20.020        53
20.030        47
20.040        53
20.050        47
20.060        33
20.070        20
20.080        27
20.090        80
20.100        73
20.110        40
20.120        20
20.130        47
20.140        20
20.150        20
20.160        73
20.170        67
20.180        40
20.190         7
20.200        33
20.210        40
20.220        53
20.230        40
20.240        67
20.250        40
20.260        47
20.270        33
20.280        67
20.290        47
20.300        33
20.310        53
20.320        73
20.330        53
20.340        27
20.350        60
20.360        47
20.370        53
20.380        53
20.390        73
20.400        27
20.410        27
20.420        47
20.430        47
20.440        13
20.450        60
20.460        47
20.470        27
20.480        67
20.490        80
20.500        67
20.510        40
20.520        27
20.530        33
20.540        13
20.550        60
20.560        47
20.570        33
20.580        60
20.590        60
20.600        53
20.610        53
20.620        53
20.630        27
20.640        53
20.650        40
20.660        60
20.670        47
20.680        13
20.690        47
20.700        40
20.710        27
20.720        80
20.730        73
20.740        40
20.750        53
20.760        47
20.770        47
20.780        40
20.790        33
20.800        40
20.810        33
20.820        27
20.830        47
20.840        33
20.850        60
20.860        47
20.870        53
20.880        60
20.890        53
20.900        20
20.910        60
20.920        47
20.930        13
20.940        33
20.950        60
20.960        60
20.970        20
20.980        40
20.990        27
21.000        60
21.010        13
21.020        13
21.030        27
21.040        40
21.050        13
21.060        67
21.070        40
21.080        53
21.090        33
21.100        53
21.110        40
21.120        40
21.130        47
21.140        67
21.150        40
21.160        27
21.170        53
21.180        20
21.190        27
21.200        73
21.210        47
21.220        20
21.230        27
21.240        67
21.250        60
21.260        47
21.270        13
21.280        33
21.290        27
21.300        53
21.310        40
21.320        33
21.330        67
21.340        40
21.350        80
21.360        53
21.370        40
21.380        73
21.390        67
21.400        40
21.410        33
21.420        27
21.430        20
21.440        47
21.450        33
21.460        53
21.470        47
21.480        47
21.490        67
21.500        20
21.510        47
21.520        67
21.530        73
21.540        47
21.550        73
21.560        87
21.570        53
21.580        93
21.590        33
21.600        13
21.610        47
21.620        60
21.630        93
21.640        60
21.650        40
21.660        60
21.670        33
21.680        40
21.690        47
21.700        67
21.710        40
21.720        27
21.730        33
21.740        27
21.750        47
21.760        27
21.770        53
21.780        47
21.790        53
21.800        73
21.810        47
21.820        33
21.830        67
21.840        40
21.850        47
21.860        27
21.870        47
21.880        53
21.890        47
21.900        53
21.910        67
21.920        40
21.930        40
21.940        53
21.950        20
21.960        53
21.970        33
21.980        53
21.990        20
22.000        33
22.010        40
22.020        47
22.030        20
22.040        33
22.050        67
22.060        40
22.070        27
22.080        73
22.090        27
22.100        47
22.110        40
22.120        47
22.130        13
22.140        33
22.150        33
22.160        20
22.170        60
22.180        33
22.190        20
22.200        40
22.210        33
22.220        27
22.230        53
22.240        47
22.250        40
22.260        60
22.270        33
22.280        47
22.290        47
22.300        33
22.310        33
22.320        33
22.330        33
22.340        33
22.350        33
22.360        47
22.370        67
22.380        33
22.390        60
22.400        47
22.410        40
22.420        60
22.430        73
22.440        47
22.450        47
22.460        33
22.470        53
22.480        60
22.490        33
22.500        60
22.510        73
22.520        47
22.530        33
22.540        53
22.550        40
22.560        87
22.570        60
22.580        53
22.590        80
22.600        67
22.610        20
22.620        47
22.630        47
22.640        67
22.650        73
22.660       113
22.670       120
22.680        87
22.690       127
22.700       100
22.710       133
22.720       127
22.730       147
22.740       127
22.750       180
22.760       140
22.770       173
22.780       140
22.790       127
22.800       120
22.810        87
22.820       133
22.830       133
22.840       100
22.850        87
22.860        67
22.870        40
22.880        73
22.890        67
22.900        67
22.910        67
22.920        73
22.930        40
22.940        53
22.950        60
22.960        53
22.970         7
22.980        20
22.990        53
23.000        47
23.010        53
23.020        47
23.030        47
23.040        67
23.050        47
23.060        47
23.070        33
23.080        47
23.090        27
23.100        27
23.110        20
23.120        67
23.130        53
23.140        33
23.150        40
23.160        40
23.170        33
23.180        40
23.190        47
23.200        20
23.210        60
23.220        40
23.230        60
23.240        33
23.250        53
23.260        40
23.270        40
23.280        40
23.290        40
23.300        33
23.310        40
23.320        13
23.330        20
23.340        40
23.350        67
23.360        27
23.370        33
23.380        40
23.390        53
23.400        33
23.410        67
23.420        40
23.430        40
23.440        40
23.450        47
23.460        47
23.470         7
23.480        13
23.490        53
23.500        33
23.510         7
23.520        40
23.530        33
23.540        20
23.550        20
23.560        47
23.570        60
23.580        27
23.590        40
23.600        40
23.610        40
23.620        40
23.630        40
23.640        20
23.650        53
23.660        40
23.670        73
23.680        67
23.690        53
23.700        67
23.710        47
23.720        53
23.730        60
23.740        20
23.750        60
23.760        33
23.770        27
23.780        27
23.790        33
23.800        60
23.810        20
23.820        27
23.830        47
23.840        27
23.850        27
23.860        53
23.870        47
23.880        73
23.890        40
23.900        47
23.910        87
23.920        13
23.930        53
23.940        33
23.950        20
23.960        20
23.970        40
23.980        40
23.990        33
24.000        73
24.010         0
24.020        27
24.030        20
24.040        47
24.050        47
24.060        80
24.070        67
24.080        20
24.090        20
24.100        20
24.110        53
24.120        33
24.130        20
24.140        53
24.150        33
24.160        20
24.170        27
24.180        47
24.190        60
24.200        60
24.210        53
24.220        53
24.230        27
24.240         7
24.250        20
24.260        13
24.270        13
24.280        40
24.290        33
24.300        40
24.310        33
24.320        47
24.330        33
24.340        27
24.350        33
24.360        47
24.370        20
24.380        47
24.390        40
24.400        33
24.410        40
24.420        60
24.430        13
24.440        40
24.450        40
24.460        40
24.470        27
24.480        40
24.490        53
24.500        53
24.510        27
24.520        27
24.530        13
24.540        47
24.550        47
24.560        27
24.570        73
24.580        20
24.590        33
24.600        40
24.610        33
24.620        33
24.630        53
24.640        20
24.650        27
24.660        40
24.670        20
24.680        27
24.690        20
24.700        20
24.710        47
24.720        40
24.730        53
24.740        33
24.750        20
24.760        40
24.770        40
24.780        40
24.790        13
24.800        33
24.810        47
24.820        40
24.830        40
24.840        47
24.850        53
24.860        27
24.870        53
24.880        53
24.890        47
24.900        60
24.910         7
24.920        60
24.930        20
24.940        40
24.950        40
24.960        13
24.970        27
24.980        27
24.990        27
25.000        53
25.010        33
25.020         0
25.030        47
25.040        73
25.050         7
25.060        47
25.070        27
25.080        53
25.090        47
25.100        20
25.110        13
25.120        67
25.130        27
25.140        27
25.150        27
25.160        13
25.170        47
25.180        27
25.190        27
25.200        73
25.210        40
25.220        20
25.230        13
25.240        40
25.250        27
25.260        40
25.270        47
25.280        40
25.290        13
25.300        53
25.310        13
25.320        40
25.330        40
25.340        73
25.350        67
25.360        67
25.370        80
25.380        67
25.390        33
25.400        33
25.410        47
25.420        40
25.430        60
25.440        73
25.450        60
25.460        27
25.470        13
25.480        53
25.490         7
25.500        53
25.510        27
25.520        13
25.530        87
25.540        73
25.550        60
25.560        67
25.570        80
25.580        80
25.590       113
25.600        47
25.610        93
25.620       100
25.630        80
25.640        60
25.650        87
25.660        40
25.670        80
25.680        73
25.690        47
25.700        53
25.710        53
25.720        60
25.730        20
25.740        20
25.750        40
25.760        60
25.770        13
25.780        27
25.790        47
25.800         0
25.810        20
25.820        27
25.830        40
25.840        27
25.850        40
25.860        20
25.870        20
25.880        20
25.890        13
25.900        13
25.910        47
25.920        40
25.930        27
25.940        40
25.950        20
25.960        20
25.970        40
25.980        33
25.990        27
26.000        47
26.010        27
26.020        27
26.030        40
26.040        20
26.050        27
26.060        40
26.070        27
26.080        20
26.090        40
26.100        40
26.110        33
26.120        53
26.130        47
26.140        20
26.150        73
26.160        20
26.170        20
26.180        20
26.190        20
26.200        20
26.210        20
26.220        33
26.230        33
26.240        33
26.250        20
26.260        47
26.270        33
26.280        33
26.290        33
26.300        13
26.310        27
26.320        20
26.330        27
26.340        27
26.350        53
26.360        20
26.370        13
26.380        33
26.390        67
26.400        33
26.410        13
26.420        53
26.430        20
26.440        27
26.450        40
26.460        40
26.470        47
26.480        40
26.490        33
26.500        40
26.510        33
26.520        20
26.530        80
26.540        27
26.550        13
26.560        33
26.570        33
26.580        33
26.590        20
26.600        20
26.610         7
26.620        27
26.630         0
26.640         7
26.650        67
26.660        47
26.670        40
26.680        27
26.690        33
26.700        13
26.710        27
26.720        40
26.730        40
26.740        33
26.750        20
26.760         7
26.770        40
26.780        33
26.790        53
26.800        60
26.810        33
26.820        20
26.830        13
26.840        53
26.850         7
26.860        67
26.870        40
26.880        20
26.890        47
26.900        27
26.910        27
26.920        20
26.930        27
26.940        20
26.950        20
26.960        27
26.970        20
26.980        27
26.990        33
27.000        33
27.010        20
27.020        27
27.030        27
27.040        13
27.050        67
27.060        13
27.070        20
27.080         7
27.090        40
27.100        27
27.110        27
27.120        20
27.130        13
27.140        33
27.150        53
27.160        73
27.170        13
27.180        27
27.190        53
27.200        40
27.210        33
27.220        13
27.230        27
27.240        27
27.250        47
27.260        73
27.270         7
27.280        33
27.290        33
27.300        20
27.310        33
27.320        20
27.330        47
27.340        40
27.350        20
27.360        33
27.370        33
27.380        27
27.390        20
27.400        20
27.410        27
27.420        27
27.430        47
27.440        20
27.450        20
27.460        40
27.470        47
27.480        47
27.490        33
27.500        13
27.510        13
27.520        33
27.530        47
27.540        53
27.550        27
27.560        40
27.570        27
27.580        47
27.590        47
27.600        20
27.610        73
27.620        33
27.630        20
27.640        27
27.650        20
27.660        20
27.670        20
27.680        13
27.690        33
27.700        53
27.710        13
27.720        33
27.730        33
27.740        47
27.750        47
27.760        47
27.770        33
27.780        33
27.790        20
27.800        33
27.810        33
27.820        33
27.830        40
27.840        47
27.850        27
27.860        20
27.870        53
27.880        27
27.890        33
27.900        13
27.910        27
27.920        20
27.930        47
27.940        27
27.950        27
27.960        47
27.970        13
27.980        27
27.990        20
28.000        33
28.010        47
28.020        60
28.030        13
28.040        47
28.050        20
28.060        40
28.070        33
28.080        67
28.090        33
28.100        20
28.110        20
28.120        13
28.130        27
28.140        27
28.150        27
28.160        33
28.170        33
28.180        13
28.190        27
28.200        13
28.210        47
28.220        13
28.230        33
28.240        33
28.250        40
28.260        53
28.270        47
28.280        27
28.290        13
28.300        33
28.310         0
28.320        20
28.330        40
28.340        40
28.350        13
28.360        20
28.370        40
28.380        13
28.390        33
28.400        27
28.410        33
28.420        33
28.430        40
28.440        27
28.450        47
28.460        47
28.470        13
28.480        13
28.490        47
28.500        33
28.510        13
28.520        13
28.530        20
28.540        40
28.550        27
28.560        60
28.570        27
28.580        47
28.590        33
28.600        33
28.610        20
28.620        20
28.630        47
28.640        33
28.650        20
28.660        13
28.670        20
28.680        53
28.690        27
28.700        47
28.710        13
28.720        27
28.730        20
28.740        40
28.750        27
28.760        20
28.770        40
28.780        73
28.790        27
28.800        13
28.810        27
28.820        40
28.830        27
28.840        27
28.850        33
28.860        20
28.870        13
28.880        20
28.890        27
28.900        27
28.910         7
28.920        13
28.930        33
28.940        27
28.950        53
28.960        33
28.970        27
28.980        47
28.990         7
29.000        27
29.010        13
29.020        13
29.030        27
29.040        33
29.050        20
29.060        27
29.070        27
29.080        27
29.090        40
29.100        20
29.110        33
29.120        20
29.130        33
29.140        33
29.150        40
29.160        40
29.170        67
29.180        20
29.190        47
29.200        27
29.210        27
29.220        20
29.230        13
29.240        47
29.250        60
29.260        67
29.270         7
29.280         7
29.290        33
29.300        20
29.310        33
29.320        20
29.330        47
29.340        60
29.350        33
29.360         0
29.370        20
29.380        20
29.390        27
29.400        20
29.410        27
29.420        47
29.430        33
29.440        20
29.450         7
29.460        13
29.470        27
29.480        33
29.490        13
29.500        27
29.510        27
29.520        40
29.530        13
29.540        27
29.550        20
29.560        53
29.570        27
29.580        20
29.590         7
29.600        20
29.610        20
29.620        60
29.630        20
29.640        33
29.650        20
29.660        27
29.670        33
29.680        33
29.690        20
29.700        47
29.710        27
29.720        33
29.730        53
29.740        20
29.750         7
29.760        33
29.770        20
29.780        20
29.790        53
29.800        27
29.810        13
29.820        33
29.830        20
29.840        13
29.850         7
29.860        47
29.870        67
29.880         0
29.890        27
29.900        20
29.910         7
29.920        20
29.930        13
29.940        33
29.950        47
29.960        60
29.970        20
29.980         7
29.990        13
30.000        33
30.010        20
30.020        33
30.030        40
30.040        13
30.050        27
30.060        27
30.070        33
30.080        73
30.090        40
30.100        27
30.110        13
30.120        13
30.130        40
30.140        20
30.150        13
30.160        27
30.170        27
30.180        13
30.190        40
30.200        27
30.210        20
30.220        13
30.230        33
30.240        40
30.250         0
30.260         7
30.270         7
30.280        27
30.290        20
30.300        33
30.310        13
30.320        27
30.330        20
30.340        33
30.350        47
30.360         0
30.370        27
30.380        20
30.390        13
30.400        40
30.410        13
30.420        33
30.430        13
30.440        13
30.450        27
30.460        20
30.470        20
30.480        20
30.490        33
30.500        40
30.510        13
30.520        33
30.530        20
30.540        20
30.550        33
30.560        47
30.570        13
30.580        13
30.590        33
30.600        40
30.610        20
30.620        47
30.630        13
30.640        33
30.650        20
30.660        40
30.670        13
30.680        20
30.690         0
30.700        33
30.710        27
30.720        47
30.730        20
30.740        20
30.750        27
30.760        40
30.770        40
30.780        33
30.790         7
30.800        27
30.810        47
30.820        27
30.830        40
30.840        27
30.850        20
30.860        27
30.870        13
30.880        33
30.890        13
30.900        20
30.910        13
30.920        13
30.930        27
30.940        40
30.950        73
30.960        27
30.970        20
30.980        40
30.990         0
31.000        13
31.010        53
31.020        13
31.030        20
31.040        20
31.050        47
31.060        40
31.070        20
31.080        27
31.090         0
31.100        33
31.110        47
31.120        27
31.130        13
31.140        13
31.150        33
31.160        27
31.170        13
31.180        20
31.190        33
31.200        27
31.210        20
31.220        33
31.230        20
31.240        33
31.250        40
31.260         7
31.270        20
31.280        27
31.290        13
31.300        40
31.310        40
31.320        27
31.330        33
31.340        47
31.350        33
31.360        33
31.370        27
31.380        87
31.390        47
31.400        40
31.410        33
31.420        27
31.430        33
31.440         0
31.450        20
31.460        33
31.470        40
31.480        20
31.490        33
31.500        47
31.510        20
31.520        20
31.530        47
31.540        20
31.550        27
31.560        27
31.570        53
31.580        27
31.590        20
31.600        20
31.610        40
31.620        13
31.630        40
31.640        73
31.650        33
31.660        40
31.670        40
31.680        53
31.690        13
31.700        33
31.710        60
31.720        40
31.730        53
31.740        27
31.750        53
31.760        47
31.770        33
31.780        47
31.790        13
31.800        27
31.810        20
31.820        67
31.830         7
31.840        27
31.850        27
31.860        47
31.870        40
31.880        47
31.890        27
31.900        47
31.910        40
31.920        40
31.930        27
31.940        60
31.950        47
31.960        20
31.970        20
31.980        33
31.990        40
32.000        60
32.010        47
32.020        20
32.030        47
32.040        53
32.050        53
32.060        67
32.070        47
32.080        27
32.090        60
32.100        60
32.110        93
32.120        80
32.130        93
32.140        87
32.150        73
32.160        67
32.170       100
32.180       133
32.190       147
32.200       120
32.210       113
32.220       120
32.230        93
32.240       213
32.250       187
32.260       247
32.270       253
32.280       333
32.290       380
32.300       353
32.310       413
32.320       407
32.330       466
32.340       493
32.350       586
32.360       600
32.370       900
32.380       753
32.390       840
32.400       986
32.410       920
32.420      1133
32.430      1026
32.440       913
32.450       966
32.460       960
32.470       906
32.480       800
32.490       753
32.500       800
32.510       733
32.520       540
32.530       526
32.540       340
32.550       500
32.560       413
32.570       267
32.580       267
32.590       240
32.600       240
32.610       153
32.620       180
32.630       140
32.640        93
32.650       120
32.660        67
32.670        80
32.680        80
32.690        47
32.700        73
32.710        67
32.720        73
32.730        27
32.740        27
32.750        47
32.760        67
32.770        87
32.780        73
32.790        60
32.800        27
32.810        40
32.820        47
32.830        33
32.840        47
32.850        53
32.860        33
32.870        33
32.880        60
32.890        53
32.900        47
32.910        20
32.920        27
32.930        73
32.940        20
32.950        13
32.960        67
32.970        20
32.980        47
32.990        20
33.000        33
33.010        27
33.020        20
33.030        27
33.040        13
33.050        27
33.060        13
33.070        40
33.080        20
33.090        27
33.100        33
33.110        33
33.120        27
33.130        40
33.140        13
33.150        20
33.160        40
33.170        33
33.180        27
33.190        20
33.200        27
33.210        40
33.220        33
33.230        20
33.240        27
33.250        13
33.260        33
33.270        27
33.280        27
33.290        33
33.300        53
33.310        53
33.320        33
33.330        20
33.340        40
33.350        27
33.360        27
33.370        27
33.380        20
33.390        27
33.400        20
33.410        27
33.420        33
33.430        27
33.440        40
33.450        20
33.460        27
33.470        20
33.480        27
33.490        20
33.500        13
33.510        53
33.520        40
33.530        33
33.540        40
33.550        27
33.560        53
33.570        40
33.580        20
33.590        27
33.600        40
33.610        27
33.620        20
33.630        47
33.640        27
33.650        20
33.660        13
33.670        27
33.680        27
33.690         7
33.700         7
33.710        47
33.720        27
33.730        13
33.740        27
33.750        13
33.760         0
33.770        53
33.780        33
33.790        27
33.800        13
33.810        47
33.820        47
33.830        33
33.840        40
33.850        20
33.860         7
33.870        27
33.880        20
33.890        20
33.900        47
33.910        27
33.920        27
33.930        47
33.940        13
33.950        33
33.960        33
33.970        27
33.980        27
33.990        40
34.000         7
34.010        20
34.020        13
34.030        33
34.040        33
34.050        53
34.060         7
34.070        27
34.080        47
34.090        40
34.100        20
34.110        67
34.120        27
34.130        40
34.140        33
34.150        33
34.160        13
34.170        13
34.180        20
34.190        20
34.200        27
34.210        40
34.220        33
34.230        47
34.240        47
34.250        13
34.260        13
34.270         7
34.280         7
34.290        33
34.300        20
34.310        27
34.320        40
34.330        60
34.340        27
34.350        27
34.360        40
34.370        53
34.380        20
34.390        40
34.400        20
34.410        47
34.420         7
34.430        47
34.440         7
34.450        27
34.460        47
34.470        87
34.480        20
34.490        20
34.500        27
34.510        13
34.520        20
34.530        13
34.540        33
34.550        27
34.560         7
34.570        20
34.580        13
34.590        27
34.600        13
34.610        27
34.620        40
34.630        33
34.640        20
34.650        27
34.660        47
34.670        13
34.680        33
34.690        20
34.700        27
34.710        27
34.720        20
34.730        67
34.740        20
34.750        20
34.760        20
34.770        13
34.780        47
34.790         7
34.800        47
34.810         7
34.820        40
34.830        20
34.840        27
34.850        60
34.860        20
34.870        47
34.880        40
34.890        53
34.900        27
34.910        73
34.920        27
34.930        27
34.940        67
34.950        80
34.960        67
34.970        40
34.980        80
34.990        60
35.000        73
35.010        80
35.020       113
35.030       100
35.040        73
35.050       133
35.060       260
35.070       426
35.080       700
35.090       873
35.100      1233
35.110      1519
35.120      1506
35.130      1353
35.140      1173
35.150      1100
35.160       980
35.170       780
35.180       960
35.190       920
35.200      1140
35.210       946
35.220       900
35.230       680
35.240       526
35.250       546
35.260       267
35.270       247
35.280       213
35.290       180
35.300       173
35.310       187
35.320       113
35.330       120
35.340       100
35.350        73
35.360        33
35.370        67
35.380        20
35.390        53
35.400         7
35.410        20
35.420        40
35.430        47
35.440        27
35.450        33
35.460        27
35.470        33
35.480        13
35.490        40
35.500        13
35.510        20
35.520        20
35.530        27
35.540        33
35.550        20
35.560        33
35.570        13
35.580        40
35.590        40
35.600        13
35.610        40
35.620        20
35.630        20
35.640        13
35.650        20
35.660        33
35.670        13
35.680         7
35.690        47
35.700        33
35.710        33
35.720        47
35.730        53
35.740        27
35.750        27
35.760        47
35.770        33
35.780        20
35.790         7
35.800        53
35.810        40
35.820        33
35.830        60
35.840        20
35.850        27
35.860        27
35.870        27
35.880        27
35.890        13
35.900        40
35.910         0
35.920        13
35.930        27
35.940        40
35.950        20
35.960        20
35.970        27
35.980        27
35.990        33
36.000        47
36.010         7
36.020        13
36.030        47
36.040        33
36.050        33
36.060        47
36.070        13
36.080        27
36.090        27
36.100        27
36.110        13
36.120         7
36.130        33
36.140        20
36.150        33
36.160        13
36.170        27
36.180        53
36.190        20
36.200        40
36.210        60
36.220        33
36.230        27
36.240        20
36.250        33
36.260        20
36.270        20
36.280        40
36.290        20
36.300        40
36.310        47
36.320        20
36.330        27
36.340        27
36.350        53
36.360        53
36.370        20
36.380        27
36.390        33
36.400        27
36.410        33
36.420        53
36.430        27
36.440        33
36.450        40
36.460        13
36.470        53
36.480        20
36.490        13
36.500        27
36.510        13
36.520        33
36.530        27
36.540        40
36.550        33
36.560        27
36.570        13
36.580        60
36.590        40
36.600        33
36.610        40
36.620        33
36.630         7
36.640        40
36.650        20
36.660        33
36.670        13
36.680        33
36.690         7
36.700        33
36.710         7
36.720        20
36.730        33
36.740         7
36.750        27
36.760        13
36.770        27
36.780        33
36.790        20
36.800        13
36.810         7
36.820         7
36.830        13
36.840         0
36.850        27
36.860        20
36.870        47
36.880        20
36.890        47
36.900        20
36.910         7
36.920        40
36.930        27
36.940        27
36.950        53
36.960        47
36.970        33
36.980        40
36.990        20
37.000        13
37.010        27
37.020        20
37.030        47
37.040        33
37.050        13
37.060        13
37.070        27
37.080        27
37.090        60
37.100        13
37.110         7
37.120        47
37.130        20
37.140        20
37.150        33
37.160        13
37.170        27
37.180        13
37.190         7
37.200        27
37.210        60
37.220        33
37.230        13
37.240        40
37.250        13
37.260        33
37.270        40
37.280        47
37.290         7
37.300        13
37.310        20
37.320        13
37.330        20
37.340        27
37.350         7
37.360        27
37.370        20
37.380        20
37.390        33
37.400        53
37.410        20
37.420        13
37.430        53
37.440        53
37.450        20
37.460        27
37.470        27
37.480        20
37.490        73
37.500        40
37.510         7
37.520        33
37.530        20
37.540        20
37.550        20
37.560         7
37.570        27
37.580        47
37.590        40
37.600        20
37.610        27
37.620         7
37.630        20
37.640        20
37.650        33
37.660        13
37.670        40
37.680         7
37.690        13
37.700        27
37.710        33
37.720        40
37.730        40
37.740        40
37.750        20
37.760        40
37.770        47
37.780        33
37.790        47
37.800        80
37.810        53
37.820        33
37.830        80
37.840        53
37.850        40
37.860        47
37.870        60
37.880        40
37.890        40
37.900        13
37.910        73
37.920        33
37.930        20
37.940        40
37.950        27
37.960        20
37.970        33
37.980        20
37.990         0
38.000        33
38.010        20
38.020        27
38.030        47
38.040        80
38.050        33
38.060        33
38.070        33
38.080         7
38.090         0
38.100        20
38.110        33
38.120        47
38.130        20
38.140        27
38.150        27
38.160        27
38.170        27
38.180        27
38.190        33
38.200        13
38.210        27
38.220        67
38.230        27
38.240        13
38.250        20
38.260        20
38.270        53
38.280        27
38.290         0
38.300         7
38.310         7
38.320        40
38.330        33
38.340        20
38.350         0
38.360        40
38.370        47
38.380        33
38.390        47
38.400        20
38.410        27
38.420        20
38.430        60
38.440        13
38.450        20
38.460        13
38.470        13
38.480         0
38.490         0
38.500        20
38.510        20
38.520        47
38.530        20
38.540        13
38.550        27
38.560        33
38.570        20
38.580         0
38.590        33
38.600        20
38.610         7
38.620        27
38.630         7
38.640        20
38.650        40
38.660        27
38.670        20
38.680        27
38.690        33
38.700         7
38.710        20
38.720        20
38.730        27
38.740        20
38.750        20
38.760        67
38.770        60
38.780         7
38.790        33
38.800        20
38.810        20
38.820        20
38.830        13
38.840        13
38.850        33
38.860        20
38.870         7
38.880        27
38.890        40
38.900        13
38.910        13
38.920        20
38.930        40
38.940        40
38.950        27
38.960        13
38.970        27
38.980        53
38.990        40
39.000        33
39.010        27
39.020        20
39.030        33
39.040        20
39.050        13
39.060        33
39.070         7
39.080        20
39.090        20
39.100        13
39.110        13
39.120        40
39.130         7
39.140        20
39.150        27
39.160        33
39.170        40
39.180         7
39.190        33
39.200        33
39.210        20
39.220         7
39.230        20
39.240        27
39.250        20
39.260        27
39.270        47
39.280        33
39.290        20
39.300        13
39.310        40
39.320        40
39.330         7
39.340        20
39.350        27
39.360        20
39.370        27
39.380         7
39.390        20
39.400        20
39.410         7
39.420        20
39.430        13
39.440         0
39.450        40
39.460        13
39.470        13
39.480        13
39.490        47
39.500         7
39.510        27
39.520        47
39.530        20
39.540        27
39.550        40
39.560        27
39.570        20
39.580        33
39.590        27
39.600        13
39.610        20
39.620        47
39.630        27
39.640        27
39.650        27
39.660        40
39.670        33
39.680         0
39.690        47
39.700        27
39.710        13
39.720        47
39.730        20
39.740        20
39.750        33
39.760        13
39.770        13
39.780        13
39.790        33
39.800        33
39.810         7
39.820        53
39.830        33
39.840        27
39.850        40
39.860        33
39.870        53
39.880        33
39.890        73
39.900        53
39.910        67
39.920        93
39.930        67
39.940        67
39.950        87
39.960       100
39.970       120
39.980        87
39.990       107
40.000       120
40.010       153
40.020       160
40.030       133
40.040       120
40.050       147
40.060        93
40.070       207
40.080        80
40.090       120
40.100        67
40.110        73
40.120       100
40.130        47
40.140        80
40.150        87
40.160        73
40.170       127
40.180        53
40.190        53
40.200        33
40.210        27
40.220        20
40.230        33
40.240        13
40.250        40
40.260        20
40.270         7
40.280        40
40.290        20
40.300        33
40.310        33
40.320        13
40.330        13
40.340        53
40.350        60
40.360        27
40.370        33
40.380        20
40.390        40
40.400        13
40.410        13
40.420         7
40.430        27
40.440        20
40.450        33
40.460        13
40.470        27
40.480        27
40.490        20
40.500         7
40.510        13
40.520         7
40.530        33
40.540        20
40.550        13
40.560        20
40.570        20
40.580        40
40.590        47
40.600        47
40.610        13
40.620        33
40.630        13
40.640        20
40.650        40
40.660        27
40.670        20
40.680        20
40.690         0
40.700        20
40.710        20
40.720        20
40.730        27
40.740        27
40.750        33
40.760        13
40.770        20
40.780        13
40.790        13
40.800        20
40.810        27
40.820         0
40.830        27
40.840        33
40.850        33
40.860        13
40.870        20
40.880         7
40.890        20
40.900        13
40.910        20
40.920        13
40.930        20
40.940        13
40.950        40
40.960        20
40.970        20
40.980        27
40.990        13
41.000        40
41.010        20
41.020        20
41.030        27
41.040        13
41.050        27
41.060        33
41.070        27
41.080        13
41.090        27
41.100        40
41.110        27
41.120        20
41.130        13
41.140         7
41.150        13
41.160        20
41.170        27
41.180        27
41.190        40
41.200        27
41.210        20
41.220        20
41.230        53
41.240        40
41.250         0
41.260        20
41.270        13
41.280        13
41.290         7
41.300        33
41.310        27
41.320        27
41.330        33
41.340        33
41.350        13
41.360        20
41.370        27
41.380        27
41.390        20
41.400        13
41.410        27
41.420        20
41.430        40
41.440        53
41.450        47
41.460        33
41.470        27
41.480        53
41.490        53
41.500        33
41.510        33
41.520        53
41.530        53
41.540        20
41.550        73
41.560        33
41.570        20
41.580        33
41.590        67
41.600        67
41.610        47
41.620        67
41.630        73
41.640        80
41.650       133
41.660       100
41.670       180
41.680       127
41.690       133
41.700       180
41.710       133
41.720       147
41.730       107
41.740       113
41.750       100
41.760        93
41.770        93
41.780       113
41.790       147
41.800        73
41.810        87
41.820       100
41.830        73
41.840        67
41.850        53
41.860        40
41.870        13
41.880        40
41.890        53
41.900        40
41.910        33
41.920        40
41.930         0
41.940        33
41.950        20
41.960        13
41.970         7
41.980        33
41.990        13
42.000        47
42.010        27
42.020        13
42.030        53
42.040        33
42.050        27
42.060        13
42.070        27
42.080        13
42.090         0
42.100        27
42.110         0
42.120        27
42.130        20
42.140         7
42.150        20
42.160        20
42.170        40
42.180        13
42.190        13
42.200        13
42.210        20
42.220        13
42.230        20
42.240        27
42.250        33
42.260        13
42.270        20
42.280        27
42.290        20
42.300        13
42.310        20
42.320         7
42.330        33
42.340         0
42.350        13
42.360        13
42.370        27
42.380        40
42.390        33
42.400        27
42.410        20
42.420        20
42.430        13
42.440        33
42.450        13
42.460        13
42.470        20
42.480        13
42.490        13
42.500        20
42.510        33
42.520        13
42.530         7
42.540        33
42.550        47
42.560        40
42.570        33
42.580        20
42.590        27
42.600         7
42.610        33
42.620        20
42.630        20
42.640        13
42.650        20
42.660        13
42.670        27
42.680        13
42.690         0
42.700        33
42.710        13
42.720        13
42.730        33
42.740         0
42.750        13
42.760        27
42.770        13
42.780        20
42.790        20
42.800         7
42.810        33
42.820        33
42.830        33
42.840        20
42.850        20
42.860        27
42.870         7
42.880        53
42.890        13
42.900        27
42.910        27
42.920        13
42.930        27
42.940        27
42.950        13
42.960        13
42.970        47
42.980        33
42.990        20
43.000        27
43.010        27
43.020        20
43.030        13
43.040         7
43.050        20
43.060        27
43.070        47
43.080         7
43.090        20
43.100        60
43.110        33
43.120        33
43.130        13
43.140        53
43.150        40
43.160        20
43.170        27
43.180        60
43.190        53
43.200        73
43.210        47
43.220        53
43.230        33
43.240        40
43.250        47
43.260        27
43.270        80
43.280        87
43.290        87
43.300        87
43.310       107
43.320       193
43.330       180
43.340       327
43.350       307
43.360       287
43.370       387
43.380       320
43.390       320
43.400       280
43.410       233
43.420       140
43.430       140
43.440       173
43.450       193
43.460       160
43.470       213
43.480       187
43.490       100
43.500       187
43.510       113
43.520       147
43.530        53
43.540        40
43.550        67
43.560        33
43.570         7
43.580        13
43.590        33
43.600        33
43.610        20
43.620        20
43.630        67
43.640        20
43.650        13
43.660        27
43.670        13
43.680        33
43.690        47
43.700        20
43.710        27
43.720        20
43.730        40
43.740         7
43.750         7
43.760        33
43.770         7
43.780        27
43.790        27
43.800        20
43.810        47
43.820        33
43.830        40
43.840        33
43.850        27
43.860        13
43.870        20
43.880        33
43.890        40
43.900         7
43.910        20
43.920        20
43.930        33
43.940         7
43.950        27
43.960        60
43.970        27
43.980        20
43.990        33
44.000        13
44.010        13
44.020         7
44.030        33
44.040        40
44.050        33
44.060        27
44.070        27
44.080         7
44.090         0
44.100        13
44.110        13
44.120         7
44.130        13
44.140        13
44.150         7
44.160        20
44.170        33
44.180        33
44.190         7
44.200        47
44.210        27
44.220        20
44.230        20
44.240        20
44.250        13
44.260        20
44.270        20
44.280        13
44.290        13
44.300        20
44.310        40
44.320         7
44.330        33
44.340        13
44.350         7
44.360        27
44.370        13
44.380        20
44.390        20
44.400        27
44.410        20
44.420        33
44.430        27
44.440        53
44.450        13
44.460        33
44.470         7
44.480        13
44.490         7
44.500        33
44.510        33
44.520        20
44.530         0
44.540        33
44.550        33
44.560        20
44.570        33
44.580        47
44.590        47
44.600        20
44.610        47
44.620        47
44.630        20
44.640         0
44.650        13
44.660        20
44.670        13
44.680        33
44.690        13
44.700         7
44.710        40
44.720        33
44.730        13
44.740        27
44.750        20
44.760        13
44.770        33
44.780        27
44.790        40
44.800        47
44.810         7
44.820        40
44.830        33
44.840        20
44.850         7
44.860        40
44.870        27
44.880        53
44.890        13
44.900        33
44.910        13
44.920        33
44.930        20
44.940        27
44.950        53
44.960        27
44.970        20
44.980        27
44.990        27
45.000        33
45.010        40
45.020        20
45.030        40
45.040        47
45.050        27
45.060         0
45.070        13
45.080        27
45.090        20
45.100        27
45.110         7
45.120        27
45.130        20
45.140        13
45.150        13
45.160        20
45.170        47
45.180        27
45.190        33
45.200        13
45.210        13
45.220        33
45.230        27
45.240        33
45.250        20
45.260        20
45.270        27
45.280        27
45.290        13
45.300        47
45.310        27
45.320        33
45.330         7
45.340        20
45.350        27
45.360        27
45.370        13
45.380        33
45.390        13
45.400        13
45.410        60
45.420         7
45.430        40
45.440        27
45.450        13
45.460        13
45.470        20
45.480        20
45.490        20
45.500        13
45.510        13
45.520        20
45.530        13
45.540        33
45.550        20
45.560        20
45.570        33
45.580        47
45.590        13
45.600        20
45.610        40
45.620        27
45.630        13
45.640        33
45.650        33
45.660        20
45.670        20
45.680        53
45.690        53
45.700        33
45.710        20
45.720        53
45.730        67
45.740        13
45.750        27
45.760        60
45.770        40
45.780        27
45.790        60
45.800        60
45.810        33
45.820        67
45.830        53
45.840        80
45.850        13
45.860        40
45.870        47
45.880        40
45.890        47
45.900        73
45.910        47
45.920        40
45.930        53
45.940        53
45.950        60
45.960        40
45.970        80
45.980        60
45.990        67
46.000        47
46.010        73
46.020        40
46.030        60
46.040        73
46.050        80
46.060        80
46.070        80
46.080        93
46.090        87
46.100        87
46.110       100
46.120       107
46.130       140
46.140       113
46.150       147
46.160       113
46.170       167
46.180       133
46.190       200
46.200       240
46.210       160
46.220       213
46.230       260
46.240       300
46.250       273
46.260       446
46.270       400
46.280       380
46.290       373
46.300       446
46.310       453
46.320       446
46.330       446
46.340       593
46.350       660
46.360       513
46.370       680
46.380       526
46.390       760
46.400       820
46.410       773
46.420       773
46.430       806
46.440       813
46.450       780
46.460       946
46.470       673
46.480       806
46.490       880
46.500       866
46.510       753
46.520       646
46.530       720
46.540       633
46.550       653
46.560       533
46.570       586
46.580       500
46.590       533
46.600       533
46.610       460
46.620       347
46.630       333
46.640       340
46.650       353
46.660       253
46.670       307
46.680       313
46.690       340
46.700       167
46.710       193
46.720       180
46.730       167
46.740       207
46.750       113
46.760       140
46.770       127
46.780       120
46.790       140
46.800       107
46.810        93
46.820        93
46.830       133
46.840        93
46.850        53
46.860        47
46.870        67
46.880        33
46.890        53
46.900       100
46.910       100
46.920        67
46.930        73
46.940        93
46.950        53
46.960        53
46.970        53
46.980        60
46.990        20
47.000        53
47.010        47
47.020        47
47.030        40
47.040        73
47.050        20
47.060        40
47.070        53
47.080        47
47.090        13
47.100        33
47.110        33
47.120        13
47.130        20
47.140        20
47.150        20
47.160        27
47.170        27
47.180        47
47.190        33
47.200         7
47.210        20
47.220        47
47.230        47
47.240        47
47.250        33
47.260        20
47.270        40
47.280        33
47.290        40
47.300        27
47.310        33
47.320        53
47.330        20
47.340        40
47.350        20
47.360        33
47.370        13
47.380        33
47.390        27
47.400        27
47.410        53
47.420        40
47.430        13
47.440        33
47.450        13
47.460        20
47.470        40
47.480        40
47.490        27
47.500        27
47.510        40
47.520        13
47.530        33
47.540         7
47.550        27
47.560        33
47.570        27
47.580        20
47.590        40
47.600        13
47.610        27
47.620         7
47.630        20
47.640        13
47.650        33
47.660        13
47.670        27
47.680        13
47.690        20
47.700        33
47.710        13
47.720        47
47.730        33
47.740        13
47.750        20
47.760        27
47.770        20
47.780         7
47.790        13
47.800         7
47.810        20
47.820        33
47.830        13
47.840        13
47.850        13
47.860        27
47.870        27
47.880        13
47.890        20
47.900        27
47.910        27
47.920        27
47.930        27
47.940         7
47.950        20
47.960        27
47.970        13
47.980        60
47.990        13
48.000         0
48.010        13
48.020        13
48.030        13
48.040        20
48.050        40
48.060        20
48.070        33
48.080         7
48.090        20
48.100         7
48.110        47
48.120        13
48.130        27
48.140        13
48.150        20
48.160        33
48.170        33
48.180         7
48.190        20
48.200        27
48.210        27
48.220        40
48.230        47
48.240        20
48.250        47
48.260        13
48.270        27
48.280        33
48.290        20
48.300        13
48.310        20
48.320        40
48.330        27
48.340        13
48.350        27
48.360        27
48.370        33
48.380        27
48.390        33
48.400        13
48.410        20
48.420        20
48.430        33
48.440        20
48.450         7
48.460        13
48.470        47
48.480        20
48.490         7
48.500        13
48.510        33
48.520        33
48.530        20
48.540        27
48.550        20
48.560        27
48.570         7
48.580        13
48.590        33
48.600        20
48.610        27
48.620        20
48.630        13
48.640        27
48.650         7
48.660        27
48.670        27
48.680        13
48.690         7
48.700        33
48.710        33
48.720        20
48.730        33
48.740        20
48.750        20
48.760         7
48.770        47
48.780        27
48.790        27
48.800        20
48.810        20
48.820        27
48.830        20
48.840        27
48.850        13
48.860        20
48.870        33
48.880        13
48.890        20
48.900        27
48.910        13
48.920        20
48.930        40
48.940        27
48.950        33
48.960        27
48.970        27
48.980         0
48.990        20
49.000        13
49.010        13
49.020        20
49.030         7
49.040         7
49.050         7
49.060        13
49.070        13
49.080        20
49.090        27
49.100        27
49.110        13
49.120        27
49.130        40
49.140        40
49.150        13
49.160        40
49.170         7
49.180        20
49.190        20
49.200        33
49.210        27
49.220        20
49.230        33
49.240        20
49.250        13
49.260         7
49.270        20
49.280        13
49.290         7
49.300        40
49.310        27
49.320        20
49.330        13
49.340        33
49.350         0
49.360        33
49.370        20
49.380        20
49.390        27
49.400        20
49.410        27
49.420         7
49.430        13
49.440        13
49.450        13
49.460         7
49.470        27
49.480        13
49.490        13
49.500        13
49.510         7
49.520        13
49.530         0
49.540        20
49.550        20
49.560        33
49.570        33
49.580        27
49.590        40
49.600        33
49.610        33
49.620         7
49.630        13
49.640        20
49.650        20
49.660        20
49.670        40
49.680        13
49.690        20
49.700        20
49.710        20
49.720         7
49.730        20
49.740        20
49.750         7
49.760        20
49.770        13
49.780         7
49.790        33
49.800        20
49.810        33
49.820        20
49.830        13
49.840         7
49.850        13
49.860        40
49.870         7
49.880        27
49.890         0
49.900        27
49.910        27
49.920        20
49.930         7
49.940        13
49.950        20
49.960        27
49.970        13
49.980         0
49.990        27
50.000        13
50.010        13
50.020        53
50.030        13
50.040        13
50.050        40
50.060         0
50.070        13
50.080        20
50.090        27
50.100        20
50.110         0
50.120         7
50.130        13
50.140        33
50.150        27
50.160        20
50.170         0
50.180         7
50.190         7
50.200         7
50.210        13
50.220        33
50.230        33
50.240        33
50.250        33
50.260        13
50.270        33
50.280         7
50.290        13
50.300        20
50.310        27
50.320        20
50.330         0
50.340         7
50.350         7
50.360         7
50.370        13
50.380        13
50.390        13
50.400        27
50.410        20
50.420        13
50.430        13
50.440        20
50.450         7
50.460        20
50.470         7
50.480        13
50.490        20
50.500        20
50.510         7
50.520        20
50.530        27
50.540         7
50.550         7
50.560        13
50.570        27
50.580         0
50.590        13
50.600        20
50.610        13
50.620         7
50.630         7
50.640        13
50.650        13
50.660         7
50.670        33
50.680        27
50.690        13
50.700         7
50.710        27
50.720        13
50.730        20
50.740        20
50.750         7
50.760        13
50.770        33
50.780        13
50.790        13
50.800        13
50.810        13
50.820        20
50.830        47
50.840        13
50.850        33
50.860        27
50.870        20
50.880        27
50.890        27
50.900         7
50.910        27
50.920        20
50.930        20
50.940        27
50.950        33
50.960         7
50.970        20
50.980        20
50.990        27
51.000        13
51.010        33
51.020        13
51.030        27
51.040        20
51.050         7
51.060         7
51.070        20
51.080         7
51.090        20
51.100        13
51.110        33
51.120        13
51.130        20
51.140        27
51.150        20
51.160        20
51.170         7
51.180        13
51.190        40
51.200        20
51.210        13
51.220        20
51.230        27
51.240        13
51.250         7
51.260        20
51.270        33
51.280        20
51.290        27
51.300        20
51.310        27
51.320        27
51.330        13
51.340        13
51.350        20
51.360        33
51.370        20
51.380        33
51.390        20
51.400         7
51.410        20
51.420        33
51.430        13
51.440        13
51.450        13
51.460        13
51.470         7
51.480        27
51.490         0
51.500        13
51.510        13
51.520        27
51.530         7
51.540        13
51.550        20
51.560        20
51.570        20
51.580        27
51.590        13
51.600        13
51.610        27
51.620        27
51.630        27
51.640        40
51.650        20
51.660         0
51.670        27
51.680        20
51.690         7
51.700        33
51.710        20
51.720        13
51.730        20
51.740         7
51.750        13
51.760         7
51.770        13
51.780        13
51.790         0
51.800        47
51.810        20
51.820        33
51.830        33
51.840        13
51.850        20
51.860        13
51.870        13
51.880         7
51.890        27
51.900        13
51.910        13
51.920        13
51.930        20
51.940        20
51.950        20
51.960        20
51.970        20
51.980        20
51.990        20
52.000         7
52.010         7
52.020        13
52.030         7
52.040        20
52.050        13
52.060        20
52.070        33
52.080         7
52.090         7
52.100        27
52.110        20
52.120        13
52.130        20
52.140        27
52.150        13
52.160         7
52.170        33
52.180        27
52.190        20
52.200        27
52.210        13
52.220        20
52.230        13
52.240         7
52.250        33
52.260        13
52.270        27
52.280         0
52.290        13
52.300        20
52.310        53
52.320        20
52.330        13
52.340        27
52.350        20
52.360        20
52.370        20
52.380        47
52.390        13
52.400        53
52.410        27
52.420        20
52.430        27
52.440        13
52.450        33
52.460        40
52.470        13
52.480        13
52.490        33
52.500        53
52.510        33
52.520        47
52.530        13
52.540        47
52.550        67
52.560       120
52.570       120
52.580       107
52.590       207
52.600       187
52.610       167
52.620       160
52.630       193
52.640       140
52.650       120
52.660       127
52.670        73
52.680        87
52.690        33
52.700        20
52.710        40
52.720        80
52.730        60
52.740       107
52.750       153
52.760        87
52.770        47
52.780        87
52.790        87
52.800        93
52.810        20
52.820        27
52.830        20
52.840        13
52.850        13
52.860         7
52.870        27
52.880        13
52.890        13
52.900         7
52.910        33
52.920        27
52.930        13
52.940        13
52.950        20
52.960        27
52.970        27
52.980        40
52.990        20
53.000         0
53.010         0
53.020         7
53.030         7
53.040        13
53.050        27
53.060        13
53.070         0
53.080        13
53.090         7
53.100         7
53.110        27
53.120        13
53.130        27
53.140        13
53.150        13
53.160        13
53.170        20
53.180        13
53.190        27
53.200        13
53.210        27
53.220        27
53.230        27
53.240         7
53.250        13
53.260        20
53.270        27
53.280        33
53.290         7
53.300         7
53.310        20
53.320        13
53.330        13
53.340        33
53.350        13
53.360        13
53.370        13
53.380        33
53.390        27
53.400        13
53.410        13
53.420        13
53.430         7
53.440        13
53.450        13
53.460        20
53.470        13
53.480        20
53.490         0
53.500        13
53.510        27
53.520         7
53.530        13
53.540         7
53.550        33
53.560        20
53.570        20
53.580         7
53.590         0
53.600        13
53.610        40
53.620        13
53.630        13
53.640        20
53.650        20
53.660        27
53.670        13
53.680        33
53.690        27
53.700        20
53.710        13
53.720         7
53.730         7
53.740        27
53.750        20
53.760        13
53.770         7
53.780         7
53.790        20
53.800         7
53.810        27
53.820         0
53.830        27
53.840        20
53.850         7
53.860         7
53.870        20
53.880        13
53.890         0
53.900        27
53.910         7
53.920        13
53.930        27
53.940         0
53.950        47
53.960        13
53.970        20
53.980        13
53.990        13
54.000        20
54.010        20
54.020        20
54.030         7
54.040         7
54.050        20
54.060        20
54.070         0
54.080        13
54.090        27
54.100        13
54.110        13
54.120        20
54.130        20
54.140        13
54.150        13
54.160         7
54.170         0
54.180        20
54.190         0
54.200        20
54.210        13
54.220        20
54.230        13
54.240         7
54.250        20
54.260        13
54.270         0
54.280         7
54.290        13
54.300         0
54.310        20
54.320        47
54.330        33
54.340        13
54.350        13
54.360        13
54.370        33
54.380         7
54.390         7
54.400         7
54.410         7
54.420        27
54.430         7
54.440        20
54.450        13
54.460         7
54.470        13
54.480        13
54.490        13
54.500        13
54.510        27
54.520        27
54.530        13
54.540        20
54.550        20
54.560        27
54.570        20
54.580        20
54.590         7
54.600        13
54.610        13
54.620        47
54.630        40
54.640        13
54.650        20
54.660        20
54.670        13
54.680        13
54.690        13
54.700         7
54.710        27
54.720        13
54.730         7
54.740        20
54.750        13
54.760         7
54.770         0
54.780        47
54.790        13
54.800        40
54.810        20
54.820         7
54.830        27
54.840         0
54.850        20
54.860        27
54.870        47
54.880        20
54.890         7
54.900        27
54.910        20
54.920         7
54.930        33
54.940        20
54.950         0
54.960        20
54.970        33
54.980        27
54.990         0
55.000         0
55.010        20
55.020         7
55.030        13
55.040        20
55.050        20
55.060         0
55.070        13
55.080        13
55.090        13
55.100        33
55.110         7
55.120         7
55.130        13
55.140         7
55.150         7
55.160        13
55.170        13
55.180        20
55.190         7
55.200         0
55.210        27
55.220         7
55.230        13
55.240        13
55.250        13
55.260         7
55.270        13
55.280         7
55.290        13
55.300         7
55.310        20
55.320         0
55.330        13
55.340         7
55.350        13
55.360        13
55.370         0
55.380         7
55.390         7
55.400         7
55.410         0
55.420        27
55.430         7
55.440         7
55.450        27
55.460        13
55.470        20
55.480         7
55.490        33
55.500         7
55.510        20
55.520         7
55.530        27
55.540        20
55.550         7
55.560        20
55.570         7
55.580         0
55.590        13
55.600        33
55.610        13
55.620         7
55.630        27
55.640        20
55.650        13
55.660        13
55.670        33
55.680         0
55.690        27
55.700         7
55.710         7
55.720        20
55.730        27
55.740        13
55.750        13
55.760         0
55.770        27
55.780         7
55.790        27
55.800        27
55.810         7
55.820        13
55.830         7
55.840        20
55.850         7
55.860        20
55.870        27
55.880         7
55.890         7
55.900        33
55.910        27
55.920        13
55.930         7
55.940         7
55.950        40
55.960         7
55.970         7
55.980        13
55.990         7
56.000         0
56.010        13
56.020        13
56.030         7
56.040         0
56.050        27
56.060        20
56.070         7
56.080        20
56.090        20
56.100        33
56.110        13
56.120         7
56.130         0
56.140         7
56.150        53
56.160        13
56.170         7
56.180         7
56.190        13
56.200         7
56.210         0
56.220        27
56.230        20
56.240        27
56.250        20
56.260        13
56.270         0
56.280        20
56.290        20
56.300         7
56.310        27
56.320        33
56.330         7
56.340        20
56.350         0
56.360         7
56.370         7
56.380        13
56.390        27
56.400        20
56.410        13
56.420        20
56.430         7
56.440        20
56.450         7
56.460        20
56.470        13
56.480        40
56.490        13
56.500        33
56.510        27
56.520        20
56.530        13
56.540        13
56.550         7
56.560        33
56.570        13
56.580        20
56.590        13
56.600         0
56.610        33
56.620        20
56.630        33
56.640         0
56.650        20
56.660        20
56.670         7
56.680        33
56.690        13
56.700        20
56.710        20
56.720        13
56.730        13
56.740        13
56.750        13
56.760         7
56.770        20
56.780        13
56.790        33
56.800        27
56.810        33
56.820        20
56.830        27
56.840        13
56.850        20
56.860         0
56.870        40
56.880        13
56.890        13
56.900        13
56.910        13
56.920         7
56.930         0
56.940        20
56.950        20
56.960        27
56.970        20
56.980        13
56.990        27
57.000        13
57.010        20
57.020        13
57.030        20
57.040        13
57.050        13
57.060         7
57.070        20
57.080        27
57.090        27
57.100        20
57.110        20
57.120        40
57.130        13
57.140        13
57.150        40
57.160        40
57.170        33
57.180         7
57.190         7
57.200        27
57.210        13
57.220        13
57.230        20
57.240        27
57.250         7
57.260        27
57.270        27
57.280         0
57.290        27
57.300        73
57.310        33
57.320        33
57.330        47
57.340        47
57.350        53
57.360        60
57.370        40
57.380        60
57.390        40
57.400        67
57.410        80
57.420        73
57.430        40
57.440       113
57.450       100
57.460        60
57.470       193
57.480       267
57.490       280
57.500       233
57.510       253
57.520       320
57.530       293
57.540       360
57.550       273
57.560       247
57.570       213
57.580       167
57.590       200
57.600       113
57.610       140
57.620        53
57.630        87
57.640       127
57.650       167
57.660       140
57.670       247
57.680       280
57.690       160
57.700       213
57.710       173
57.720       187
57.730       187
57.740       147
57.750       140
57.760       100
57.770       113
57.780        73
57.790        67
57.800        33
57.810        20
57.820        67
57.830        93
57.840        80
57.850        73
57.860        67
57.870        67
57.880        93
57.890        67
57.900        53
57.910        33
57.920        93
57.930        53
57.940        27
57.950        53
57.960        87
57.970        87
57.980        33
57.990        33
58.000        40
58.010         7
58.020        53
58.030        20
58.040        47
58.050        13
58.060        53
58.070        40
58.080        33
58.090        47
58.100        53
58.110        40
58.120        13
58.130        33
58.140        20
58.150        20
58.160        13
58.170        13
58.180        27
58.190         7
58.200        40
58.210        20
58.220         7
58.230        20
58.240        27
58.250        20
58.260        13
58.270        13
58.280        27
58.290        27
58.300        13
58.310         0
58.320        33
58.330        33
58.340         7
58.350         7
58.360        27
58.370         7
58.380        20
58.390        27
58.400        27
58.410         7
58.420         7
58.430         7
58.440         7
58.450        20
58.460         7
58.470        27
58.480        20
58.490         7
58.500        13
58.510        27
58.520         7
58.530        20
58.540        20
58.550         7
58.560        13
58.570        20
58.580         7
58.590         7
58.600        13
58.610         0
58.620         0
58.630        20
58.640        27
58.650        40
58.660         7
58.670         0
58.680        27
58.690         0
58.700        27
58.710         7
58.720         0
58.730        27
58.740        13
58.750         7
58.760        13
58.770        13
58.780        13
58.790         7
58.800        27
58.810        20
58.820        13
58.830        33
58.840        33
58.850        13
58.860         0
58.870        13
58.880        13
58.890        33
58.900        20
58.910         7
58.920         7
58.930         7
58.940        27
58.950         7
58.960         0
58.970        20
58.980         7
58.990        13
59.000        13
59.010        27
59.020        13
59.030        13
59.040         7
59.050        20
59.060        13
59.070        27
59.080        13
59.090        13
59.100        20
59.110         7
59.120        13
59.130        27
59.140        20
59.150        13
59.160         7
59.170        27
59.180         7
59.190         0
59.200         0
59.210         0
59.220        13
59.230        13
59.240        13
59.250         7
59.260        27
59.270        20
59.280        27
59.290        13
59.300        20
59.310        20
59.320        13
59.330        20
59.340        13
59.350        47
59.360        27
59.370        13
59.380        20
59.390        13
59.400        20
59.410         0
59.420        47
59.430        27
59.440        20
59.450        13
59.460        20
59.470        27
59.480        20
59.490        33
59.500        33
59.510        33
59.520        20
59.530         0
59.540         7
59.550         7
59.560        13
59.570        27
59.580        27
59.590        13
59.600        20
59.610        33
59.620        20
59.630        27
59.640        13
59.650        13
59.660        27
59.670        13
59.680         7
59.690        13
59.700        13
59.710         0
59.720        27
59.730        13
59.740         7
59.750         7
59.760        20
59.770        13
59.780        27
59.790        13
59.800        40
59.810        20
59.820        33
59.830        13
59.840        20
59.850         0
59.860        20
59.870        20
59.880        27
59.890         0
59.900        13
59.910        20
59.920        20
59.930        13
59.940         0
59.950        20
59.960        40
59.970         7
59.980        13
59.990        20
60.000        27
