20.000         7
20.010         7
20.020        27
20.030        20
20.040        27
20.050        47
20.060        47
20.070        40
20.080        47
20.090        27
20.100        67
20.110        47
20.120        33
20.130        33
20.140        67
20.150        60
20.160        53
20.170        53
20.180        33
20.190        27
20.200        53
20.210        33
20.220        33
20.230        20
20.240        67
20.250        53
20.260        53
20.270        53
20.280        47
20.290        20
20.300        67
20.310        27
20.320        67
20.330        20
20.340        40
20.350        67
20.360        80
20.370        87
20.380        80
20.390        33
20.400        93
20.410        20
20.420        47
20.430        67
20.440        53
20.450        67
20.460        73
20.470        67
20.480        53
20.490        33
20.500        53
20.510        33
20.520        33
20.530        67
20.540        80
20.550        47
20.560        47
20.570        60
20.580        47
20.590        47
20.600        67
20.610        20
20.620        60
20.630        93
20.640        67
20.650        27
20.660        33
20.670        47
20.680        53
20.690        47
20.700        40
20.710        67
20.720        73
20.730        53
20.740        67
20.750        80
20.760        47
20.770        47
20.780        67
20.790        40
20.800        40
20.810        27
20.820        73
20.830        73
20.840        47
20.850        33
20.860        53
20.870        60
20.880        73
20.890        40
20.900        53
20.910        60
20.920        33
20.930        73
20.940        27
20.950        27
20.960        33
20.970        53
20.980        53
20.990        33
21.000        27
21.010        53
21.020        53
21.030        33
21.040        13
21.050        27
21.060        40
21.070        47
21.080        33
21.090        60
21.100        60
21.110        33
21.120        53
21.130        40
21.140        60
21.150        60
21.160        60
21.170        40
21.180        13
21.190        80
21.200        67
21.210        33
21.220        27
21.230        47
21.240        73
21.250        40
21.260        47
21.270        47
21.280        33
21.290        53
21.300        53
21.310        33
21.320        53
21.330        40
21.340        53
21.350        47
21.360        53
21.370        47
21.380        47
21.390        33
21.400        40
21.410        47
21.420        73
21.430        20
21.440        33
21.450        87
21.460        40
21.470        33
21.480        47
21.490        60
21.500        60
21.510        27
21.520        80
21.530        13
21.540        80
21.550        27
21.560        13
21.570        47
21.580        27
21.590        67
21.600        40
21.610        27
21.620        27
21.630        47
21.640        40
21.650        53
21.660        13
21.670        80
21.680        33
21.690        20
21.700        40
21.710        27
21.720        53
21.730        33
21.740        80
21.750        13
21.760        33
21.770        27
21.780        67
21.790        60
21.800        67
21.810        33
21.820        47
21.830        67
21.840        60
21.850        67
21.860        20
21.870        33
21.880        33
21.890        47
21.900        33
21.910        60
21.920        53
21.930        60
21.940        13
21.950        27
21.960        27
21.970        27
21.980        27
21.990        60
22.000        47
22.010        20
22.020        33
22.030        13
22.040        60
22.050        40
22.060        27
22.070        40
22.080        33
22.090        40
22.100        73
22.110        40
22.120        60
22.130        33
22.140        40
22.150        27
22.160        40
22.170        53
22.180        60
22.190        33
22.200        20
22.210        20
22.220        47
22.230        40
22.240        40
22.250        20
22.260        40
22.270        60
22.280        33
22.290        47
22.300        33
22.310        27
22.320        33
22.330        33
22.340        47
22.350        33
22.360        47
22.370         7
22.380        33
22.390        27
22.400        60
22.410        53
22.420        40
22.430       107
22.440        73
22.450        40
22.460        80
22.470        53
22.480        53
22.490        60
22.500        67
22.510        60
22.520        73
22.530        93
22.540        80
22.550        40
22.560        47
22.570        40
22.580       127
22.590        73
22.600        87
22.610        80
22.620       100
22.630       107
22.640       127
22.650       153
22.660       193
22.670       107
22.680       180
22.690       247
22.700       227
22.710       293
22.720       253
22.730       440
22.740       387
22.750       287
22.760       307
22.770       240
22.780       347
22.790       300
22.800       267
22.810       247
22.820       227
22.830       247
22.840       173
22.850       167
22.860       120
22.870       167
22.880       167
22.890       113
22.900       153
22.910       107
22.920        40
22.930        60
22.940       127
22.950        53
22.960       120
22.970        87
22.980        40
22.990        60
23.000        60
23.010        33
23.020        47
23.030        40
23.040        87
23.050        47
23.060        47
23.070        80
23.080        80
23.090        47
23.100        53
23.110        20
23.120        73
23.130        40
23.140        60
23.150        33
23.160        80
23.170        27
23.180        67
23.190        60
23.200        67
23.210        20
23.220        67
23.230        33
23.240        47
23.250        47
23.260        20
23.270        40
23.280        20
23.290        40
23.300        60
23.310        40
23.320        33
23.330        33
23.340        33
23.350        40
23.360         7
23.370        60
23.380        27
23.390        33
23.400        40
23.410        20
23.420        33
23.430        53
23.440         7
23.450        40
23.460        60
23.470        60
23.480        33
23.490        20
23.500        40
23.510        73
23.520        67
23.530        67
23.540        47
23.550        27
23.560        60
23.570        60
23.580        33
23.590        13
23.600        47
23.610        33
23.620        33
23.630        53
23.640        27
23.650        47
23.660        13
23.670        53
23.680        60
23.690        33
23.700        20
23.710        60
23.720        33
23.730        40
23.740        40
23.750        27
23.760         7
23.770        20
23.780        13
23.790        33
23.800        27
23.810        53
23.820        20
23.830        53
23.840        67
23.850        67
23.860        33
23.870        33
23.880        67
23.890        47
23.900        40
23.910        27
23.920        27
23.930        40
23.940        47
23.950        40
23.960        27
23.970        20
23.980        53
23.990        33
24.000        13
24.010        20
24.020        33
24.030        33
24.040        67
24.050        33
24.060        13
24.070        27
24.080        47
24.090        27
24.100        33
24.110        20
24.120        33
24.130        47
24.140        40
24.150        40
24.160        27
24.170        33
24.180        60
24.190        27
24.200        40
24.210        20
24.220        67
24.230        33
24.240        53
24.250        47
24.260        47
24.270        47
24.280        33
24.290        53
24.300        40
24.310        13
24.320        20
24.330        27
24.340        27
24.350        33
24.360        80
24.370        27
24.380        67
24.390        27
24.400        13
24.410        20
24.420        27
24.430        13
24.440        20
24.450        20
24.460        33
24.470        47
24.480        40
24.490        20
24.500        27
24.510        40
24.520        40
24.530        13
24.540        40
24.550        27
24.560        40
24.570        20
24.580        20
24.590        47
24.600        27
24.610        40
24.620        27
24.630        33
24.640        47
24.650        53
24.660        47
24.670        67
24.680        40
24.690        27
24.700        47
24.710        40
24.720        40
24.730        40
24.740        53
24.750        40
24.760        73
24.770        20
24.780        53
24.790        27
24.800        60
24.810        40
24.820        53
24.830         0
24.840        20
24.850        47
24.860        33
24.870        47
24.880        33
24.890        13
24.900        53
24.910        40
24.920        27
24.930        67
24.940        13
24.950        33
24.960        53
24.970        33
24.980        60
24.990        13
25.000        40
25.010        13
25.020        13
25.030        33
25.040        40
25.050        27
25.060        40
25.070        53
25.080        20
25.090        33
25.100        33
25.110        33
25.120        53
25.130        20
25.140        60
25.150        13
25.160        27
25.170        60
25.180        60
25.190        27
25.200        13
25.210        47
25.220        40
25.230        27
25.240        40
25.250        13
25.260        47
25.270        27
25.280        53
25.290        47
25.300        33
25.310        27
25.320        40
25.330        33
25.340        40
25.350         7
25.360        33
25.370        27
25.380        27
25.390        40
25.400        40
25.410        27
25.420        40
25.430        27
25.440        40
25.450        33
25.460        47
25.470        27
25.480        67
25.490        20
25.500        33
25.510        47
25.520        80
25.530        80
25.540        47
25.550        93
25.560        33
25.570        80
25.580        67
25.590       100
25.600        33
25.610        80
25.620       100
25.630        60
25.640        67
25.650        87
25.660        47
25.670        60
25.680        33
25.690        73
25.700        33
25.710        27
25.720        13
25.730        47
25.740        27
25.750        20
25.760        27
25.770        47
25.780        13
25.790        53
25.800        13
25.810        27
25.820        20
25.830        33
25.840        27
25.850        20
25.860        33
25.870        13
25.880        53
25.890        67
25.900        67
25.910        33
25.920        40
25.930        40
25.940        40
25.950        40
25.960        33
25.970        27
25.980        27
25.990        20
26.000        40
26.010        33
26.020        40
26.030        47
26.040        20
26.050        13
26.060        40
26.070        47
26.080        53
26.090        33
26.100        33
26.110        40
26.120        47
26.130        53
26.140         0
26.150        67
26.160        33
26.170        40
26.180        33
26.190        33
26.200        40
26.210        53
26.220        60
26.230        33
26.240        47
26.250        33
26.260        47
26.270        27
26.280        60
26.290        33
26.300        20
26.310        53
26.320        20
26.330        13
26.340        27
26.350        33
26.360        33
26.370        20
26.380        33
26.390        33
26.400        27
26.410        40
26.420        20
26.430        33
26.440        13
26.450        60
26.460        53
26.470        53
26.480        33
26.490        53
26.500        33
26.510        20
26.520        20
26.530        67
26.540        53
26.550        47
26.560        33
26.570        27
26.580        47
26.590        47
26.600        33
26.610        40
26.620        47
26.630        27
26.640        33
26.650        33
26.660         7
26.670        33
26.680        40
26.690         7
26.700        27
26.710        47
26.720        27
26.730        20
26.740        33
26.750        33
26.760        40
26.770        40
26.780        27
26.790        40
26.800        53
26.810        20
26.820        53
26.830        47
26.840        47
26.850        27
26.860        33
26.870        33
26.880        20
26.890        47
26.900        47
26.910        40
26.920        47
26.930        33
26.940        20
26.950        13
26.960        13
26.970        53
26.980        13
26.990        27
27.000        20
27.010        40
27.020        27
27.030        27
27.040        40
27.050        60
27.060        27
27.070        13
27.080        53
27.090        27
27.100        47
27.110        33
27.120        27
27.130        33
27.140        13
27.150        13
27.160        67
27.170        27
27.180        40
27.190        53
27.200        20
27.210        33
27.220        53
27.230        33
27.240        33
27.250        27
27.260        13
27.270        20
27.280        20
27.290        33
27.300        27
27.310        33
27.320        13
27.330        33
27.340        20
27.350        27
27.360        33
27.370         7
27.380        40
27.390        60
27.400        40
27.410        60
27.420        47
27.430        27
27.440        33
27.450        13
27.460        27
27.470        20
27.480        27
27.490        27
27.500        40
27.510        60
27.520        53
27.530        20
27.540        33
27.550        13
27.560         7
27.570        33
27.580        33
27.590        67
27.600        20
27.610        13
27.620        40
27.630        27
27.640        33
27.650        33
27.660        33
27.670        47
27.680        33
27.690        13
27.700        20
27.710         7
27.720        33
27.730        20
27.740        27
27.750        27
27.760        27
27.770         7
27.780        20
27.790        20
27.800        47
27.810        13
27.820        40
27.830        33
27.840        40
27.850        40
27.860        40
27.870        40
27.880        33
27.890        40
27.900        47
27.910        33
27.920        40
27.930        47
27.940        33
27.950        27
27.960        20
27.970        27
27.980        53
27.990        40
28.000        60
28.010        40
28.020        27
28.030        13
28.040        33
28.050        60
28.060        60
28.070        33
28.080        13
28.090        40
28.100        53
28.110        13
28.120        33
28.130        27
28.140        27
28.150        27
28.160        27
28.170        33
28.180        47
28.190        20
28.200        27
28.210        27
28.220        27
28.230         7
28.240        20
28.250        40
28.260        13
28.270        47
28.280        27
28.290        20
28.300        40
28.310        20
28.320        20
28.330         7
28.340        33
28.350        20
28.360        13
28.370         0
28.380        27
28.390        27
28.400        20
28.410        27
28.420        40
28.430        47
28.440        47
28.450        27
28.460        47
28.470        27
28.480        20
28.490        27
28.500        13
28.510         0
28.520        33
28.530        27
28.540        13
28.550        27
28.560        13
28.570        27
28.580        20
28.590        53
28.600        13
28.610         7
28.620        53
28.630        13
28.640        27
28.650        20
28.660        27
28.670        27
28.680        47
28.690        33
28.700        13
28.710        40
28.720        20
28.730        33
28.740        47
28.750        33
28.760        47
28.770        33
28.780        33
28.790        53
28.800        20
28.810        40
28.820        27
28.830        47
28.840        13
28.850        20
28.860        40
28.870         7
28.880        53
28.890         7
28.900        13
28.910        40
28.920        20
28.930        27
28.940        27
28.950        60
28.960        20
28.970        20
28.980        13
28.990        20
29.000        27
29.010        40
29.020        47
29.030        27
29.040        20
29.050        27
29.060        53
29.070        53
29.080        20
29.090        20
29.100        33
29.110        47
29.120        33
29.130        27
29.140        20
29.150        20
29.160        33
29.170        27
29.180        40
29.190        53
29.200        33
29.210        20
29.220        60
29.230        13
29.240        13
29.250        27
29.260        20
29.270        20
29.280        20
29.290        33
29.300        27
29.310        33
29.320        13
29.330        40
29.340        33
29.350        67
29.360        47
29.370        40
29.380        33
29.390        27
29.400        20
29.410        20
29.420        20
29.430        40
29.440        27
29.450        33
29.460        53
29.470        53
29.480        67
29.490        47
29.500        33
29.510        33
29.520        27
29.530        33
29.540        13
29.550        13
29.560         7
29.570        27
29.580        27
29.590        20
29.600        27
29.610        13
29.620        20
29.630         7
29.640        33
29.650        40
29.660        47
29.670        40
29.680        20
29.690        13
29.700        53
29.710        53
29.720        13
29.730        27
29.740        13
29.750        13
29.760        27
29.770        53
29.780        40
29.790        13
29.800        20
29.810        47
29.820        33
29.830        27
29.840        47
29.850        33
29.860        40
29.870        40
29.880        33
29.890        53
29.900        20
29.910         7
29.920        40
29.930        13
29.940        20
29.950        40
29.960        40
29.970        47
29.980        47
29.990         7
30.000        20
30.010        33
30.020        40
30.030        27
30.040        33
30.050         7
30.060        27
30.070        20
30.080        47
30.090         7
30.100        40
30.110        13
30.120        40
30.130        13
30.140        33
30.150        33
30.160        20
30.170        53
30.180        47
30.190        33
30.200         0
30.210        20
30.220        27
30.230        13
30.240        33
30.250        47
30.260        47
30.270        20
30.280        20
30.290        20
30.300        33
30.310        20
30.320        13
30.330        27
30.340        47
30.350        33
30.360        27
30.370        13
30.380        27
30.390        27
30.400        20
30.410        40
30.420        47
30.430        27
30.440        40
30.450        47
30.460        47
30.470        20
30.480        20
30.490        20
30.500        33
30.510        27
30.520         7
30.530        13
30.540        20
30.550        13
30.560        13
30.570        27
30.580        13
30.590        47
30.600        27
30.610        40
30.620        13
30.630        13
30.640        20
30.650         7
30.660        47
30.670        20
30.680        20
30.690        27
30.700        33
30.710        27
30.720        13
30.730        47
30.740        27
30.750        27
30.760        47
30.770        40
30.780        40
30.790        33
30.800        33
30.810        13
30.820        20
30.830        20
30.840        20
30.850        20
30.860        20
30.870        20
30.880        20
30.890        27
30.900        20
30.910        40
30.920        60
30.930        27
30.940        40
30.950        40
30.960        40
30.970        27
30.980        27
30.990        27
31.000        27
31.010        47
31.020        27
31.030        27
31.040        40
31.050        47
31.060        27
31.070        20
31.080        60
31.090        33
31.100         7
31.110        20
31.120        20
31.130        33
31.140        27
31.150         0
31.160        53
31.170        33
31.180        20
31.190        40
31.200        40
31.210        13
31.220        40
31.230        13
31.240        20
31.250         7
31.260        20
31.270        20
31.280        40
31.290        60
31.300         7
31.310        27
31.320        40
31.330        27
31.340         7
31.350        27
31.360        60
31.370        13
31.380        33
31.390        27
31.400        47
31.410        33
31.420        13
31.430        27
31.440        20
31.450        80
31.460        27
31.470        20
31.480        67
31.490        40
31.500        33
31.510        27
31.520        33
31.530        13
31.540        47
31.550        33
31.560        33
31.570        80
31.580        33
31.590        20
31.600        33
31.610        13
31.620        20
31.630        40
31.640        33
31.650        33
31.660        33
31.670        47
31.680        20
31.690        47
31.700        60
31.710        33
31.720        47
31.730        53
31.740        53
31.750        27
31.760         7
31.770        47
31.780        33
31.790        27
31.800        27
31.810        33
31.820        40
31.830        33
31.840        40
31.850        40
31.860        73
31.870        47
31.880        47
31.890        53
31.900        47
31.910        13
31.920        27
31.930        20
31.940        53
31.950        33
31.960        40
31.970        60
31.980        47
31.990        33
32.000        67
32.010        20
32.020        40
32.030        53
32.040        53
32.050        27
32.060        53
32.070        33
32.080        73
32.090        60
32.100        60
32.110        20
32.120        87
32.130        67
32.140       127
32.150        93
32.160        60
32.170       113
32.180       133
32.190       167
32.200       153
32.210       133
32.220       160
32.230       167
32.240       180
32.250       153
32.260       227
32.270       307
32.280       267
32.290       313
32.300       307
32.310       313
32.320       360
32.330       473
32.340       540
32.350       673
32.360       606
32.370       753
32.380       760
32.390       786
32.400      1046
32.410      1106
32.420      1160
32.430      1259
32.440      1093
32.450      1220
32.460      1020
32.470       966
32.480      1080
32.490       973
32.500       766
32.510       760
32.520       693
32.530       560
32.540       526
32.550       433
32.560       433
32.570       373
32.580       307
32.590       320
32.600       247
32.610       193
32.620       200
32.630       120
32.640       127
32.650       113
32.660       127
32.670        73
32.680       113
32.690       127
32.700       120
32.710       107
32.720        40
32.730        73
32.740        67
32.750        47
32.760        27
32.770        20
32.780        67
32.790        87
32.800        60
32.810        60
32.820        20
32.830        67
32.840        20
32.850        20
32.860        20
32.870        40
32.880        27
32.890        33
32.900        27
32.910        40
32.920        33
32.930        60
32.940        27
32.950        47
32.960        67
32.970        80
32.980        40
32.990        47
33.000        33
33.010        27
33.020        60
33.030        47
33.040        47
33.050        33
33.060        47
33.070        13
33.080        40
33.090        60
33.100        40
33.110        33
33.120        33
33.130        40
33.140        40
33.150        33
33.160        53
33.170        33
33.180        27
33.190        27
33.200        47
33.210        27
33.220        27
33.230        53
33.240        40
33.250        20
33.260        33
33.270        33
33.280        20
33.290        47
33.300        20
33.310        27
33.320        40
33.330        47
33.340         7
33.350         7
33.360        47
33.370        33
33.380        47
33.390        47
33.400        13
33.410        20
33.420         7
33.430        40
33.440        40
33.450        33
33.460        40
33.470        47
33.480        20
33.490        20
33.500        33
33.510        27
33.520        27
33.530        13
33.540        53
33.550         7
33.560        67
33.570        33
33.580        27
33.590        33
33.600        27
33.610        27
33.620        73
33.630        40
33.640        20
33.650        27
33.660        13
33.670        40
33.680         7
33.690        20
33.700        40
33.710        40
33.720        40
33.730        60
33.740        20
33.750        40
33.760        27
33.770        47
33.780        33
33.790        33
33.800        13
33.810        27
33.820        80
33.830        13
33.840        13
33.850        13
33.860        27
33.870        53
33.880        13
33.890        53
33.900        20
33.910        27
33.920        53
33.930         7
33.940        33
33.950        13
33.960         7
33.970        33
33.980        33
33.990        27
34.000        40
34.010        47
34.020        20
34.030        20
34.040        20
34.050        13
34.060        20
34.070        33
34.080        20
34.090        27
34.100        20
34.110        60
34.120        67
34.130        20
34.140        20
34.150        20
34.160        20
34.170        40
34.180        33
34.190        27
34.200        13
34.210        20
34.220        33
34.230        33
34.240        20
34.250        27
34.260        20
34.270        53
34.280        20
34.290         0
34.300        33
34.310        27
34.320        47
34.330         7
34.340        33
34.350        13
34.360        27
34.370        13
34.380        40
34.390        20
34.400        27
34.410        13
34.420        33
34.430        33
34.440        53
34.450        13
34.460         7
34.470        20
34.480         7
34.490        20
34.500        27
34.510        13
34.520        40
34.530        33
34.540        40
34.550        27
34.560        27
34.570        20
34.580        33
34.590        60
34.600        13
34.610        13
34.620        33
34.630         7
34.640        33
34.650        27
34.660        13
34.670        47
34.680        13
34.690        47
34.700        33
34.710        20
34.720        27
34.730        40
34.740        33
34.750        27
34.760        20
34.770        33
34.780        13
34.790        20
34.800        27
34.810        27
34.820        20
34.830        33
34.840        67
34.850        27
34.860         7
34.870        27
34.880        53
34.890        13
34.900        13
34.910        53
34.920        53
34.930        13
34.940        40
34.950        47
34.960        80
34.970        27
34.980        33
34.990         7
35.000        87
35.010        67
35.020        60
35.030        67
35.040        53
35.050        53
35.060        87
35.070        67
35.080        73
35.090       107
35.100       127
35.110       187
35.120       133
35.130       187
35.140       233
35.150       307
35.160       200
35.170       300
35.180       340
35.190       473
35.200       413
35.210       380
35.220       367
35.230       287
35.240       207
35.250       220
35.260       253
35.270       173
35.280       180
35.290       167
35.300       220
35.310       153
35.320       147
35.330       147
35.340        73
35.350        40
35.360        53
35.370        47
35.380        20
35.390        53
35.400        47
35.410        33
35.420        47
35.430        53
35.440        47
35.450        27
35.460        27
35.470        53
35.480        27
35.490        40
35.500        20
35.510        20
35.520        33
35.530        20
35.540        27
35.550        53
35.560        27
35.570        33
35.580        13
35.590        33
35.600        20
35.610        33
35.620        33
35.630        47
35.640        27
35.650        40
35.660        27
35.670        13
35.680         7
35.690        33
35.700        20
35.710        27
35.720        27
35.730        33
35.740         0
35.750        40
35.760        33
35.770        47
35.780        27
35.790        27
35.800        20
35.810        47
35.820        27
35.830        13
35.840        33
35.850        33
35.860        20
35.870        33
35.880        13
35.890        33
35.900        13
35.910        40
35.920        20
35.930        13
35.940        27
35.950        20
35.960        20
35.970        33
35.980        27
35.990        33
36.000        20
36.010        27
36.020        53
36.030        20
36.040        13
36.050        13
36.060        20
36.070        33
36.080        33
36.090        33
36.100        13
36.110        27
36.120        33
36.130        13
36.140        27
36.150         7
36.160         7
36.170        20
36.180        27
36.190        13
36.200        20
36.210         7
36.220        20
36.230        13
36.240        40
36.250        13
36.260        13
36.270        60
36.280        27
36.290        13
36.300        13
36.310        33
36.320        20
36.330        47
36.340        27
36.350        33
36.360        33
36.370        27
36.380        27
36.390        13
36.400        40
36.410        33
36.420        27
36.430        27
36.440        20
36.450        47
36.460        13
36.470        27
36.480        40
36.490        27
36.500        20
36.510         0
36.520        33
36.530        40
36.540        40
36.550        33
36.560        27
36.570        27
36.580        33
36.590        27
36.600        20
36.610        13
36.620        20
36.630        27
36.640        33
36.650        20
36.660        20
36.670        33
36.680        13
36.690         7
36.700         7
36.710        13
36.720        40
36.730        20
36.740        20
36.750        53
36.760        33
36.770        27
36.780         7
36.790         7
36.800        13
36.810        20
36.820        20
36.830        33
36.840        27
36.850        20
36.860        27
36.870        47
36.880        40
36.890        27
36.900        40
36.910        40
36.920        33
36.930        40
36.940        33
36.950        40
36.960         7
36.970        27
36.980        40
36.990        20
37.000        33
37.010        27
37.020        13
37.030        13
37.040        20
37.050        20
37.060        33
37.070        13
37.080        47
37.090         7
37.100         7
37.110        47
37.120        53
37.130        20
37.140        13
37.150        20
37.160        27
37.170        13
37.180        27
37.190        20
37.200        47
37.210        27
37.220         7
37.230        13
37.240        27
37.250        20
37.260        40
37.270        33
37.280        27
37.290        20
37.300        40
37.310        27
37.320        13
37.330        40
37.340         0
37.350        40
37.360        13
37.370        20
37.380        20
37.390        27
37.400        20
37.410        33
37.420        13
37.430        27
37.440         7
37.450         0
37.460        40
37.470         0
37.480        13
37.490        27
37.500        27
37.510        40
37.520        20
37.530        13
37.540        47
37.550        27
37.560        20
37.570        60
37.580        13
37.590        53
37.600        13
37.610        40
37.620        20
37.630        27
37.640        40
37.650        33
37.660        20
37.670        40
37.680        20
37.690        40
37.700        53
37.710        40
37.720        53
37.730       100
37.740        87
37.750        87
37.760       100
37.770       160
37.780       227
37.790       300
37.800       293
37.810       227
37.820       213
37.830       133
37.840       120
37.850       100
37.860        87
37.870       127
37.880       133
37.890       187
37.900       107
37.910       173
37.920       100
37.930        40
37.940        53
37.950        60
37.960        40
37.970        67
37.980        60
37.990        27
38.000        20
38.010        27
38.020        40
38.030        27
38.040        13
38.050        33
38.060        27
38.070        40
38.080        20
38.090        27
38.100        33
38.110        20
38.120        27
38.130        33
38.140        13
38.150        27
38.160        27
38.170        47
38.180        87
38.190        27
38.200        13
38.210        33
38.220         7
38.230        20
38.240         7
38.250        33
38.260        33
38.270        33
38.280         7
38.290        13
38.300        33
38.310        13
38.320        27
38.330        27
38.340        40
38.350        33
38.360        40
38.370        33
38.380        27
38.390        27
38.400        13
38.410        20
38.420        20
38.430        27
38.440        33
38.450        20
38.460        33
38.470        27
38.480        27
38.490        27
38.500        20
38.510        33
38.520        27
38.530        27
38.540        13
38.550        40
38.560        20
38.570        20
38.580        20
38.590        13
38.600        33
38.610        20
38.620        33
38.630        27
38.640        53
38.650        33
38.660        20
38.670        20
38.680        20
38.690        13
38.700        13
38.710         0
38.720         7
38.730        47
38.740        13
38.750        20
38.760        40
38.770        13
38.780        27
38.790         7
38.800        40
38.810         7
38.820        27
38.830        33
38.840        27
38.850        20
38.860        27
38.870        40
38.880        13
38.890        33
38.900        33
38.910        13
38.920        47
38.930        27
38.940        13
38.950        20
38.960        13
38.970        33
38.980        40
38.990        33
39.000        13
39.010         7
39.020        27
39.030        13
39.040        40
39.050        20
39.060        27
39.070        20
39.080        53
39.090        47
39.100         7
39.110        27
39.120         7
39.130        13
39.140        20
39.150        27
39.160        33
39.170        20
39.180         7
39.190        27
39.200        27
39.210         7
39.220        13
39.230        40
39.240         0
39.250        33
39.260        33
39.270        40
39.280        13
39.290        47
39.300        40
39.310        33
39.320         7
39.330        60
39.340        40
39.350        27
39.360        40
39.370         7
39.380        33
39.390         7
39.400        13
39.410         7
39.420         7
39.430        33
39.440        33
39.450         7
39.460         7
39.470         7
39.480        27
39.490        40
39.500        20
39.510        13
39.520        13
39.530        33
39.540        20
39.550        13
39.560        33
39.570        40
39.580        27
39.590        13
39.600        13
39.610        47
39.620        20
39.630        27
39.640        33
39.650        40
39.660         7
39.670        13
39.680         7
39.690        33
39.700        47
39.710         7
39.720        13
39.730        33
39.740        13
39.750         7
39.760        33
39.770        47
39.780        13
39.790        27
39.800        27
39.810        20
39.820         7
39.830        40
39.840        73
39.850        53
39.860        20
39.870        53
39.880        80
39.890        73
39.900        87
39.910        73
39.920        67
39.930       107
39.940       113
39.950       173
39.960       113
39.970       147
39.980       173
39.990       173
40.000       200
40.010       253
40.020       260
40.030       133
40.040       300
40.050       153
40.060       220
40.070       200
40.080       180
40.090       167
40.100       147
40.110       187
40.120       180
40.130       120
40.140       100
40.150        93
40.160       120
40.170        93
40.180        73
40.190       100
40.200        87
40.210        67
40.220        33
40.230        33
40.240        67
40.250         7
40.260        53
40.270        73
40.280        27
40.290        20
40.300        33
40.310        27
40.320        20
40.330        40
40.340        60
40.350        33
40.360         7
40.370        53
40.380         7
40.390        20
40.400         0
40.410        60
40.420        20
40.430        20
40.440        27
40.450        53
40.460        20
40.470        27
40.480        20
40.490        40
40.500        40
40.510        40
40.520        73
40.530        13
40.540        20
40.550        47
40.560        13
40.570        40
40.580        20
40.590        20
40.600        33
40.610        20
40.620        20
40.630        47
40.640        27
40.650        20
40.660        53
40.670        20
40.680         7
40.690        33
40.700        27
40.710        13
40.720        20
40.730        27
40.740        27
40.750        47
40.760        33
40.770        33
40.780         7
40.790        33
40.800        20
40.810        27
40.820        20
40.830        53
40.840        40
40.850        53
40.860        20
40.870         0
40.880        27
40.890        20
40.900        27
40.910        20
40.920        27
40.930        33
40.940        20
40.950        47
40.960        27
40.970        13
40.980         7
40.990        20
41.000         7
41.010        13
41.020        40
41.030        13
41.040        40
41.050         7
41.060        47
41.070        20
41.080        20
41.090        53
41.100        13
41.110        13
41.120        27
41.130        47
41.140        47
41.150        20
41.160         7
41.170        27
41.180        20
41.190        20
41.200        13
41.210        33
41.220        33
41.230        20
41.240        20
41.250         0
41.260        33
41.270         7
41.280        13
41.290        20
41.300        13
41.310        40
41.320         7
41.330        13
41.340        40
41.350         7
41.360        20
41.370        27
41.380        20
41.390        20
41.400        13
41.410        27
41.420        33
41.430        20
41.440        27
41.450        20
41.460        40
41.470        33
41.480        27
41.490        20
41.500        47
41.510        60
41.520        33
41.530        53
41.540        33
41.550        73
41.560        20
41.570        47
41.580        20
41.590        27
41.600        13
41.610        73
41.620        80
41.630        87
41.640        73
41.650       100
41.660        80
41.670        73
41.680       100
41.690       100
41.700       100
41.710       100
41.720       107
41.730       120
41.740       167
41.750       113
41.760        80
41.770        60
41.780        47
41.790        40
41.800       133
41.810        80
41.820        47
41.830        87
41.840        60
41.850        47
41.860        80
41.870        33
41.880        47
41.890        47
41.900        27
41.910        20
41.920        13
41.930        20
41.940        13
41.950        27
41.960        40
41.970        53
41.980        27
41.990         7
42.000        13
42.010        67
42.020        40
42.030        20
42.040        27
42.050        13
42.060        27
42.070        40
42.080        13
42.090        27
42.100        33
42.110        40
42.120        33
42.130        13
42.140        27
42.150         7
42.160        33
42.170        40
42.180        33
42.190        27
42.200        33
42.210        33
42.220        13
42.230        20
42.240        27
42.250        20
42.260        40
42.270        27
42.280        27
42.290        40
42.300        20
42.310        13
42.320        27
42.330        27
42.340         0
42.350        27
42.360        27
42.370        67
42.380        20
42.390        27
42.400        13
42.410         7
42.420        27
42.430        33
42.440        20
42.450        40
42.460         7
42.470        33
42.480        47
42.490        20
42.500        13
42.510        27
42.520        13
42.530        27
42.540         7
42.550         0
42.560        20
42.570        13
42.580        60
42.590        13
42.600        20
42.610        33
42.620        33
42.630        20
42.640        13
42.650        27
42.660        20
42.670        20
42.680        20
42.690        20
42.700        33
42.710        27
42.720        27
42.730        20
42.740        13
42.750        13
42.760        13
42.770         7
42.780        20
42.790         7
42.800        20
42.810        27
42.820         7
42.830        27
42.840         7
42.850        33
42.860        33
42.870        33
42.880        13
42.890        20
42.900        27
42.910         7
42.920        20
42.930        33
42.940         7
42.950         7
42.960        20
42.970        20
42.980        40
42.990        47
43.000        27
43.010        27
43.020        27
43.030         7
43.040        27
43.050         7
43.060        20
43.070        27
43.080        27
43.090        20
43.100        13
43.110        20
43.120        47
43.130        33
43.140        47
43.150        40
43.160        20
43.170        40
43.180        27
43.190        33
43.200        40
43.210        13
43.220         7
43.230        40
43.240        20
43.250        20
43.260        40
43.270        40
43.280        13
43.290        53
43.300        47
43.310       100
43.320        93
43.330        53
43.340        73
43.350        93
43.360       107
43.370        93
43.380       133
43.390       107
43.400        53
43.410        67
43.420       133
43.430        93
43.440        73
43.450       100
43.460        80
43.470        93
43.480        60
43.490       100
43.500       107
43.510        53
43.520        87
43.530        67
43.540        47
43.550        47
43.560        33
43.570        20
43.580        47
43.590        33
43.600        53
43.610         7
43.620        40
43.630         7
43.640        13
43.650        40
43.660        20
43.670        13
43.680        40
43.690        40
43.700        13
43.710        13
43.720        53
43.730         0
43.740        20
43.750        40
43.760        13
43.770        27
43.780        13
43.790         7
43.800        13
43.810        13
43.820        27
43.830         7
43.840        40
43.850        27
43.860        20
43.870        20
43.880        13
43.890        27
43.900        40
43.910         7
43.920        20
43.930        27
43.940        27
43.950         0
43.960        33
43.970        53
43.980        47
43.990        13
44.000         7
44.010        47
44.020        27
44.030        33
44.040         7
44.050        20
44.060        13
44.070        60
44.080        53
44.090        13
44.100        33
44.110        33
44.120        33
44.130         7
44.140        13
44.150        13
44.160        40
44.170        27
44.180        40
44.190        13
44.200        20
44.210        20
44.220        13
44.230        33
44.240        53
44.250        33
44.260        27
44.270        27
44.280        13
44.290        20
44.300         7
44.310         7
44.320        60
44.330        27
44.340        20
44.350        40
44.360         7
44.370        20
44.380        27
44.390        27
44.400        20
44.410        13
44.420        27
44.430        33
44.440        13
44.450        20
44.460        20
44.470        40
44.480        20
44.490        47
44.500        20
44.510        27
44.520        33
44.530        47
44.540        27
44.550        27
44.560        27
44.570        13
44.580        27
44.590        20
44.600        40
44.610        27
44.620        13
44.630        60
44.640        27
44.650        27
44.660        20
44.670        20
44.680        13
44.690        27
44.700        40
44.710        13
44.720        40
44.730        40
44.740        20
44.750        13
44.760        27
44.770        13
44.780        33
44.790        27
44.800        27
44.810        13
44.820        47
44.830        27
44.840        27
44.850        33
44.860        47
44.870        27
44.880        60
44.890        40
44.900        27
44.910        33
44.920        13
44.930        40
44.940        20
44.950        47
44.960        20
44.970        40
44.980        27
44.990        20
45.000        73
45.010        27
45.020        33
45.030        27
45.040        73
45.050        40
45.060        27
45.070        33
45.080        13
45.090        33
45.100        20
45.110        47
45.120        53
45.130        53
45.140        47
45.150        20
45.160        47
45.170        53
45.180        40
45.190        20
45.200        47
45.210        13
45.220        73
45.230        60
45.240        33
45.250        40
45.260        20
45.270        53
45.280        40
45.290        33
45.300        27
45.310        53
45.320        33
45.330        40
45.340        40
45.350        73
45.360        53
45.370        60
45.380        20
45.390        47
45.400        33
45.410        40
45.420        27
45.430        33
45.440        53
45.450         7
45.460        73
45.470        40
45.480        60
45.490        47
45.500        33
45.510        27
45.520        27
45.530        53
45.540        33
45.550        53
45.560        73
45.570        47
45.580        80
45.590        73
45.600        27
45.610        40
45.620        33
45.630        47
45.640        47
45.650        47
45.660        47
45.670        40
45.680        53
45.690        53
45.700        73
45.710        80
45.720        73
45.730        47
45.740        27
45.750        47
45.760        73
45.770        53
45.780        47
45.790        67
45.800       100
45.810        40
45.820        80
45.830        47
45.840        80
45.850        73
45.860        33
45.870        87
45.880       113
45.890        87
45.900        53
45.910        73
45.920        93
45.930        53
45.940       100
45.950       113
45.960        53
45.970       100
45.980       100
45.990       107
46.000       173
46.010       160
46.020       147
46.030       107
46.040       160
46.050       193
46.060       173
46.070       113
46.080       213
46.090       207
46.100       227
46.110       213
46.120       193
46.130       307
46.140       327
46.150       227
46.160       440
46.170       460
46.180       360
46.190       420
46.200       373
46.210       486
46.220       586
46.230       620
46.240       593
46.250       773
46.260       833
46.270       753
46.280       873
46.290      1180
46.300      1279
46.310      1220
46.320      1233
46.330      1339
46.340      1546
46.350      1806
46.360      1913
46.370      2126
46.380      1953
46.390      2146
46.400      2306
46.410      2559
46.420      2566
46.430      2772
46.440      2452
46.450      2706
46.460      2666
46.470      3045
46.480      2772
46.490      2672
46.500      2726
46.510      2572
46.520      2446
46.530      2399
46.540      2406
46.550      2372
46.560      2219
46.570      2092
46.580      1813
46.590      1739
46.600      1906
46.610      1706
46.620      1426
46.630      1453
46.640      1313
46.650      1273
46.660      1086
46.670       893
46.680       833
46.690       880
46.700       753
46.710       660
46.720       606
46.730       600
46.740       546
46.750       533
46.760       573
46.770       393
46.780       373
46.790       327
46.800       273
46.810       340
46.820       260
46.830       293
46.840       273
46.850       247
46.860       240
46.870       193
46.880       180
46.890       167
46.900       187
46.910       173
46.920       147
46.930       153
46.940       173
46.950       120
46.960       140
46.970       113
46.980       147
46.990       100
47.000       140
47.010       153
47.020        93
47.030       127
47.040        87
47.050       100
47.060        60
47.070        67
47.080        67
47.090        80
47.100       140
47.110       107
47.120        87
47.130       100
47.140       107
47.150        73
47.160       113
47.170        67
47.180        80
47.190        80
47.200        47
47.210       107
47.220        87
47.230        93
47.240       107
47.250        80
47.260        60
47.270        73
47.280        60
47.290        80
47.300        53
47.310        67
47.320        33
47.330        67
47.340        60
47.350        73
47.360        67
47.370        40
47.380        73
47.390        33
47.400        67
47.410        60
47.420        40
47.430        40
47.440        73
47.450        47
47.460        33
47.470        53
47.480        40
47.490        40
47.500        73
47.510        67
47.520        53
47.530        33
47.540        40
47.550        73
47.560        60
47.570        53
47.580        13
47.590        33
47.600        33
47.610        13
47.620        93
47.630        67
47.640        20
47.650        87
47.660        33
47.670        47
47.680        27
47.690        47
47.700        47
47.710        40
47.720        60
47.730        40
47.740        60
47.750        33
47.760        47
47.770        40
47.780        47
47.790        20
47.800        33
47.810        47
47.820        40
47.830        47
47.840        40
47.850        20
47.860        40
47.870        53
47.880        40
47.890        33
47.900        33
47.910        27
47.920        53
47.930        47
47.940        47
47.950        33
47.960        53
47.970        47
47.980        13
47.990        27
48.000        27
48.010        27
48.020        33
48.030        47
48.040        33
48.050        40
48.060        27
48.070        53
48.080        33
48.090        27
48.100        40
48.110        20
48.120        47
48.130        27
48.140        40
48.150        33
48.160        13
48.170        47
48.180        33
48.190        40
48.200        13
48.210        60
48.220        27
48.230        27
48.240        40
48.250        33
48.260        47
48.270        33
48.280        33
48.290        53
48.300         7
48.310        27
48.320         7
48.330        40
48.340        40
48.350        20
48.360        40
48.370         7
48.380        20
48.390        13
48.400        20
48.410        53
48.420        47
48.430        47
48.440        40
48.450         7
48.460        27
48.470        27
48.480        53
48.490        20
48.500        33
48.510        13
48.520        13
48.530        53
48.540        53
48.550        33
48.560        40
48.570        20
48.580        27
48.590        47
48.600        33
48.610        13
48.620        27
48.630        27
48.640        60
48.650         7
48.660        20
48.670        33
48.680        53
48.690        47
48.700        47
48.710        20
48.720        27
48.730        33
48.740        33
48.750        40
48.760        40
48.770        40
48.780        27
48.790         7
48.800         0
48.810        20
48.820        33
48.830         7
48.840        53
48.850         7
48.860        40
48.870        33
48.880        20
48.890        20
48.900        33
48.910        20
48.920        33
48.930        27
48.940        40
48.950        20
48.960        13
48.970        53
48.980        53
48.990        33
49.000        33
49.010        33
49.020         0
49.030        27
49.040        20
49.050        13
49.060        20
49.070        33
49.080        27
49.090        47
49.100         0
49.110        47
49.120         7
49.130        33
49.140         7
49.150        40
49.160        13
49.170        27
49.180        73
49.190        33
49.200        27
49.210        53
49.220        40
49.230        20
49.240        27
49.250        27
49.260        27
49.270        13
49.280        27
49.290        13
49.300         0
49.310        20
49.320        40
49.330         0
49.340         7
49.350        40
49.360         0
49.370        20
49.380        40
49.390        33
49.400        27
49.410        33
49.420        27
49.430        20
49.440        20
49.450        33
49.460         7
49.470        13
49.480        40
49.490        33
49.500        33
49.510         7
49.520        13
49.530        33
49.540        20
49.550        20
49.560        47
49.570        40
49.580        33
49.590        33
49.600        13
49.610        13
49.620        20
49.630        13
49.640         7
49.650        20
49.660        27
49.670        20
49.680        27
49.690        20
49.700        13
49.710        27
49.720         7
49.730        33
49.740        33
49.750        13
49.760        27
49.770        27
49.780        13
49.790        20
49.800        20
49.810        27
49.820        33
49.830        20
49.840        33
49.850        33
49.860         7
49.870         7
49.880         0
49.890        13
49.900        47
49.910        40
49.920        27
49.930        20
49.940        27
49.950        33
49.960        27
49.970        13
49.980        27
49.990        27
50.000        27
50.010        13
50.020        20
50.030        27
50.040        13
50.050        27
50.060        33
50.070        20
50.080        13
50.090        33
50.100        27
50.110        13
50.120         7
50.130        13
50.140        27
50.150        20
50.160        27
50.170        33
50.180        20
50.190        20
50.200         7
50.210        20
50.220        27
50.230        40
50.240        47
50.250        20
50.260        20
50.270        20
50.280        20
50.290        20
50.300        13
50.310        20
50.320        53
50.330        20
50.340         7
50.350         7
50.360        27
50.370        27
50.380        40
50.390        33
50.400        27
50.410        47
50.420        27
50.430        33
50.440        13
50.450        33
50.460        20
50.470        20
50.480        13
50.490        40
50.500        20
50.510        27
50.520        20
50.530        20
50.540        33
50.550        27
50.560        40
50.570        13
50.580        27
50.590        27
50.600        27
50.610        13
50.620        27
50.630         7
50.640        40
50.650         0
50.660        20
50.670        13
50.680         7
50.690        27
50.700        20
50.710        27
50.720        33
50.730        27
50.740        20
50.750        33
50.760        27
50.770        27
50.780        20
50.790        20
50.800        20
50.810        27
50.820         7
50.830         7
50.840        20
50.850        27
50.860        27
50.870        40
50.880        27
50.890        27
50.900        40
50.910         7
50.920        27
50.930         7
50.940        33
50.950        47
50.960        47
50.970        33
50.980        13
50.990        27
51.000        13
51.010         7
51.020        13
51.030        13
51.040        13
51.050        13
51.060        20
51.070        33
51.080        13
51.090        13
51.100         7
51.110        40
51.120        20
51.130         7
51.140        20
51.150         0
51.160        40
51.170        13
51.180        33
51.190        13
51.200        27
51.210        13
51.220         0
51.230        33
51.240        20
51.250        13
51.260        27
51.270        33
51.280        33
51.290        20
51.300        20
51.310        20
51.320        13
51.330        20
51.340        27
51.350        33
51.360        40
51.370        40
51.380        33
51.390        13
51.400        13
51.410         7
51.420         0
51.430         7
51.440        33
51.450        27
51.460        33
51.470        27
51.480        33
51.490        13
51.500        40
51.510        40
51.520        13
51.530        13
51.540        20
51.550        33
51.560        33
51.570        13
51.580        13
51.590        27
51.600         7
51.610        20
51.620        20
51.630        27
51.640        27
51.650        13
51.660        20
51.670        13
51.680        33
51.690         7
51.700         7
51.710        13
51.720        20
51.730        27
51.740        27
51.750        20
51.760         7
51.770        20
51.780        27
51.790        33
51.800        33
51.810        40
51.820        27
51.830        20
51.840         7
51.850        13
51.860        20
51.870         7
51.880         0
51.890        27
51.900        20
51.910        20
51.920        13
51.930        13
51.940        13
51.950        20
51.960        33
51.970        20
51.980        20
51.990        33
52.000        33
52.010        20
52.020        27
52.030        27
52.040        33
52.050        33
52.060        20
52.070        13
52.080        13
52.090        13
52.100        60
52.110        27
52.120        40
52.130        40
52.140         7
52.150        33
52.160        13
52.170        67
52.180         7
52.190         0
52.200        27
52.210        20
52.220         7
52.230        20
52.240         7
52.250        27
52.260        33
52.270        27
52.280        13
52.290        60
52.300        13
52.310         7
52.320        33
52.330        13
52.340        20
52.350        40
52.360         7
52.370        33
52.380        13
52.390        20
52.400        27
52.410        67
52.420        13
52.430        20
52.440        47
52.450        40
52.460        13
52.470        27
52.480        40
52.490        20
52.500        40
52.510        40
52.520        53
52.530        47
52.540        60
52.550        60
52.560        40
52.570        67
52.580        33
52.590        93
52.600        47
52.610        80
52.620        47
52.630        47
52.640        40
52.650        67
52.660        20
52.670         7
52.680        33
52.690        60
52.700        40
52.710        33
52.720        53
52.730        40
52.740        27
52.750        53
52.760        27
52.770        53
52.780        13
52.790        27
52.800         7
52.810        33
52.820        40
52.830        20
52.840        20
52.850        13
52.860        27
52.870         7
52.880        13
52.890        40
52.900        33
52.910        20
52.920         0
52.930        20
52.940        33
52.950        20
52.960        27
52.970         7
52.980        40
52.990        40
53.000         7
53.010         7
53.020        20
53.030        47
53.040        13
53.050        40
53.060        20
53.070        27
53.080         7
53.090        20
53.100        20
53.110        20
53.120        33
53.130         7
53.140        33
53.150        13
53.160         7
53.170        27
53.180         7
53.190        40
53.200        13
53.210        20
53.220        20
53.230        27
53.240        27
53.250        13
53.260        13
53.270        20
53.280        13
53.290        27
53.300         0
53.310        33
53.320        13
53.330        33
53.340         7
53.350        13
53.360        13
53.370        40
53.380        53
53.390         0
53.400         7
53.410        20
53.420        33
53.430        20
53.440        27
53.450        27
53.460        27
53.470        20
53.480        27
53.490         7
53.500        20
53.510        27
53.520        13
53.530        13
53.540         7
53.550        47
53.560        20
53.570        13
53.580        47
53.590        27
53.600         7
53.610         0
53.620        20
53.630         7
53.640        47
53.650        47
53.660        13
53.670        13
53.680        33
53.690        13
53.700         7
53.710         7
53.720        13
53.730        20
53.740        20
53.750        27
53.760        13
53.770        40
53.780        13
53.790        27
53.800        13
53.810        27
53.820         7
53.830        13
53.840        20
53.850        20
53.860        27
53.870        33
53.880        47
53.890        27
53.900         7
53.910        33
53.920        13
53.930        20
53.940        40
53.950        40
53.960        20
53.970        33
53.980        13
53.990        13
54.000        27
54.010        33
54.020        20
54.030        20
54.040         7
54.050         0
54.060        33
54.070        13
54.080        40
54.090        33
54.100         7
54.110         0
54.120        20
54.130        13
54.140        33
54.150         0
54.160         7
54.170        20
54.180         7
54.190        20
54.200        27
54.210        27
54.220        20
54.230        40
54.240         7
54.250         7
54.260        20
54.270        20
54.280        47
54.290        20
54.300        47
54.310         0
54.320         7
54.330        20
54.340        13
54.350        27
54.360        20
54.370         7
54.380        13
54.390        20
54.400        13
54.410        13
54.420        47
54.430        20
54.440        20
54.450        27
54.460         7
54.470         7
54.480        13
54.490         0
54.500        13
54.510        20
54.520        20
54.530         7
54.540         7
54.550         7
54.560        13
54.570        27
54.580        33
54.590        47
54.600        20
54.610        33
54.620        13
54.630        27
54.640        13
54.650         7
54.660        20
54.670        13
54.680        27
54.690        13
54.700        27
54.710        27
54.720         0
54.730        27
54.740        27
54.750        27
54.760        13
54.770         7
54.780        27
54.790        13
54.800        27
54.810        27
54.820        13
54.830        20
54.840        53
54.850        20
54.860         0
54.870        20
54.880         7
54.890        27
54.900        40
54.910        33
54.920        20
54.930        27
54.940        20
54.950         7
54.960        20
54.970         0
54.980        27
54.990        13
55.000        13
55.010         0
55.020        20
55.030        27
55.040        13
55.050        33
55.060         7
55.070        13
55.080        13
55.090        27
55.100        20
55.110         7
55.120        33
55.130        27
55.140         7
55.150         7
55.160        27
55.170        40
55.180        27
55.190        13
55.200        13
55.210        13
55.220        33
55.230        13
55.240        20
55.250        13
55.260        27
55.270        20
55.280        13
55.290        27
55.300        20
55.310        20
55.320         7
55.330        20
55.340        27
55.350        13
55.360         0
55.370        27
55.380        20
55.390        13
55.400         7
55.410        20
55.420        27
55.430         7
55.440         7
55.450        20
55.460        47
55.470        13
55.480        40
55.490        27
55.500        13
55.510         7
55.520        20
55.530        20
55.540        53
55.550        47
55.560         7
55.570        20
55.580        20
55.590        13
55.600        13
55.610        13
55.620        20
55.630        27
55.640        13
55.650        13
55.660        20
55.670        27
55.680        40
55.690        20
55.700        13
55.710        13
55.720        13
55.730        20
55.740         0
55.750         7
55.760        13
55.770        27
55.780        20
55.790         0
55.800        13
55.810        40
55.820        13
55.830        40
55.840        27
55.850         0
55.860        27
55.870        20
55.880        27
55.890        13
55.900         0
55.910        13
55.920        13
55.930        20
55.940        47
55.950         7
55.960        33
55.970         7
55.980         0
55.990        40
56.000         7
56.010        27
56.020         0
56.030        13
56.040        13
56.050        20
56.060        13
56.070        13
56.080        13
56.090        13
56.100        20
56.110        20
56.120        27
56.130        27
56.140        13
56.150        13
56.160         7
56.170        33
56.180        13
56.190        20
56.200        20
56.210         7
56.220        20
56.230         7
56.240        13
56.250        13
56.260        20
56.270        20
56.280         7
56.290        13
56.300        13
56.310        13
56.320        20
56.330        20
56.340         7
56.350         7
56.360        13
56.370        13
56.380        20
56.390        27
56.400        27
56.410        20
56.420        13
56.430        13
56.440        20
56.450         7
56.460        13
56.470         7
56.480        33
56.490         0
56.500        13
56.510        20
56.520        27
56.530        13
56.540         0
56.550        27
56.560        33
56.570        13
56.580         7
56.590        27
56.600        27
56.610         7
56.620        20
56.630        20
56.640        27
56.650         0
56.660        47
56.670        27
56.680        20
56.690        27
56.700        33
56.710         0
56.720        27
56.730        47
56.740         0
56.750        20
56.760        27
56.770        20
56.780        13
56.790        13
56.800        27
56.810        33
56.820        20
56.830        20
56.840        40
56.850        13
56.860        40
56.870        20
56.880         7
56.890        20
56.900         7
56.910        27
56.920         0
56.930        13
56.940         7
56.950        27
56.960        13
56.970        33
56.980        20
56.990        20
57.000        20
57.010         7
57.020        27
57.030        13
57.040        13
57.050        20
57.060        20
57.070        27
57.080        20
57.090        60
57.100         7
57.110         7
57.120        20
57.130        80
57.140        33
57.150        47
57.160        33
57.170        13
57.180        27
57.190        33
57.200        53
57.210        20
57.220        40
57.230        20
57.240        40
57.250        33
57.260        40
57.270        40
57.280        60
57.290        60
57.300        27
57.310        33
57.320        73
57.330        20
57.340        47
57.350        53
57.360        33
57.370        67
57.380        47
57.390        80
57.400       127
57.410       113
57.420       113
57.430        87
57.440       133
57.450       207
57.460       247
57.470       413
57.480       660
57.490       840
57.500      1173
57.510      1233
57.520      1286
57.530      1286
57.540      1080
57.550      1006
57.560       620
57.570       593
57.580       373
57.590       247
57.600       180
57.610       240
57.620       200
57.630       320
57.640       420
57.650       453
57.660       533
57.670       673
57.680       640
57.690       553
57.700       520
57.710       466
57.720       300
57.730       340
57.740       187
57.750       187
57.760       160
57.770       120
57.780        67
57.790        87
57.800        80
57.810       113
57.820        73
57.830        80
57.840       107
57.850        93
57.860        40
57.870       100
57.880        93
57.890        73
57.900        33
57.910        33
57.920        47
57.930        40
57.940        40
57.950        60
57.960        67
57.970        60
57.980        40
57.990        40
58.000        53
58.010        53
58.020        67
58.030        60
58.040        60
58.050        27
58.060        60
58.070        33
58.080        33
58.090        60
58.100        13
58.110        27
58.120        13
58.130        13
58.140        20
58.150        13
58.160         7
58.170        27
58.180        33
58.190        20
58.200        20
58.210         0
58.220        40
58.230        20
58.240        40
58.250         7
58.260        20
58.270        27
58.280        13
58.290        13
58.300        20
58.310         7
58.320        20
58.330        20
58.340         0
58.350        13
58.360         7
58.370         7
58.380        20
58.390        40
58.400         7
58.410        47
58.420        27
58.430        40
58.440        20
58.450        27
58.460        20
58.470        20
58.480        20
58.490        20
58.500        33
58.510        20
58.520        13
58.530         7
58.540        13
58.550        33
58.560        13
58.570        20
58.580        20
58.590        13
58.600         7
58.610        40
58.620         0
58.630         7
58.640        27
58.650         0
58.660        20
58.670         7
58.680        27
58.690        33
58.700        27
58.710        27
58.720        27
58.730         0
58.740        20
58.750        20
58.760        33
58.770         7
58.780        13
58.790        60
58.800        27
58.810        27
58.820        20
58.830         7
58.840        33
58.850        13
58.860         7
58.870        27
58.880         0
58.890         7
58.900        20
58.910        20
58.920        13
58.930        27
58.940        33
58.950         0
58.960         0
58.970        13
58.980        13
58.990         7
59.000         7
59.010         7
59.020        13
59.030         0
59.040        13
59.050        20
59.060        13
59.070         7
59.080        20
59.090         7
59.100        40
59.110        27
59.120        27
59.130        20
59.140         7
59.150        13
59.160        13
59.170        20
59.180        20
59.190        33
59.200        20
59.210        20
59.220         0
59.230        13
59.240        27
59.250         7
59.260        20
59.270        27
59.280        20
59.290         0
59.300        53
59.310        20
59.320        27
59.330        20
59.340        20
59.350        20
59.360        27
59.370         0
59.380        13
59.390         7
59.400         7
59.410        13
59.420         7
59.430        13
59.440         7
59.450        33
59.460        33
59.470        20
59.480        27
59.490        13
59.500        27
59.510        13
59.520         7
59.530        13
59.540        27
59.550         7
59.560        13
59.570        27
59.580        27
59.590        20
59.600        20
59.610         0
59.620        20
59.630        13
59.640        13
59.650        27
59.660         7
59.670        27
59.680         7
59.690         7
59.700        20
59.710         0
59.720        13
59.730        27
59.740        33
59.750        27
59.760        33
59.770         7
59.780        20
59.790        33
59.800         7
59.810        20
59.820        13
59.830        13
59.840         0
59.850        33
59.860        27
59.870        13
59.880        13
59.890        47
59.900        13
59.910        47
59.920        20
59.930        13
59.940        20
59.950        40
59.960        13
59.970         7
59.980         7
59.990         7
60.000        27
