20.000        40
20.010        40
20.020        27
20.030        53
20.040        33
20.050       100
20.060        67
20.070        67
20.080        33
20.090        33
20.100        27
20.110        53
20.120       100
20.130        27
20.140        40
20.150        33
20.160        73
20.170        60
20.180        40
20.190        47
20.200        47
20.210        33
20.220        60
20.230        67
20.240        33
20.250        67
20.260        60
20.270        73
20.280         7
20.290        73
20.300        47
20.310        33
20.320        20
20.330        53
20.340        53
20.350        47
20.360        53
20.370        60
20.380        47
20.390        67
20.400        33
20.410        67
20.420        60
20.430        47
20.440        33
20.450        40
20.460        73
20.470        27
20.480        60
20.490        60
20.500        47
20.510        73
20.520        87
20.530        40
20.540        33
20.550        67
20.560        53
20.570        53
20.580        87
20.590        53
20.600        53
20.610        27
20.620        40
20.630        47
20.640        40
20.650        60
20.660        47
20.670        80
20.680        73
20.690        60
20.700        67
20.710        47
20.720        27
20.730        53
20.740        53
20.750        47
20.760        87
20.770        40
20.780        53
20.790        27
20.800        60
20.810        60
20.820        27
20.830        27
20.840        40
20.850        20
20.860        67
20.870        60
20.880        27
20.890        73
20.900        47
20.910        27
20.920        33
20.930        40
20.940        40
20.950        33
20.960        33
20.970        40
20.980        53
20.990        27
21.000        87
21.010        53
21.020        27
21.030        60
21.040        33
21.050        60
21.060        33
21.070        60
21.080        67
21.090        73
21.100        27
21.110        53
21.120        53
21.130        73
21.140        40
21.150        33
21.160        73
21.170        47
21.180        53
21.190         7
21.200        40
21.210        33
21.220        53
21.230        87
21.240        27
21.250        33
21.260        20
21.270        60
21.280        33
21.290        93
21.300        27
21.310        40
21.320        67
21.330        53
21.340        53
21.350        60
21.360       113
21.370        40
21.380        60
21.390        40
21.400        53
21.410        67
21.420        27
21.430        47
21.440        47
21.450        47
21.460        53
21.470        40
21.480        40
21.490        33
21.500        40
21.510        40
21.520        27
21.530        40
21.540        20
21.550        47
21.560        33
21.570        60
21.580        67
21.590        73
21.600        67
21.610        47
21.620        53
21.630        27
21.640        47
21.650        47
21.660        40
21.670        67
21.680        20
21.690        33
21.700        13
21.710        67
21.720        13
21.730       113
21.740        33
21.750        53
21.760        53
21.770        33
21.780        27
21.790        53
21.800        40
21.810        87
21.820        53
21.830        47
21.840        40
21.850        60
21.860        40
21.870        27
21.880        67
21.890        53
21.900        40
21.910        33
21.920        27
21.930        60
21.940        73
21.950        73
21.960        60
21.970        40
21.980        33
21.990        47
22.000        40
22.010        47
22.020        53
22.030        47
22.040        60
22.050        60
22.060        60
22.070        33
22.080        47
22.090        27
22.100        73
22.110        80
22.120        27
22.130        20
22.140        47
22.150        27
22.160        27
22.170        33
22.180        27
22.190        87
22.200        47
22.210        33
22.220        53
22.230        13
22.240        40
22.250        33
22.260        40
22.270        60
22.280        47
22.290        40
22.300        33
22.310        60
22.320        67
22.330        60
22.340        47
22.350        47
22.360        33
22.370        53
22.380        20
22.390        40
22.400        53
22.410        40
22.420        60
22.430        53
22.440        60
22.450        47
22.460        27
22.470        47
22.480        47
22.490        40
22.500        47
22.510        47
22.520        13
22.530        33
22.540        20
22.550        20
22.560        47
22.570        60
22.580        47
22.590        87
22.600        40
22.610        80
22.620        73
22.630        40
22.640        67
22.650        80
22.660        67
22.670        47
22.680        67
22.690        73
22.700       107
22.710        47
22.720        53
22.730        67
22.740        40
22.750        53
22.760        47
22.770        47
22.780        60
22.790        27
22.800        60
22.810        53
22.820        67
22.830        40
22.840        47
22.850        40
22.860        47
22.870        27
22.880        40
22.890        53
22.900        13
22.910        53
22.920        87
22.930        33
22.940        40
22.950        27
22.960        47
22.970        67
22.980        40
22.990        47
23.000        60
23.010        60
23.020        20
23.030        73
23.040        40
23.050        33
23.060        33
23.070        47
23.080        13
23.090        67
23.100        33
23.110        33
23.120        27
23.130        40
23.140        53
23.150        33
23.160        13
23.170        53
23.180        67
23.190        47
23.200        40
23.210        47
23.220        33
23.230        40
23.240        87
23.250        67
23.260        73
23.270        13
23.280        40
23.290        53
23.300        33
23.310        53
23.320        60
23.330        40
23.340        20
23.350        53
23.360        53
23.370        40
23.380        53
23.390        60
23.400        33
23.410        27
23.420        53
23.430        47
23.440        20
23.450        27
23.460        27
23.470        40
23.480        20
23.490        33
23.500        47
23.510         7
23.520        27
23.530        40
23.540        40
23.550        53
23.560        40
23.570        27
23.580        53
23.590        80
23.600        40
23.610        47
23.620        47
23.630        60
23.640        40
23.650        53
23.660        40
23.670        60
23.680        60
23.690        53
23.700        27
23.710        40
23.720        80
23.730        40
23.740        60
23.750        47
23.760        40
23.770        33
23.780        27
23.790        20
23.800        47
23.810        47
23.820        40
23.830        20
23.840        27
23.850        60
23.860        40
23.870        33
23.880        40
23.890        47
23.900        47
23.910        53
23.920        27
23.930        47
23.940        40
23.950        13
23.960        27
23.970        20
23.980        40
23.990        47
24.000        27
24.010        60
24.020        33
24.030        20
24.040        20
24.050        60
24.060        20
24.070        20
24.080        20
24.090        40
24.100        13
24.110        73
24.120        60
24.130        40
24.140        40
24.150        27
24.160        73
24.170        40
24.180        20
24.190        53
24.200        67
24.210        67
24.220        47
24.230        20
24.240        60
24.250        40
24.260        67
24.270        27
24.280        67
24.290        33
24.300        53
24.310        13
24.320        33
24.330        33
24.340        33
24.350        40
24.360        27
24.370        40
24.380        33
24.390        33
24.400        33
24.410        33
24.420        40
24.430        40
24.440        33
24.450        67
24.460        60
24.470        13
24.480        60
24.490        33
24.500        33
24.510        33
24.520        80
24.530        40
24.540        53
24.550         7
24.560        33
24.570        27
24.580        33
24.590        13
24.600        20
24.610        40
24.620        53
24.630        53
24.640        40
24.650        33
24.660        53
24.670        47
24.680        27
24.690        60
24.700        53
24.710        40
24.720        27
24.730        53
24.740        40
24.750        47
24.760        47
24.770        20
24.780        47
24.790        40
24.800        27
24.810        27
24.820        33
24.830        33
24.840        47
24.850        47
24.860        73
24.870        13
24.880        53
24.890        60
24.900        53
24.910         7
24.920        27
24.930        53
24.940        53
24.950        33
24.960        27
24.970        60
24.980        33
24.990        40
25.000        33
25.010        47
25.020        47
25.030        20
25.040        47
25.050        20
25.060        33
25.070        33
25.080        53
25.090        53
25.100        53
25.110        27
25.120        20
25.130        33
25.140         7
25.150        47
25.160        40
25.170        53
25.180        13
25.190        47
25.200        20
25.210        20
25.220        33
25.230        33
25.240        13
25.250        33
25.260        27
25.270        40
25.280        20
25.290        33
25.300        27
25.310        27
25.320         7
25.330        33
25.340        40
25.350        27
25.360        60
25.370        53
25.380        53
25.390        33
25.400        73
25.410        53
25.420        53
25.430        67
25.440        60
25.450        87
25.460        53
25.470        53
25.480       100
25.490       133
25.500        87
25.510       120
25.520       107
25.530       120
25.540       120
25.550        80
25.560        40
25.570       133
25.580       113
25.590       113
25.600        93
25.610        93
25.620        53
25.630        87
25.640        67
25.650       120
25.660        80
25.670        27
25.680        40
25.690        80
25.700        20
25.710        47
25.720        40
25.730        27
25.740        47
25.750        47
25.760        27
25.770        33
25.780        47
25.790        33
25.800        40
25.810        13
25.820        33
25.830        27
25.840        13
25.850        20
25.860        33
25.870        27
25.880        13
25.890        40
25.900        53
25.910        53
25.920        40
25.930        20
25.940        27
25.950        40
25.960        60
25.970        67
25.980        60
25.990        27
26.000        20
26.010        47
26.020        73
26.030        13
26.040        33
26.050        13
26.060        47
26.070        20
26.080        40
26.090        40
26.100        20
26.110        13
26.120        40
26.130        27
26.140        47
26.150        27
26.160        47
26.170        13
26.180        20
26.190        13
26.200        40
26.210        27
26.220        60
26.230        73
26.240        40
26.250        27
26.260         7
26.270        47
26.280        33
26.290        27
26.300        40
26.310        33
26.320        53
26.330        40
26.340        47
26.350        53
26.360        53
26.370        47
26.380        33
26.390        33
26.400        47
26.410        20
26.420        40
26.430        20
26.440        60
26.450        47
26.460        27
26.470        40
26.480         7
26.490        33
26.500        33
26.510        47
26.520        40
26.530        40
26.540        20
26.550        40
26.560        40
26.570        47
26.580        93
26.590        33
26.600        53
26.610        40
26.620        20
26.630        33
26.640        47
26.650        53
26.660        20
26.670         7
26.680        40
26.690        33
26.700        40
26.710        33
26.720        47
26.730        20
26.740        40
26.750        33
26.760        20
26.770        40
26.780        47
26.790        27
26.800        13
26.810        40
26.820        20
26.830        53
26.840        27
26.850        60
26.860        40
26.870        33
26.880        33
26.890        13
26.900        47
26.910         7
26.920        53
26.930        33
26.940        47
26.950        47
26.960        27
26.970        13
26.980        60
26.990        47
27.000        40
27.010        27
27.020        27
27.030        73
27.040        40
27.050        40
27.060        33
27.070        20
27.080        53
27.090        33
27.100        60
27.110        33
27.120        27
27.130        60
27.140        60
27.150        13
27.160        40
27.170        33
27.180        27
27.190        53
27.200        47
27.210        53
27.220        27
27.230         7
27.240        47
27.250        33
27.260        60
27.270        40
27.280        27
27.290        27
27.300        40
27.310        20
27.320        33
27.330        27
27.340        67
27.350        33
27.360        27
27.370        13
27.380        27
27.390        33
27.400        33
27.410        33
27.420        53
27.430        67
27.440        33
27.450        20
27.460        20
27.470        33
27.480        60
27.490        33
27.500         0
27.510        13
27.520        47
27.530        27
27.540        27
27.550        33
27.560        40
27.570        13
27.580        80
27.590        60
27.600        53
27.610        60
27.620        40
27.630        40
27.640        20
27.650        47
27.660        47
27.670        33
27.680        33
27.690        40
27.700        20
27.710        27
27.720        33
27.730        47
27.740        13
27.750        27
27.760        33
27.770        13
27.780        53
27.790        20
27.800        47
27.810        33
27.820        40
27.830        13
27.840        60
27.850        20
27.860        60
27.870        40
27.880        60
27.890        40
27.900         0
27.910        60
27.920        20
27.930        40
27.940        13
27.950        33
27.960        27
27.970        40
27.980        27
27.990        33
28.000        20
28.010        20
28.020        27
28.030        27
28.040        27
28.050        13
28.060        33
28.070        27
28.080        47
28.090        40
28.100        40
28.110        27
28.120        33
28.130        27
28.140        33
28.150        20
28.160         7
28.170        33
28.180        27
28.190        20
28.200        13
28.210        20
28.220        27
28.230        33
28.240        33
28.250        20
28.260         7
28.270         7
28.280        20
28.290        13
28.300        40
28.310        33
28.320        20
28.330        33
28.340        27
28.350        20
28.360        27
28.370        13
28.380        73
28.390        13
28.400        27
28.410        33
28.420        33
28.430        33
28.440        27
28.450        27
28.460        27
28.470        27
28.480        60
28.490        47
28.500        40
28.510        47
28.520        47
28.530        40
28.540        53
28.550        27
28.560        33
28.570        60
28.580        20
28.590        20
28.600        33
28.610        20
28.620        60
28.630        13
28.640        20
28.650        33
28.660        40
28.670        47
28.680        67
28.690        33
28.700        20
28.710        27
28.720        33
28.730        60
28.740        67
28.750         7
28.760        13
28.770        33
28.780        47
28.790        47
28.800        33
28.810         7
28.820        47
28.830        27
28.840        47
28.850        33
28.860        33
28.870        33
28.880        33
28.890        53
28.900        47
28.910        53
28.920        47
28.930        27
28.940        40
28.950        47
28.960        27
28.970        27
28.980        27
28.990        40
29.000        73
29.010        40
29.020         7
29.030        33
29.040        40
29.050        47
29.060        73
29.070        27
29.080        67
29.090        33
29.100        73
29.110        87
29.120        60
29.130        53
29.140        40
29.150        47
29.160         7
29.170        60
29.180        27
29.190        20
29.200        33
29.210        40
29.220        40
29.230        27
29.240        47
29.250        13
29.260        47
29.270        13
29.280        33
29.290        47
29.300        20
29.310        60
29.320        40
29.330        47
29.340        73
29.350        40
29.360        20
29.370        27
29.380        27
29.390        33
29.400        33
29.410        13
29.420         7
29.430        40
29.440        20
29.450        27
29.460        27
29.470         7
29.480        53
29.490        47
29.500         0
29.510        27
29.520        47
29.530        27
29.540        20
29.550        27
29.560        20
29.570        33
29.580        53
29.590        40
29.600        20
29.610        40
29.620        33
29.630        33
29.640        33
29.650        27
29.660        40
29.670        53
29.680        20
29.690        20
29.700        27
29.710        27
29.720        13
29.730        33
29.740        40
29.750        47
29.760        20
29.770        20
29.780        33
29.790         7
29.800        47
29.810        13
29.820        20
29.830        33
29.840        33
29.850        33
29.860        40
29.870        13
29.880        60
29.890        47
29.900        60
29.910        47
29.920        20
29.930        67
29.940        27
29.950        27
29.960        40
29.970        80
29.980        13
29.990        27
30.000        20
30.010        27
30.020        40
30.030         7
30.040        40
30.050        33
30.060        20
30.070        40
30.080        33
30.090        33
30.100        40
30.110        40
30.120        20
30.130        13
30.140        13
30.150        27
30.160        53
30.170        33
30.180         7
30.190        27
30.200        47
30.210        40
30.220        47
30.230        60
30.240        47
30.250        40
30.260        33
30.270        13
30.280        20
30.290        13
30.300        20
30.310        53
30.320        13
30.330        13
30.340        20
30.350        13
30.360        20
30.370        13
30.380        27
30.390        47
30.400        33
30.410        27
30.420        33
30.430        20
30.440        40
30.450        27
30.460        33
30.470        27
30.480        33
30.490        33
30.500         7
30.510        20
30.520        27
30.530        53
30.540        27
30.550        13
30.560        40
30.570        20
30.580        47
30.590        47
30.600        40
30.610        33
30.620        33
30.630        33
30.640        40
30.650        33
30.660        33
30.670        27
30.680        53
30.690        47
30.700        47
30.710        47
30.720        33
30.730        33
30.740        40
30.750         0
30.760        27
30.770        33
30.780        13
30.790        20
30.800        13
30.810        20
30.820        20
30.830        33
30.840        27
30.850        47
30.860        20
30.870         0
30.880        47
30.890        33
30.900        20
30.910        33
30.920        47
30.930        13
30.940         7
30.950        47
30.960        27
30.970        20
30.980        40
30.990        27
31.000        33
31.010        40
31.020        27
31.030        33
31.040        40
31.050        40
31.060        67
31.070        27
31.080        33
31.090        67
31.100        27
31.110        27
31.120         7
31.130        47
31.140        33
31.150        67
31.160        40
31.170        27
31.180        47
31.190        33
31.200        13
31.210        33
31.220        33
31.230        33
31.240        53
31.250        33
31.260        40
31.270        20
31.280        40
31.290        60
31.300        40
31.310        60
31.320        53
31.330        27
31.340        67
31.350        60
31.360        40
31.370        67
31.380        27
31.390        40
31.400        53
31.410        40
31.420        47
31.430        40
31.440        40
31.450        13
31.460        73
31.470        73
31.480        20
31.490        27
31.500        27
31.510        40
31.520        53
31.530        40
31.540        47
31.550        33
31.560        47
31.570        40
31.580        60
31.590        20
31.600        13
31.610        47
31.620        60
31.630        40
31.640        40
31.650        40
31.660        47
31.670        47
31.680        67
31.690        40
31.700        33
31.710        47
31.720        53
31.730        53
31.740       107
31.750        33
31.760        47
31.770        33
31.780        40
31.790        27
31.800        27
31.810        80
31.820        20
31.830        87
31.840       107
31.850         7
31.860        67
31.870        47
31.880        33
31.890        73
31.900        33
31.910        67
31.920        67
31.930       100
31.940        47
31.950        53
31.960        87
31.970       107
31.980       153
31.990        93
32.000       180
32.010       113
32.020       133
32.030       107
32.040       167
32.050       187
32.060       253
32.070       267
32.080       273
32.090       327
32.100       353
32.110       353
32.120       426
32.130       433
32.140       367
32.150       580
32.160       660
32.170       733
32.180       866
32.190       873
32.200       980
32.210      1113
32.220      1066
32.230      1553
32.240      1486
32.250      1539
32.260      1786
32.270      1819
32.280      1886
32.290      1839
32.300      1906
32.310      1719
32.320      1646
32.330      1459
32.340      1366
32.350      1373
32.360      1373
32.370      1160
32.380      1213
32.390       940
32.400       933
32.410       653
32.420       666
32.430       613
32.440       473
32.450       400
32.460       280
32.470       233
32.480       253
32.490       187
32.500       193
32.510       200
32.520       120
32.530       140
32.540       107
32.550        93
32.560       100
32.570        73
32.580        53
32.590        87
32.600        67
32.610        60
32.620        67
32.630        40
32.640        33
32.650        53
32.660       120
32.670        47
32.680        40
32.690        67
32.700        47
32.710        87
32.720        47
32.730        40
32.740        47
32.750        40
32.760        27
32.770        40
32.780        73
32.790        27
32.800        13
32.810        53
32.820        67
32.830        40
32.840        60
32.850        27
32.860        40
32.870        20
32.880        20
32.890        53
32.900        53
32.910        27
32.920        20
32.930        60
32.940        53
32.950        27
32.960        47
32.970        27
32.980        53
32.990        47
33.000        33
33.010        20
33.020        60
33.030        53
33.040        40
33.050        40
33.060        60
33.070        40
33.080        47
33.090        13
33.100        53
33.110        53
33.120        47
33.130        40
33.140        93
33.150        27
33.160        47
33.170        33
33.180        47
33.190        27
33.200        40
33.210        33
33.220        40
33.230        33
33.240        47
33.250        20
33.260         0
33.270        20
33.280        33
33.290        33
33.300        27
33.310        40
33.320        27
33.330        33
33.340        60
33.350        40
33.360        33
33.370        33
33.380        47
33.390        47
33.400        27
33.410         0
33.420        27
33.430        20
33.440        33
33.450        40
33.460        33
33.470        47
33.480        33
33.490         7
33.500        27
33.510        13
33.520        40
33.530        27
33.540        40
33.550        27
33.560        33
33.570        40
33.580         0
33.590        33
33.600        33
33.610        33
33.620        33
33.630        40
33.640        53
33.650        47
33.660        47
33.670        33
33.680        40
33.690        40
33.700        67
33.710        40
33.720        33
33.730        60
33.740        20
33.750        33
33.760        60
33.770        40
33.780        13
33.790        33
33.800        13
33.810        13
33.820        47
33.830        33
33.840        20
33.850        33
33.860        40
33.870        47
33.880        40
33.890         7
33.900        20
33.910        33
33.920        33
33.930         0
33.940        20
33.950        27
33.960        33
33.970        60
33.980        27
33.990        40
34.000        27
34.010        40
34.020        40
34.030        47
34.040        40
34.050        27
34.060        33
34.070        40
34.080        47
34.090        33
34.100        67
34.110        33
34.120        53
34.130        20
34.140        27
34.150        33
34.160         7
34.170        47
34.180        20
34.190        20
34.200        33
34.210        27
34.220         7
34.230        33
34.240        40
34.250        33
34.260        27
34.270        13
34.280        47
34.290        53
34.300        27
34.310        27
34.320        13
34.330        27
34.340        67
34.350        47
34.360        40
34.370        27
34.380        53
34.390        33
34.400        40
34.410        13
34.420        33
34.430        33
34.440        60
34.450        13
34.460        47
34.470        33
34.480        33
34.490        53
34.500        27
34.510        47
34.520        40
34.530        53
34.540        53
34.550        20
34.560        27
34.570        27
34.580        60
34.590        27
34.600        27
34.610        33
34.620        47
34.630        33
34.640        27
34.650        27
34.660        13
34.670        33
34.680        40
34.690        13
34.700        13
34.710        53
34.720        33
34.730        40
34.740        60
34.750        27
34.760        20
34.770        47
34.780        33
34.790        20
34.800        27
34.810        33
34.820        33
34.830        67
34.840        27
34.850        47
34.860        27
34.870        27
34.880        60
34.890        53
34.900        73
34.910        47
34.920        73
34.930       100
34.940        93
34.950       133
34.960       140
34.970       147
34.980       127
34.990       107
35.000       100
35.010       167
35.020       167
35.030       140
35.040       180
35.050       193
35.060       200
35.070       280
35.080       293
35.090       353
35.100       426
35.110       486
35.120       573
35.130       713
35.140       973
35.150      1000
35.160      1113
35.170      1106
35.180      1220
35.190      1006
35.200       920
35.210       813
35.220       586
35.230       453
35.240       520
35.250       620
35.260       486
35.270       586
35.280       387
35.290       460
35.300       280
35.310       153
35.320       120
35.330        87
35.340        87
35.350       100
35.360        27
35.370        67
35.380        73
35.390        73
35.400        40
35.410        27
35.420        33
35.430        53
35.440        40
35.450        33
35.460        20
35.470        33
35.480        33
35.490        33
35.500        40
35.510        47
35.520        20
35.530        60
35.540        33
35.550        13
35.560        33
35.570        33
35.580        53
35.590        47
35.600        27
35.610        27
35.620        13
35.630        27
35.640        53
35.650        40
35.660        33
35.670         7
35.680         0
35.690        33
35.700        53
35.710        20
35.720        13
35.730        53
35.740        27
35.750        27
35.760        33
35.770        33
35.780        33
35.790        40
35.800        40
35.810         7
35.820        20
35.830        13
35.840        40
35.850        20
35.860         7
35.870        20
35.880         7
35.890        67
35.900        20
35.910        27
35.920        47
35.930        33
35.940        13
35.950        20
35.960        20
35.970        47
35.980        53
35.990        20
36.000        47
36.010        20
36.020        33
36.030        33
36.040        27
36.050        13
36.060        13
36.070        27
36.080        40
36.090        40
36.100        53
36.110        27
36.120        27
36.130        20
36.140        27
36.150        33
36.160        20
36.170        33
36.180         0
36.190        13
36.200        40
36.210        20
36.220        27
36.230        27
36.240         7
36.250        27
36.260        33
36.270        40
36.280        40
36.290        13
36.300        20
36.310        13
36.320        27
36.330        13
36.340        20
36.350        13
36.360        40
36.370        33
36.380        13
36.390        13
36.400        13
36.410        33
36.420        40
36.430        47
36.440        20
36.450        13
36.460        33
36.470        27
36.480        27
36.490        20
36.500        47
36.510        27
36.520        67
36.530        27
36.540        27
36.550        60
36.560        20
36.570         0
36.580        40
36.590        60
36.600        33
36.610        47
36.620        33
36.630         7
36.640        33
36.650        40
36.660        13
36.670        40
36.680        27
36.690        20
36.700        20
36.710        20
36.720        33
36.730        27
36.740        33
36.750        20
36.760        33
36.770        60
36.780        33
36.790        47
36.800        20
36.810         0
36.820        33
36.830        13
36.840        13
36.850        40
36.860        20
36.870        27
36.880        67
36.890        20
36.900         7
36.910        20
36.920        27
36.930        40
36.940        33
36.950        47
36.960        33
36.970        33
36.980        60
36.990        33
37.000        13
37.010        33
37.020        33
37.030        40
37.040         7
37.050        27
37.060         7
37.070        27
37.080        27
37.090        13
37.100        53
37.110        40
37.120         0
37.130        20
37.140         7
37.150        33
37.160        20
37.170        40
37.180        53
37.190        33
37.200        27
37.210        40
37.220        13
37.230        47
37.240        60
37.250        20
37.260        20
37.270        20
37.280        27
37.290         7
37.300        20
37.310        20
37.320        20
37.330        20
37.340        27
37.350        47
37.360        13
37.370        27
37.380         7
37.390        27
37.400        13
37.410        13
37.420        40
37.430         7
37.440        67
37.450        53
37.460        27
37.470        47
37.480        20
37.490        13
37.500        40
37.510        20
37.520        53
37.530        20
37.540        40
37.550        53
37.560        20
37.570        33
37.580        27
37.590        13
37.600        27
37.610        73
37.620        33
37.630        27
37.640        27
37.650        47
37.660        40
37.670        47
37.680        60
37.690        13
37.700        33
37.710        27
37.720        20
37.730        13
37.740        33
37.750        13
37.760        47
37.770        73
37.780        40
37.790        47
37.800        73
37.810        40
37.820        40
37.830        80
37.840        33
37.850        33
37.860        60
37.870        40
37.880        33
37.890        67
37.900        87
37.910        40
37.920        33
37.930        53
37.940        13
37.950        33
37.960        47
37.970        53
37.980        20
37.990        20
38.000        60
38.010        13
38.020        33
38.030        20
38.040        20
38.050        27
38.060        33
38.070        47
38.080        27
38.090        40
38.100        27
38.110        20
38.120        27
38.130        20
38.140         7
38.150        33
38.160        27
38.170        33
38.180        20
38.190        33
38.200        20
38.210        47
38.220        13
38.230        33
38.240        27
38.250        13
38.260        47
38.270        13
38.280        13
38.290        20
38.300        20
38.310        20
38.320        27
38.330        27
38.340         7
38.350        60
38.360        33
38.370        27
38.380        27
38.390        40
38.400         7
38.410        27
38.420        27
38.430        20
38.440         7
38.450        13
38.460        27
38.470        27
38.480         7
38.490        20
38.500        20
38.510        20
38.520        20
38.530         0
38.540        67
38.550        20
38.560        20
38.570        27
38.580        20
38.590         7
38.600        13
38.610        40
38.620        13
38.630        20
38.640        33
38.650        47
38.660        27
38.670        20
38.680        20
38.690        33
38.700        40
38.710        13
38.720        40
38.730        27
38.740        13
38.750        27
38.760        27
38.770        33
38.780        20
38.790        27
38.800        33
38.810        33
38.820        20
38.830        27
38.840        20
38.850        53
38.860        40
38.870        33
38.880        53
38.890        27
38.900        20
38.910        27
38.920        27
38.930        13
38.940        20
38.950        53
38.960        20
38.970        53
38.980        27
38.990        27
39.000        13
39.010        20
39.020        27
39.030        40
39.040         0
39.050        13
39.060        47
39.070        27
39.080         7
39.090        20
39.100        20
39.110        13
39.120        13
39.130        13
39.140        20
39.150        20
39.160        27
39.170        20
39.180        20
39.190        33
39.200        13
39.210         0
39.220        13
39.230        33
39.240        13
39.250        53
39.260        20
39.270         7
39.280        27
39.290        13
39.300        33
39.310        13
39.320        13
39.330        20
39.340        20
39.350        40
39.360         7
39.370        20
39.380        27
39.390        33
39.400        40
39.410         7
39.420        13
39.430        13
39.440        20
39.450        20
39.460        27
39.470        20
39.480        27
39.490        20
39.500        27
39.510        33
39.520        40
39.530        20
39.540        20
39.550        33
39.560        13
39.570        53
39.580        13
39.590        20
39.600        40
39.610         7
39.620        20
39.630        33
39.640         0
39.650        40
39.660        20
39.670        13
39.680        13
39.690        40
39.700        27
39.710        20
39.720        40
39.730        67
39.740        40
39.750        40
39.760        47
39.770        67
39.780        67
39.790        47
39.800        53
39.810       107
39.820        93
39.830        73
39.840        67
39.850        87
39.860        87
39.870        60
39.880       120
39.890        40
39.900        80
39.910        80
39.920        60
39.930        67
39.940        80
39.950        33
39.960        27
39.970        47
39.980        33
39.990        67
40.000        53
40.010        60
40.020        20
40.030        40
40.040        20
40.050        47
40.060        47
40.070        13
40.080        27
40.090        53
40.100        20
40.110        27
40.120        27
40.130        40
40.140        47
40.150        20
40.160        40
40.170        40
40.180         7
40.190        40
40.200        27
40.210        33
40.220        20
40.230        20
40.240        27
40.250        13
40.260         7
40.270        20
40.280         7
40.290        13
40.300        33
40.310        13
40.320        20
40.330         7
40.340        40
40.350        13
40.360        13
40.370        13
40.380        20
40.390        27
40.400        13
40.410        40
40.420        13
40.430        33
40.440        27
40.450        20
40.460        27
40.470        33
40.480        40
40.490        20
40.500        20
40.510        13
40.520        20
40.530        27
40.540        20
40.550        27
40.560        27
40.570        13
40.580        47
40.590        40
40.600        13
40.610        33
40.620        20
40.630        13
40.640        20
40.650         7
40.660        13
40.670        47
40.680        27
40.690        20
40.700        20
40.710         7
40.720        33
40.730        20
40.740        33
40.750        33
40.760        20
40.770        47
40.780        13
40.790        13
40.800        27
40.810         0
40.820         7
40.830        27
40.840        20
40.850        20
40.860        60
40.870         7
40.880        20
40.890         7
40.900         7
40.910        40
40.920        13
40.930        20
40.940        20
40.950        27
40.960        60
40.970        27
40.980        27
40.990         0
41.000        27
41.010        20
41.020         7
41.030         7
41.040        13
41.050        13
41.060        33
41.070        20
41.080        27
41.090        20
41.100        40
41.110        13
41.120        40
41.130        20
41.140        27
41.150        27
41.160        40
41.170        27
41.180        27
41.190        27
41.200        20
41.210        27
41.220         7
41.230         7
41.240        27
41.250        20
41.260        13
41.270        20
41.280        20
41.290        20
41.300        20
41.310        20
41.320        13
41.330        53
41.340        73
41.350        13
41.360         7
41.370        20
41.380        27
41.390         0
41.400        33
41.410         7
41.420        13
41.430        33
41.440         7
41.450        13
41.460        27
41.470        13
41.480        27
41.490        13
41.500        20
41.510        27
41.520        20
41.530        33
41.540        33
41.550        20
41.560        53
41.570        20
41.580        20
41.590        53
41.600        33
41.610        40
41.620        40
41.630        60
41.640        73
41.650       120
41.660        93
41.670        67
41.680       120
41.690       127
41.700       100
41.710       127
41.720        67
41.730        93
41.740        67
41.750        40
41.760        47
41.770        27
41.780        53
41.790        27
41.800        93
41.810        27
41.820        53
41.830        33
41.840        27
41.850        47
41.860        20
41.870        20
41.880        20
41.890        33
41.900         0
41.910        27
41.920         7
41.930        33
41.940        27
41.950        33
41.960        27
41.970        33
41.980        33
41.990        13
42.000         7
42.010         7
42.020        13
42.030         7
42.040        33
42.050        27
42.060        27
42.070        33
42.080        13
42.090        13
42.100        40
42.110         7
42.120        27
42.130        33
42.140        40
42.150        27
42.160         0
42.170        13
42.180        27
42.190        20
42.200         0
42.210        20
42.220        20
42.230        33
42.240        20
42.250        27
42.260        20
42.270        13
42.280        33
42.290        40
42.300        13
42.310        13
42.320        20
42.330        47
42.340        13
42.350        27
42.360        27
42.370        27
42.380        27
42.390         7
42.400        20
42.410        27
42.420        20
42.430        20
42.440        27
42.450        33
42.460        20
42.470        20
42.480         0
42.490        13
42.500         0
42.510        20
42.520        27
42.530        13
42.540         0
42.550        13
42.560        40
42.570        33
42.580        13
42.590        13
42.600        33
42.610        13
42.620        20
42.630        27
42.640        27
42.650        33
42.660         7
42.670        27
42.680        20
42.690        20
42.700        20
42.710        27
42.720         7
42.730        20
42.740         0
42.750         7
42.760        67
42.770         0
42.780        27
42.790         7
42.800        20
42.810        13
42.820        27
42.830        13
42.840         7
42.850        13
42.860        27
42.870        40
42.880        33
42.890        27
42.900        27
42.910        40
42.920         7
42.930        13
42.940        13
42.950        40
42.960        33
42.970         7
42.980         0
42.990        27
43.000         7
43.010        33
43.020        40
43.030        27
43.040        27
43.050         7
43.060        27
43.070        20
43.080        40
43.090        53
43.100        13
43.110        47
43.120         0
43.130        40
43.140        27
43.150        27
43.160        40
43.170        53
43.180        47
43.190        40
43.200        47
43.210        60
43.220        40
43.230        60
43.240        60
43.250        87
43.260        53
43.270        73
43.280       100
43.290       200
43.300       213
43.310       313
43.320       393
43.330       413
43.340       287
43.350       393
43.360       413
43.370       253
43.380       273
43.390       240
43.400       227
43.410       280
43.420       273
43.430       240
43.440       160
43.450       200
43.460       187
43.470       200
43.480       100
43.490       140
43.500        87
43.510       147
43.520       100
43.530        53
43.540        47
43.550        40
43.560        33
43.570        27
43.580        33
43.590        27
43.600        33
43.610        20
43.620        20
43.630        20
43.640        20
43.650        20
43.660        13
43.670        20
43.680        33
43.690         0
43.700        27
43.710        27
43.720         7
43.730         7
43.740         7
43.750         7
43.760        20
43.770        40
43.780         7
43.790        27
43.800         7
43.810        20
43.820        13
43.830        27
43.840        20
43.850        27
43.860        20
43.870         7
43.880        20
43.890        13
43.900         7
43.910        33
43.920        13
43.930         7
43.940        27
43.950         7
43.960        27
43.970        27
43.980         0
43.990        27
44.000        40
44.010        40
44.020        13
44.030        13
44.040        20
44.050         7
44.060        27
44.070        13
44.080        13
44.090        20
44.100        20
44.110        20
44.120        20
44.130        33
44.140        27
44.150        27
44.160        27
44.170         7
44.180         7
44.190        13
44.200        20
44.210        13
44.220         7
44.230         7
44.240        13
44.250        27
44.260        27
44.270        13
44.280        20
44.290         0
44.300        13
44.310        13
44.320        20
44.330        20
44.340        13
44.350        27
44.360         7
44.370        27
44.380        27
44.390         7
44.400        27
44.410        27
44.420         7
44.430        27
44.440         7
44.450        20
44.460        33
44.470        40
44.480        13
44.490        20
44.500         7
44.510        40
44.520        13
44.530        27
44.540        13
44.550         7
44.560         7
44.570         7
44.580        13
44.590        13
44.600         7
44.610        13
44.620        20
44.630        13
44.640        27
44.650         7
44.660        33
44.670        27
44.680        20
44.690         0
44.700        33
44.710        40
44.720        27
44.730        13
44.740        13
44.750        13
44.760        20
44.770        13
44.780        27
44.790         7
44.800        40
44.810        20
44.820         7
44.830        40
44.840        20
44.850        47
44.860        13
44.870        13
44.880        33
44.890        27
44.900         0
44.910         0
44.920        13
44.930        13
44.940        33
44.950        20
44.960         0
44.970        27
44.980         7
44.990        20
45.000        20
45.010        53
45.020        27
45.030         7
45.040        20
45.050        47
45.060        13
45.070         7
45.080        27
45.090        13
45.100        27
45.110         7
45.120        33
45.130        13
45.140        20
45.150        13
45.160         7
45.170         7
45.180         0
45.190        20
45.200        13
45.210        20
45.220        13
45.230        33
45.240        20
45.250         7
45.260         0
45.270        47
45.280        20
45.290        13
45.300        40
45.310        13
45.320         7
45.330         0
45.340        27
45.350        40
45.360        13
45.370        13
45.380        27
45.390        13
45.400        27
45.410        13
45.420        27
45.430         0
45.440        13
45.450         7
45.460        13
45.470         7
45.480        13
45.490        13
45.500        13
45.510        20
45.520        20
45.530        20
45.540        20
45.550        13
45.560        20
45.570         7
45.580        47
45.590        20
45.600        13
45.610        13
45.620        13
45.630        13
45.640        13
45.650        20
45.660        20
45.670         7
45.680         7
45.690        33
45.700        40
45.710        13
45.720         7
45.730        27
45.740        13
45.750        13
45.760         7
45.770        20
45.780        13
45.790        20
45.800         7
45.810        20
45.820        13
45.830        47
45.840         7
45.850        20
45.860        33
45.870         7
45.880        20
45.890        20
45.900        13
45.910        47
45.920        13
45.930        33
45.940        27
45.950        27
45.960        33
45.970        40
45.980        53
45.990        40
46.000        33
46.010        33
46.020        27
46.030        33
46.040        33
46.050        40
46.060        53
46.070        33
46.080        53
46.090        60
46.100        40
46.110        13
46.120        87
46.130        53
46.140        27
46.150        67
46.160       107
46.170        53
46.180       107
46.190        87
46.200       120
46.210        87
46.220        60
46.230        93
46.240        73
46.250        87
46.260       120
46.270       127
46.280       100
46.290       127
46.300        53
46.310        93
46.320        67
46.330        73
46.340        53
46.350        87
46.360       100
46.370        93
46.380        67
46.390       107
46.400        60
46.410        53
46.420        87
46.430        80
46.440        73
46.450        33
46.460        40
46.470        47
46.480        60
46.490        67
46.500        60
46.510        13
46.520        60
46.530        47
46.540        40
46.550        93
46.560        47
46.570        53
46.580         7
46.590        40
46.600        53
46.610        53
46.620        40
46.630        20
46.640         7
46.650        47
46.660        20
46.670        20
46.680        47
46.690        27
46.700        13
46.710        13
46.720        27
46.730        53
46.740        47
46.750        40
46.760        27
46.770        60
46.780        13
46.790         7
46.800        40
46.810        47
46.820        33
46.830        27
46.840        20
46.850        27
46.860         7
46.870         7
46.880         7
46.890         0
46.900        20
46.910        33
46.920         7
46.930        13
46.940         7
46.950        20
46.960        53
46.970        33
46.980        20
46.990        27
47.000         0
47.010        40
47.020        20
47.030        20
47.040        20
47.050         0
47.060        13
47.070         0
47.080        27
47.090        13
47.100        33
47.110        27
47.120        20
47.130        13
47.140        13
47.150         7
47.160        20
47.170        13
47.180        27
47.190        13
47.200        13
47.210        20
47.220        60
47.230        13
47.240        20
47.250         7
47.260        27
47.270        20
47.280        27
47.290         7
47.300         7
47.310        13
47.320        13
47.330         7
47.340        13
47.350         7
47.360        20
47.370         7
47.380        13
47.390        13
47.400        27
47.410        13
47.420         7
47.430        13
47.440        13
47.450        20
47.460        27
47.470        13
47.480        27
47.490        20
47.500        13
47.510        13
47.520         7
47.530         7
47.540        13
47.550         7
47.560        33
47.570        13
47.580        27
47.590         7
47.600        13
47.610         7
47.620         7
47.630        33
47.640        40
47.650         7
47.660         0
47.670        13
47.680        13
47.690        20
47.700         7
47.710        40
47.720        13
47.730        27
47.740        13
47.750        13
47.760        33
47.770        20
47.780         7
47.790         7
47.800        20
47.810        13
47.820         7
47.830        20
47.840        27
47.850        20
47.860         7
47.870        20
47.880        27
47.890         0
47.900         7
47.910        13
47.920        13
47.930         7
47.940        20
47.950        20
47.960         7
47.970        27
47.980        20
47.990         7
48.000        13
48.010        27
48.020         7
48.030         7
48.040        13
48.050        27
48.060        40
48.070        20
48.080        33
48.090         7
48.100         7
48.110        33
48.120        20
48.130         7
48.140        20
48.150         0
48.160        27
48.170        33
48.180         0
48.190        13
48.200        13
48.210         0
48.220        13
48.230        20
48.240        20
48.250        13
48.260        20
48.270         7
48.280         0
48.290        27
48.300        33
48.310        13
48.320        27
48.330        20
48.340         7
48.350        13
48.360        47
48.370         0
48.380        27
48.390        27
48.400        20
48.410         0
48.420         0
48.430        20
48.440        27
48.450        27
48.460        20
48.470        27
48.480        20
48.490        13
48.500        13
48.510         7
48.520        20
48.530        13
48.540        27
48.550        20
48.560        13
48.570        13
48.580        13
48.590        13
48.600         0
48.610         7
48.620        13
48.630        20
48.640         0
48.650        27
48.660         7
48.670         7
48.680        13
48.690         7
48.700         7
48.710        27
48.720        27
48.730        53
48.740        33
48.750        13
48.760        27
48.770        13
48.780         7
48.790        13
48.800        13
48.810        13
48.820        13
48.830         0
48.840        13
48.850        13
48.860        20
48.870        20
48.880        13
48.890         7
48.900        20
48.910        20
48.920        13
48.930         0
48.940        33
48.950        40
48.960         7
48.970         7
48.980        27
48.990        27
49.000         7
49.010        20
49.020        13
49.030         7
49.040        20
49.050         7
49.060        53
49.070        20
49.080        27
49.090        20
49.100        20
49.110        20
49.120         7
49.130         0
49.140        27
49.150        27
49.160        20
49.170        27
49.180        27
49.190        13
49.200         7
49.210        13
49.220        33
49.230        13
49.240        27
49.250        13
49.260         7
49.270         0
49.280        20
49.290        13
49.300        13
49.310        20
49.320        13
49.330        13
49.340         0
49.350         7
49.360        33
49.370        27
49.380        13
49.390         7
49.400         7
49.410         7
49.420        20
49.430        27
49.440         7
49.450        20
49.460        13
49.470         7
49.480        20
49.490        13
49.500         7
49.510         0
49.520         7
49.530        27
49.540        33
49.550         7
49.560        13
49.570        20
49.580         7
49.590        13
49.600        27
49.610         0
49.620        20
49.630         7
49.640        20
49.650         7
49.660         0
49.670        13
49.680         7
49.690         0
49.700        13
49.710         7
49.720        20
49.730        13
49.740        13
49.750        27
49.760         0
49.770        27
49.780         7
49.790         0
49.800        20
49.810        13
49.820        20
49.830         0
49.840        20
49.850        20
49.860         7
49.870        13
49.880        20
49.890        13
49.900        20
49.910        27
49.920        13
49.930        27
49.940         0
49.950        20
49.960        13
49.970        13
49.980        27
49.990        20
50.000        20
50.010        20
50.020        40
50.030        33
50.040        20
50.050        20
50.060        13
50.070        40
50.080         7
50.090        27
50.100        13
50.110        13
50.120        20
50.130        13
50.140        20
50.150        13
50.160         0
50.170        20
50.180         7
50.190         7
50.200        20
50.210        13
50.220         7
50.230         0
50.240         7
50.250        20
50.260        20
50.270        20
50.280        13
50.290        20
50.300        40
50.310         0
50.320        27
50.330        20
50.340        40
50.350        13
50.360        27
50.370         7
50.380        13
50.390        13
50.400         0
50.410        13
50.420        20
50.430         7
50.440        13
50.450         0
50.460        33
50.470        40
50.480         7
50.490         7
50.500        20
50.510        13
50.520         7
50.530         7
50.540        13
50.550        20
50.560        40
50.570        27
50.580        27
50.590        20
50.600         7
50.610        13
50.620        33
50.630        13
50.640        33
50.650        13
50.660        27
50.670        27
50.680        13
50.690        13
50.700        20
50.710        13
50.720        13
50.730        13
50.740         7
50.750        20
50.760         7
50.770         7
50.780         7
50.790        27
50.800        40
50.810        20
50.820         0
50.830        27
50.840         7
50.850        27
50.860        13
50.870        13
50.880        13
50.890        20
50.900         7
50.910         7
50.920        13
50.930        27
50.940         0
50.950        53
50.960        13
50.970         0
50.980        13
50.990        13
51.000        20
51.010        33
51.020         7
51.030         7
51.040         7
51.050        13
51.060        27
51.070        20
51.080        13
51.090         7
51.100        20
51.110        13
51.120        27
51.130         7
51.140        13
51.150         7
51.160         0
51.170        20
51.180        20
51.190        13
51.200        27
51.210        13
51.220         7
51.230        20
51.240         7
51.250        20
51.260        20
51.270         0
51.280        20
51.290         7
51.300        20
51.310        13
51.320        27
51.330         7
51.340         0
51.350        13
51.360        27
51.370        27
51.380        13
51.390         7
51.400         7
51.410        33
51.420        13
51.430        33
51.440        13
51.450        13
51.460         7
51.470        20
51.480        13
51.490        27
51.500        40
51.510        27
51.520        47
51.530        27
51.540        20
51.550        33
51.560        40
51.570        27
51.580        33
51.590        47
51.600        27
51.610        13
51.620        27
51.630         7
51.640         7
51.650        20
51.660        13
51.670        13
51.680        20
51.690        33
51.700        13
51.710        13
51.720        13
51.730        13
51.740        13
51.750        27
51.760         7
51.770         0
51.780        33
51.790        27
51.800        27
51.810        13
51.820        20
51.830         7
51.840        47
51.850         7
51.860         7
51.870         0
51.880        20
51.890        20
51.900        33
51.910        27
51.920        33
51.930        27
51.940         7
51.950         7
51.960        33
51.970        27
51.980        13
51.990         0
52.000        20
52.010         7
52.020         7
52.030        27
52.040         7
52.050        20
52.060        33
52.070        13
52.080         7
52.090        20
52.100        20
52.110        33
52.120        13
52.130        20
52.140        33
52.150        27
52.160        33
52.170         7
52.180        47
52.190        20
52.200        20
52.210        33
52.220         0
52.230        20
52.240        13
52.250        13
52.260        27
52.270        20
52.280        13
52.290        20
52.300         0
52.310        13
52.320        20
52.330        20
52.340        20
52.350        27
52.360        47
52.370        27
52.380        20
52.390        33
52.400        27
52.410        13
52.420        27
52.430        13
52.440        27
52.450        20
52.460        13
52.470        20
52.480        27
52.490         7
52.500        47
52.510        40
52.520        27
52.530        40
52.540        27
52.550        53
52.560        13
52.570        47
52.580        60
52.590        80
52.600        80
52.610       107
52.620        67
52.630        87
52.640        40
52.650        40
52.660        13
52.670        27
52.680        33
52.690        53
52.700        67
52.710        27
52.720        47
52.730        40
52.740        40
52.750        60
52.760        67
52.770        27
52.780        13
52.790        13
52.800         7
52.810        20
52.820        20
52.830        27
52.840        27
52.850         7
52.860        33
52.870        13
52.880         7
52.890        13
52.900        27
52.910        13
52.920        13
52.930        20
52.940        27
52.950        20
52.960        13
52.970        20
52.980        20
52.990        13
53.000        20
53.010         0
53.020         0
53.030         7
53.040        13
53.050         7
53.060        13
53.070        13
53.080         7
53.090        13
53.100         0
53.110         0
53.120        20
53.130         0
53.140        13
53.150        27
53.160        27
53.170         7
53.180        13
53.190        20
53.200         7
53.210         7
53.220        20
53.230        20
53.240        13
53.250         7
53.260         7
53.270        13
53.280        20
53.290         7
53.300         7
53.310        33
53.320        20
53.330        13
53.340        13
53.350         7
53.360        27
53.370         0
53.380        27
53.390        33
53.400         7
53.410        40
53.420        20
53.430        13
53.440        13
53.450        20
53.460         7
53.470        13
53.480         7
53.490         7
53.500        27
53.510        13
53.520        13
53.530        33
53.540        13
53.550         7
53.560         7
53.570        20
53.580        13
53.590         7
53.600         7
53.610        27
53.620        13
53.630         0
53.640        13
53.650         0
53.660         7
53.670        20
53.680         7
53.690        13
53.700        20
53.710        20
53.720         7
53.730         7
53.740        27
53.750        13
53.760         7
53.770         7
53.780         0
53.790        20
53.800        33
53.810        20
53.820        13
53.830        27
53.840         7
53.850        20
53.860        13
53.870         0
53.880         7
53.890         7
53.900        20
53.910        13
53.920        27
53.930        13
53.940        13
53.950        27
53.960        20
53.970         7
53.980        33
53.990        13
54.000         7
54.010        40
54.020        13
54.030         0
54.040         7
54.050         7
54.060        13
54.070        20
54.080        40
54.090        33
54.100         7
54.110         7
54.120         7
54.130        13
54.140         7
54.150        13
54.160        13
54.170        27
54.180         7
54.190         7
54.200         7
54.210        13
54.220        47
54.230        13
54.240         7
54.250         7
54.260        13
54.270        20
54.280         0
54.290        33
54.300        20
54.310        20
54.320         7
54.330        13
54.340        33
54.350         7
54.360        13
54.370        20
54.380         7
54.390        13
54.400        20
54.410         0
54.420        13
54.430        13
54.440         7
54.450        13
54.460        27
54.470        13
54.480        27
54.490        13
54.500        20
54.510         7
54.520        13
54.530         0
54.540        13
54.550         7
54.560         0
54.570        27
54.580        13
54.590        27
54.600         7
54.610        13
54.620         7
54.630         7
54.640         0
54.650        13
54.660         7
54.670        20
54.680        20
54.690        27
54.700         7
54.710         0
54.720         7
54.730        27
54.740         7
54.750        13
54.760        27
54.770         7
54.780         7
54.790        13
54.800        13
54.810        13
54.820        27
54.830        27
54.840         7
54.850        13
54.860        40
54.870         0
54.880         0
54.890         7
54.900        13
54.910        27
54.920         0
54.930         7
54.940        20
54.950         7
54.960        20
54.970        13
54.980        13
54.990        20
55.000         0
55.010         7
55.020         7
55.030        27
55.040         7
55.050        27
55.060        20
55.070         7
55.080        13
55.090        20
55.100        20
55.110         7
55.120        20
55.130         7
55.140         0
55.150        13
55.160        20
55.170         7
55.180        20
55.190        13
55.200         0
55.210         0
55.220        13
55.230        13
55.240         0
55.250        20
55.260        27
55.270         7
55.280        13
55.290        33
55.300        13
55.310        13
55.320        13
55.330        27
55.340        13
55.350         0
55.360        13
55.370         0
55.380         7
55.390        13
55.400        27
55.410         7
55.420         0
55.430        20
55.440        20
55.450         0
55.460         7
55.470        20
55.480        13
55.490         0
55.500        20
55.510        40
55.520        13
55.530         0
55.540        13
55.550        20
55.560        20
55.570         0
55.580         7
55.590        40
55.600        13
55.610        13
55.620        27
55.630        33
55.640         7
55.650        13
55.660        13
55.670         7
55.680        20
55.690         7
55.700         7
55.710        20
55.720         7
55.730        40
55.740        13
55.750         0
55.760         7
55.770        13
55.780         7
55.790        13
55.800        13
55.810         7
55.820         7
55.830        27
55.840        27
55.850        20
55.860         0
55.870         7
55.880         7
55.890        20
55.900        20
55.910        27
55.920        13
55.930        13
55.940        20
55.950        20
55.960         7
55.970        13
55.980        20
55.990        20
56.000         7
56.010        20
56.020        13
56.030        20
56.040         7
56.050        13
56.060        13
56.070         7
56.080        20
56.090         7
56.100        13
56.110        13
56.120        33
56.130         7
56.140        13
56.150         0
56.160         7
56.170        20
56.180        27
56.190        13
56.200        20
56.210        13
56.220        13
56.230         7
56.240         7
56.250         7
56.260        20
56.270         7
56.280         0
56.290         7
56.300        27
56.310        20
56.320         0
56.330        20
56.340        27
56.350         7
56.360        20
56.370        13
56.380        27
56.390        20
56.400         7
56.410        20
56.420        27
56.430         7
56.440        20
56.450         7
56.460        20
56.470         0
56.480        20
56.490         7
56.500        20
56.510         0
56.520         7
56.530        20
56.540        13
56.550        20
56.560        13
56.570         7
56.580         7
56.590         7
56.600         7
56.610        13
56.620        20
56.630        13
56.640        20
56.650        27
56.660         7
56.670        20
56.680         7
56.690         7
56.700        13
56.710        20
56.720         0
56.730         7
56.740         7
56.750        13
56.760        13
56.770         7
56.780        33
56.790        13
56.800        33
56.810        13
56.820         7
56.830        13
56.840        40
56.850        20
56.860        13
56.870        20
56.880        27
56.890        20
56.900        27
56.910         7
56.920         0
56.930        13
56.940         7
56.950         7
56.960        13
56.970        13
56.980        20
56.990        27
57.000        20
57.010        27
57.020        13
57.030        13
57.040        27
57.050        13
57.060        20
57.070         7
57.080         7
57.090         7
57.100        27
57.110        40
57.120        47
57.130         7
57.140        13
57.150         0
57.160        33
57.170        27
57.180        40
57.190        27
57.200        13
57.210        33
57.220        33
57.230        13
57.240        60
57.250        47
57.260        20
57.270        33
57.280        33
57.290        20
57.300        53
57.310        40
57.320        60
57.330        87
57.340        33
57.350        80
57.360        40
57.370        87
57.380        73
57.390        73
57.400        73
57.410        87
57.420       133
57.430       147
57.440       147
57.450       180
57.460       200
57.470       387
57.480       353
57.490       387
57.500       460
57.510       553
57.520       606
57.530       560
57.540       486
57.550       513
57.560       327
57.570       353
57.580       273
57.590       220
57.600       173
57.610       153
57.620       233
57.630       200
57.640       280
57.650       240
57.660       260
57.670       347
57.680       333
57.690       213
57.700       293
57.710       227
57.720       120
57.730       193
57.740       107
57.750       113
57.760        87
57.770        87
57.780       107
57.790        80
57.800        40
57.810        47
57.820        33
57.830        53
57.840        53
57.850        13
57.860        27
57.870        33
57.880        13
57.890         7
57.900        33
57.910        27
57.920        20
57.930         7
57.940        20
57.950        27
57.960        20
57.970        13
57.980        20
57.990        33
58.000        20
58.010        27
58.020        20
58.030         7
58.040        27
58.050        27
58.060        13
58.070         7
58.080        20
58.090        13
58.100         0
58.110        20
58.120        20
58.130        33
58.140        27
58.150        13
58.160        20
58.170        13
58.180        13
58.190         7
58.200         0
58.210        13
58.220        20
58.230         7
58.240        20
58.250        27
58.260        20
58.270        13
58.280        27
58.290        13
58.300         7
58.310        20
58.320        20
58.330        20
58.340         7
58.350         0
58.360        33
58.370         7
58.380        20
58.390         0
58.400        20
58.410        20
58.420        13
58.430        33
58.440        13
58.450        13
58.460        20
58.470        13
58.480        27
58.490        20
58.500         7
58.510         7
58.520         7
58.530        13
58.540        13
58.550        20
58.560        20
58.570         7
58.580        13
58.590        33
58.600         7
58.610        13
58.620         7
58.630         0
58.640        20
58.650         7
58.660         7
58.670        20
58.680        13
58.690         7
58.700         7
58.710        13
58.720        20
58.730        20
58.740        13
58.750        20
58.760        13
58.770        13
58.780        27
58.790        13
58.800        13
58.810         7
58.820         7
58.830         7
58.840         7
58.850         0
58.860         7
58.870        13
58.880        20
58.890        20
58.900        13
58.910        13
58.920        20
58.930        13
58.940        13
58.950         7
58.960        20
58.970        13
58.980        27
58.990        13
59.000        20
59.010        13
59.020        20
59.030        20
59.040        27
59.050         0
59.060         0
59.070        27
59.080        33
59.090        20
59.100        13
59.110        13
59.120        20
59.130        27
59.140         7
59.150        20
59.160         7
59.170         7
59.180        13
59.190         7
59.200         0
59.210        20
59.220        20
59.230         0
59.240        27
59.250        13
59.260         7
59.270         7
59.280         7
59.290        13
59.300         7
59.310        13
59.320        13
59.330         7
59.340         0
59.350         0
59.360         7
59.370         7
59.380        40
59.390        40
59.400        27
59.410         7
59.420        20
59.430        20
59.440        13
59.450        27
59.460         7
59.470        27
59.480        20
59.490        20
59.500        20
59.510        33
59.520        13
59.530        27
59.540         7
59.550        20
59.560         0
59.570        13
59.580        13
59.590         0
59.600         7
59.610         7
59.620        13
59.630         7
59.640        20
59.650        27
59.660         0
59.670        20
59.680        33
59.690        20
59.700        27
59.710         7
59.720        13
59.730         7
59.740        20
59.750        13
59.760        33
59.770         0
59.780        13
59.790         0
59.800        13
59.810         7
59.820        20
59.830         0
59.840        13
59.850         0
59.860        27
59.870        33
59.880         7
59.890         7
59.900        27
59.910        27
59.920        27
59.930        33
59.940         7
59.950        20
59.960        27
59.970        27
59.980         7
59.990        33
60.000        13
