20.000        20
20.010        40
20.020        93
20.030        60
20.040        40
20.050        27
20.060        87
20.070        73
20.080        47
20.090        27
20.100        40
20.110       113
20.120        73
20.130        87
20.140        40
20.150        40
20.160        27
20.170        87
20.180        60
20.190        47
20.200        40
20.210        73
20.220        60
20.230        53
20.240        33
20.250        33
20.260        60
20.270        47
20.280        40
20.290        60
20.300        33
20.310        80
20.320        40
20.330        40
20.340        40
20.350        33
20.360        60
20.370        47
20.380        60
20.390        67
20.400        47
20.410        40
20.420        80
20.430        53
20.440        33
20.450        33
20.460        53
20.470        20
20.480        47
20.490        60
20.500        67
20.510        40
20.520        47
20.530        40
20.540        40
20.550        67
20.560        27
20.570        47
20.580        80
20.590        53
20.600        47
20.610        33
20.620        53
20.630        40
20.640        40
20.650        20
20.660        27
20.670        60
20.680        80
20.690        73
20.700        20
20.710        47
20.720        53
20.730        93
20.740        53
20.750        33
20.760        20
20.770        60
20.780        47
20.790        67
20.800        53
20.810        60
20.820        60
20.830        40
20.840        53
20.850        53
20.860        27
20.870        53
20.880        93
20.890        47
20.900        47
20.910        40
20.920        40
20.930        53
20.940        47
20.950        53
20.960        53
20.970        80
20.980        13
20.990         7
21.000        53
21.010        20
21.020        47
21.030        40
21.040        13
21.050        33
21.060        20
21.070        33
21.080        27
21.090        60
21.100        53
21.110        47
21.120        40
21.130        27
21.140        40
21.150        47
21.160        53
21.170        87
21.180        47
21.190        20
21.200        87
21.210        27
21.220        53
21.230        47
21.240        87
21.250        67
21.260        93
21.270        53
21.280        40
21.290        40
21.300        60
21.310        40
21.320        40
21.330        53
21.340        33
21.350        53
21.360        53
21.370        60
21.380        27
21.390        47
21.400        67
21.410        20
21.420        67
21.430        47
21.440        40
21.450        13
21.460       100
21.470        67
21.480        47
21.490        47
21.500        53
21.510        33
21.520        53
21.530        33
21.540        53
21.550        60
21.560       100
21.570        40
21.580        33
21.590        60
21.600        53
21.610        60
21.620        40
21.630        53
21.640        27
21.650        33
21.660        27
21.670        47
21.680        20
21.690        27
21.700        27
21.710        60
21.720        20
21.730        33
21.740        40
21.750        40
21.760        33
21.770        60
21.780        53
21.790        27
21.800        93
21.810        93
21.820        60
21.830        33
21.840        47
21.850        40
21.860        33
21.870        47
21.880        60
21.890        47
21.900         7
21.910        53
21.920        27
21.930        40
21.940        27
21.950        60
21.960        40
21.970        80
21.980        67
21.990        20
22.000        33
22.010        47
22.020        47
22.030        13
22.040        40
22.050        53
22.060        20
22.070        33
22.080        67
22.090        27
22.100        67
22.110        40
22.120        27
22.130        27
22.140        20
22.150        13
22.160        53
22.170        33
22.180        13
22.190        47
22.200        40
22.210        27
22.220        53
22.230        60
22.240        53
22.250        33
22.260        73
22.270        47
22.280        47
22.290        27
22.300        80
22.310        53
22.320        40
22.330        53
22.340        33
22.350        27
22.360        40
22.370        40
22.380        67
22.390        40
22.400        53
22.410        47
22.420        67
22.430        53
22.440        53
22.450        60
22.460        87
22.470        67
22.480        67
22.490        80
22.500       113
22.510        53
22.520        80
22.530        67
22.540        73
22.550       100
22.560        93
22.570       100
22.580       113
22.590       100
22.600        87
22.610        73
22.620       120
22.630        87
22.640        87
22.650        67
22.660        93
22.670        60
22.680        67
22.690        73
22.700        60
22.710        60
22.720        73
22.730        80
22.740        53
22.750        80
22.760        60
22.770        93
22.780        87
22.790        53
22.800        47
22.810        47
22.820        40
22.830        53
22.840        60
22.850        60
22.860        27
22.870        47
22.880        47
22.890        40
22.900        47
22.910        33
22.920        13
22.930        87
22.940        40
22.950        60
22.960        53
22.970        47
22.980        60
22.990        53
23.000        27
23.010        53
23.020        27
23.030        40
23.040        40
23.050        33
23.060        47
23.070        40
23.080        33
23.090        67
23.100        60
23.110        47
23.120        60
23.130        60
23.140        53
23.150        33
23.160        27
23.170        40
23.180        53
23.190        40
23.200        20
23.210        20
23.220        33
23.230        40
23.240        60
23.250        40
23.260        40
23.270        33
23.280        27
23.290        33
23.300        20
23.310        27
23.320        20
23.330        73
23.340        73
23.350        60
23.360       100
23.370        40
23.380        53
23.390        27
23.400        40
23.410        47
23.420        27
23.430        60
23.440        20
23.450        33
23.460        33
23.470        13
23.480        33
23.490        47
23.500        13
23.510        27
23.520        73
23.530        47
23.540        47
23.550        67
23.560        27
23.570        60
23.580        60
23.590        33
23.600        47
23.610        20
23.620        27
23.630        27
23.640        20
23.650        40
23.660        53
23.670        60
23.680        33
23.690        47
23.700        80
23.710        40
23.720        40
23.730        60
23.740        73
23.750        20
23.760        33
23.770        73
23.780        40
23.790        33
23.800        73
23.810        40
23.820        33
23.830        80
23.840        20
23.850        27
23.860        80
23.870        67
23.880        20
23.890        40
23.900        40
23.910        40
23.920        27
23.930        47
23.940        67
23.950        60
23.960        13
23.970        27
23.980        73
23.990        67
24.000        53
24.010        20
24.020        67
24.030        47
24.040        40
24.050        20
24.060        67
24.070        33
24.080        20
24.090        47
24.100        33
24.110        53
24.120        33
24.130        47
24.140        67
24.150        47
24.160        53
24.170        53
24.180        40
24.190        47
24.200        40
24.210        67
24.220        73
24.230        47
24.240        20
24.250        53
24.260        40
24.270        33
24.280        40
24.290        40
24.300        20
24.310        73
24.320        67
24.330        53
24.340        73
24.350        47
24.360        27
24.370        60
24.380        33
24.390        47
24.400        27
24.410        33
24.420        13
24.430        67
24.440        53
24.450        27
24.460        33
24.470        53
24.480        60
24.490        80
24.500        33
24.510        73
24.520        80
24.530        33
24.540        33
24.550        33
24.560        60
24.570        33
24.580        47
24.590        67
24.600        27
24.610        87
24.620        33
24.630        33
24.640        13
24.650        47
24.660        67
24.670        20
24.680        73
24.690        47
24.700        33
24.710        27
24.720        20
24.730        40
24.740        60
24.750        20
24.760        47
24.770        73
24.780        40
24.790        47
24.800        40
24.810        33
24.820        27
24.830        13
24.840        47
24.850        60
24.860        27
24.870        40
24.880        33
24.890        20
24.900        53
24.910        27
24.920        33
24.930        47
24.940        47
24.950        33
24.960        53
24.970        47
24.980        87
24.990        20
25.000        13
25.010        13
25.020        20
25.030        20
25.040        73
25.050        33
25.060        33
25.070        47
25.080        33
25.090        33
25.100        27
25.110        40
25.120        60
25.130        53
25.140        20
25.150        67
25.160        60
25.170        27
25.180         7
25.190        40
25.200        47
25.210        47
25.220        47
25.230        40
25.240        33
25.250        67
25.260        73
25.270        73
25.280        60
25.290        53
25.300        67
25.310        33
25.320        27
25.330        67
25.340        40
25.350        60
25.360        53
25.370        60
25.380        73
25.390       100
25.400        60
25.410        67
25.420        60
25.430        67
25.440        73
25.450        73
25.460       107
25.470        80
25.480       120
25.490        80
25.500       127
25.510        53
25.520        80
25.530        80
25.540       113
25.550       100
25.560        53
25.570        73
25.580        60
25.590        80
25.600        40
25.610        67
25.620        33
25.630        20
25.640        53
25.650        20
25.660        53
25.670        67
25.680        53
25.690        53
25.700        40
25.710        40
25.720        27
25.730        20
25.740        27
25.750        40
25.760        53
25.770        33
25.780        20
25.790        33
25.800        60
25.810        27
25.820        33
25.830        60
25.840        33
25.850        33
25.860        20
25.870        47
25.880        20
25.890        27
25.900        13
25.910        67
25.920        47
25.930        33
25.940        40
25.950        20
25.960        20
25.970        47
25.980        53
25.990        40
26.000        47
26.010        20
26.020        33
26.030        20
26.040        40
26.050        40
26.060        40
26.070        33
26.080        27
26.090        27
26.100        40
26.110        40
26.120        33
26.130        40
26.140        47
26.150        60
26.160        53
26.170        13
26.180        33
26.190        20
26.200        47
26.210        53
26.220        40
26.230        27
26.240        13
26.250        60
26.260        73
26.270        47
26.280        13
26.290        47
26.300        27
26.310        27
26.320         0
26.330        40
26.340        20
26.350        40
26.360        53
26.370        20
26.380        33
26.390        33
26.400        40
26.410        13
26.420        67
26.430         7
26.440        20
26.450        27
26.460        40
26.470        40
26.480        40
26.490        47
26.500        20
26.510        33
26.520        27
26.530        53
26.540        67
26.550        40
26.560        27
26.570        27
26.580        47
26.590         7
26.600        20
26.610        40
26.620        60
26.630        27
26.640        20
26.650        40
26.660        20
26.670        53
26.680        27
26.690        40
26.700        47
26.710        13
26.720        40
26.730        33
26.740        27
26.750        60
26.760        33
26.770        33
26.780        27
26.790        27
26.800        47
26.810        60
26.820        27
26.830        47
26.840        27
26.850        47
26.860        73
26.870        47
26.880        27
26.890        13
26.900         7
26.910        40
26.920        20
26.930        33
26.940       100
26.950        33
26.960        13
26.970        40
26.980        20
26.990        73
27.000        40
27.010        40
27.020        20
27.030        20
27.040        20
27.050        47
27.060        60
27.070        47
27.080        40
27.090        47
27.100        33
27.110        40
27.120        13
27.130        33
27.140         7
27.150        33
27.160        80
27.170        53
27.180        27
27.190        20
27.200        20
27.210        27
27.220        20
27.230        20
27.240        47
27.250        33
27.260        33
27.270        27
27.280        40
27.290        67
27.300        53
27.310        40
27.320        60
27.330        27
27.340        53
27.350        40
27.360        33
27.370        60
27.380        47
27.390        27
27.400        60
27.410        60
27.420        40
27.430        40
27.440        67
27.450        40
27.460        33
27.470        40
27.480        20
27.490        27
27.500        20
27.510        53
27.520        40
27.530        47
27.540        27
27.550        33
27.560        27
27.570        33
27.580        40
27.590        53
27.600        20
27.610        33
27.620        20
27.630        40
27.640        27
27.650        73
27.660        33
27.670        27
27.680        60
27.690        40
27.700        27
27.710        20
27.720        53
27.730        67
27.740        47
27.750        20
27.760        47
27.770        27
27.780        33
27.790        27
27.800        53
27.810        33
27.820        40
27.830        47
27.840        27
27.850        20
27.860        33
27.870        53
27.880        13
27.890        20
27.900        33
27.910        33
27.920        13
27.930         0
27.940        40
27.950        20
27.960        20
27.970        27
27.980        60
27.990        47
28.000        33
28.010        27
28.020        47
28.030        67
28.040        13
28.050        27
28.060        27
28.070        60
28.080        27
28.090        33
28.100        27
28.110        27
28.120        13
28.130        33
28.140        40
28.150         7
28.160        13
28.170        40
28.180        40
28.190        27
28.200        80
28.210        40
28.220        47
28.230        20
28.240        47
28.250        40
28.260         7
28.270        40
28.280        40
28.290        27
28.300        33
28.310         0
28.320        40
28.330        33
28.340        47
28.350        20
28.360        13
28.370        67
28.380        13
28.390        33
28.400        33
28.410        33
28.420        47
28.430        20
28.440        40
28.450        40
28.460         0
28.470        53
28.480        33
28.490        33
28.500        40
28.510        47
28.520        27
28.530        33
28.540        27
28.550        20
28.560        13
28.570        33
28.580        27
28.590        40
28.600        27
28.610        13
28.620        40
28.630        53
28.640        40
28.650        53
28.660        40
28.670        53
28.680        13
28.690        33
28.700        27
28.710        27
28.720        40
28.730        27
28.740        40
28.750        13
28.760        20
28.770        40
28.780         7
28.790        27
28.800        27
28.810        13
28.820        27
28.830        27
28.840        20
28.850        53
28.860         7
28.870        40
28.880        33
28.890        27
28.900        13
28.910        47
28.920        60
28.930        27
28.940        20
28.950        33
28.960        27
28.970        47
28.980        73
28.990        67
29.000        53
29.010        67
29.020        47
29.030         7
29.040        13
29.050        47
29.060        40
29.070        33
29.080        33
29.090        47
29.100        40
29.110        13
29.120        33
29.130        40
29.140        47
29.150        47
29.160        40
29.170        53
29.180        27
29.190        67
29.200        47
29.210        40
29.220        53
29.230        40
29.240        27
29.250        47
29.260        27
29.270        40
29.280        33
29.290        33
29.300        33
29.310        33
29.320        53
29.330        13
29.340        27
29.350        40
29.360        40
29.370        40
29.380        20
29.390        40
29.400        33
29.410        27
29.420        53
29.430        27
29.440        80
29.450        27
29.460         0
29.470        20
29.480        40
29.490        20
29.500        33
29.510        27
29.520        40
29.530        20
29.540        20
29.550         7
29.560        27
29.570        27
29.580        20
29.590        40
29.600        20
29.610        47
29.620        40
29.630        27
29.640        53
29.650        80
29.660        27
29.670        33
29.680        47
29.690        33
29.700        40
29.710        20
29.720        40
29.730        33
29.740        53
29.750        27
29.760        40
29.770        53
29.780        20
29.790        20
29.800        40
29.810        20
29.820        33
29.830        60
29.840        60
29.850        40
29.860        40
29.870        27
29.880        13
29.890        27
29.900        13
29.910        33
29.920        20
29.930        20
29.940        33
29.950        20
29.960        53
29.970         7
29.980        47
29.990         7
30.000        20
30.010        20
30.020        27
30.030        27
30.040        40
30.050        40
30.060        60
30.070        33
30.080        40
30.090        27
30.100        27
30.110        27
30.120        67
30.130        13
30.140        20
30.150        47
30.160        13
30.170        27
30.180        33
30.190        40
30.200        33
30.210        40
30.220        47
30.230        33
30.240         0
30.250        53
30.260         7
30.270        20
30.280        27
30.290        27
30.300        20
30.310        40
30.320        20
30.330        53
30.340        13
30.350        40
30.360        13
30.370        13
30.380        27
30.390        40
30.400        13
30.410        40
30.420        13
30.430         7
30.440        20
30.450        33
30.460        13
30.470        27
30.480        27
30.490        40
30.500        33
30.510        27
30.520        40
30.530        47
30.540        20
30.550        47
30.560        47
30.570        40
30.580        27
30.590        40
30.600        13
30.610        53
30.620        40
30.630        27
30.640        13
30.650        13
30.660        33
30.670        13
30.680        27
30.690        20
30.700        27
30.710        33
30.720        27
30.730        73
30.740        40
30.750        60
30.760        33
30.770        40
30.780        53
30.790        27
30.800        47
30.810        20
30.820        20
30.830        40
30.840        40
30.850        20
30.860        27
30.870        33
30.880        60
30.890        53
30.900        40
30.910        27
30.920        27
30.930        40
30.940        33
30.950        20
30.960        40
30.970        13
30.980        20
30.990        27
31.000        27
31.010        40
31.020        13
31.030        13
31.040        67
31.050        33
31.060        27
31.070        20
31.080         7
31.090         7
31.100        40
31.110        33
31.120        33
31.130        20
31.140        27
31.150        20
31.160        40
31.170        40
31.180        27
31.190        27
31.200        13
31.210        27
31.220        53
31.230        20
31.240        40
31.250        47
31.260        67
31.270        20
31.280        33
31.290        47
31.300        60
31.310        27
31.320        27
31.330        27
31.340        27
31.350        53
31.360        13
31.370        40
31.380        27
31.390        47
31.400        13
31.410        40
31.420        40
31.430        27
31.440        33
31.450        20
31.460        67
31.470        47
31.480        27
31.490        40
31.500        67
31.510        33
31.520        53
31.530        47
31.540        80
31.550        27
31.560        53
31.570        47
31.580        60
31.590        27
31.600        33
31.610        60
31.620        33
31.630        47
31.640        27
31.650        20
31.660        33
31.670        33
31.680        60
31.690        53
31.700        53
31.710        27
31.720        53
31.730        33
31.740        40
31.750        27
31.760        73
31.770        47
31.780        47
31.790        27
31.800        27
31.810        33
31.820        33
31.830        47
31.840        33
31.850        33
31.860        33
31.870        67
31.880        33
31.890        40
31.900        73
31.910        60
31.920        67
31.930        40
31.940        67
31.950        47
31.960        47
31.970        73
31.980        73
31.990        47
32.000       120
32.010        73
32.020        53
32.030        67
32.040       127
32.050       113
32.060       107
32.070       140
32.080       133
32.090       180
32.100       220
32.110       207
32.120       253
32.130       280
32.140       267
32.150       340
32.160       287
32.170       380
32.180       433
32.190       440
32.200       540
32.210       680
32.220       573
32.230       766
32.240       886
32.250       973
32.260      1106
32.270      1346
32.280      1319
32.290      1446
32.300      1553
32.310      1366
32.320      1739
32.330      1479
32.340      1473
32.350      1366
32.360      1286
32.370      1113
32.380      1106
32.390      1006
32.400       866
32.410       706
32.420       700
32.430       733
32.440       653
32.450       586
32.460       446
32.470       367
32.480       380
32.490       253
32.500       260
32.510       140
32.520       167
32.530       153
32.540       147
32.550        53
32.560       113
32.570        67
32.580       100
32.590       120
32.600        53
32.610        33
32.620        73
32.630        20
32.640        87
32.650        67
32.660        67
32.670        40
32.680        53
32.690        73
32.700        53
32.710        67
32.720        27
32.730        47
32.740        33
32.750        47
32.760        60
32.770        80
32.780        47
32.790        20
32.800        40
32.810        27
32.820        53
32.830        33
32.840        20
32.850        67
32.860        67
32.870        40
32.880        33
32.890        27
32.900        13
32.910        47
32.920        67
32.930        13
32.940        20
32.950        53
32.960        27
32.970        53
32.980        27
32.990        53
33.000        47
33.010        53
33.020        33
33.030        27
33.040        33
33.050        33
33.060        33
33.070        33
33.080        40
33.090        27
33.100        40
33.110        60
33.120        53
33.130        27
33.140        47
33.150        27
33.160        13
33.170        33
33.180        20
33.190        33
33.200        27
33.210        33
33.220        20
33.230        33
33.240        27
33.250        27
33.260        27
33.270        20
33.280        53
33.290        27
33.300        20
33.310        47
33.320        27
33.330        27
33.340        47
33.350        33
33.360        27
33.370        40
33.380        27
33.390        27
33.400        27
33.410        47
33.420        20
33.430         0
33.440        67
33.450        20
33.460        40
33.470        20
33.480        20
33.490        27
33.500         7
33.510        33
33.520        20
33.530        27
33.540        27
33.550        53
33.560        13
33.570        27
33.580        47
33.590        33
33.600        40
33.610        33
33.620        13
33.630        53
33.640        33
33.650        27
33.660        47
33.670        33
33.680        27
33.690        33
33.700        53
33.710        47
33.720        60
33.730        13
33.740        27
33.750        40
33.760        53
33.770        60
33.780        33
33.790        40
33.800        40
33.810        20
33.820        33
33.830        27
33.840        40
33.850        27
33.860        27
33.870         7
33.880        27
33.890        33
33.900        53
33.910        20
33.920        33
33.930        20
33.940        13
33.950        53
33.960        47
33.970        47
33.980        40
33.990        40
34.000        27
34.010        13
34.020        40
34.030        40
34.040        27
34.050        33
34.060        33
34.070        27
34.080        47
34.090        40
34.100        13
34.110        40
34.120        40
34.130        53
34.140        60
34.150        27
34.160        20
34.170        40
34.180        47
34.190        27
34.200        20
34.210        47
34.220        53
34.230        20
34.240        53
34.250        33
34.260        40
34.270        13
34.280        33
34.290        27
34.300        20
34.310        47
34.320        33
34.330        27
34.340        20
34.350        27
34.360        47
34.370        47
34.380        20
34.390        13
34.400        67
34.410        20
34.420        13
34.430        27
34.440        20
34.450        33
34.460        27
34.470        40
34.480        20
34.490        53
34.500        13
34.510        27
34.520        20
34.530        33
34.540        20
34.550        47
34.560        60
34.570        33
34.580        20
34.590        13
34.600        27
34.610        47
34.620        33
34.630        67
34.640        13
34.650        33
34.660        53
34.670        27
34.680        20
34.690        20
34.700        47
34.710        33
34.720        27
34.730        20
34.740         0
34.750        20
34.760        47
34.770        47
34.780        53
34.790        20
34.800        40
34.810        40
34.820        33
34.830        47
34.840        40
34.850        47
34.860        67
34.870        27
34.880        40
34.890        53
34.900        33
34.910        80
34.920        40
34.930        60
34.940        73
34.950        60
34.960        73
34.970        73
34.980       107
34.990        73
35.000       100
35.010       133
35.020       133
35.030        73
35.040       160
35.050       127
35.060       167
35.070       153
35.080       227
35.090       267
35.100       160
35.110       147
35.120       113
35.130        60
35.140       120
35.150       113
35.160       120
35.170       100
35.180        87
35.190        87
35.200       100
35.210        80
35.220        67
35.230        40
35.240        80
35.250        33
35.260        33
35.270        33
35.280        33
35.290        47
35.300         7
35.310        33
35.320        13
35.330        47
35.340        20
35.350        47
35.360        47
35.370        27
35.380        33
35.390        40
35.400        47
35.410        27
35.420        27
35.430        27
35.440        20
35.450        27
35.460        40
35.470        40
35.480        27
35.490        27
35.500        40
35.510        27
35.520        33
35.530        27
35.540         7
35.550        27
35.560        20
35.570        40
35.580        27
35.590        33
35.600        27
35.610        20
35.620        27
35.630        33
35.640        27
35.650        33
35.660        40
35.670        40
35.680        27
35.690        73
35.700        33
35.710        13
35.720        27
35.730        20
35.740        47
35.750        47
35.760        53
35.770        20
35.780        20
35.790        40
35.800         7
35.810        47
35.820        27
35.830        13
35.840        40
35.850        33
35.860        53
35.870        27
35.880        20
35.890        40
35.900        13
35.910        13
35.920        47
35.930        60
35.940        47
35.950        27
35.960        33
35.970        13
35.980        20
35.990        27
36.000        33
36.010        27
36.020         0
36.030        13
36.040        20
36.050        20
36.060        27
36.070        33
36.080        20
36.090        47
36.100        20
36.110        33
36.120        40
36.130        20
36.140        20
36.150        53
36.160        13
36.170        27
36.180        47
36.190         7
36.200        33
36.210        33
36.220        20
36.230        40
36.240         7
36.250        20
36.260        13
36.270         0
36.280        27
36.290        33
36.300        60
36.310        27
36.320        60
36.330        13
36.340         7
36.350        33
36.360        13
36.370        40
36.380        40
36.390        27
36.400        27
36.410        20
36.420         7
36.430        47
36.440        53
36.450        40
36.460        27
36.470        27
36.480        33
36.490        20
36.500        47
36.510        27
36.520        27
36.530        27
36.540        40
36.550        27
36.560        20
36.570        40
36.580        13
36.590        40
36.600        27
36.610        13
36.620        20
36.630        40
36.640        27
36.650        13
36.660        13
36.670        33
36.680        40
36.690        20
36.700        33
36.710        40
36.720        40
36.730        40
36.740        47
36.750        27
36.760        40
36.770        13
36.780        20
36.790        40
36.800        60
36.810         7
36.820        27
36.830        33
36.840        33
36.850        40
36.860        27
36.870        20
36.880         7
36.890        27
36.900        20
36.910        33
36.920        27
36.930        33
36.940        20
36.950        13
36.960         7
36.970        27
36.980        67
36.990        20
37.000        40
37.010        33
37.020        33
37.030        67
37.040        20
37.050        27
37.060        20
37.070        33
37.080        20
37.090        40
37.100        40
37.110        40
37.120        33
37.130        13
37.140        60
37.150        27
37.160        13
37.170        33
37.180        20
37.190        20
37.200        33
37.210         7
37.220        33
37.230        53
37.240        33
37.250        20
37.260        40
37.270        33
37.280        20
37.290        20
37.300        33
37.310        40
37.320         0
37.330        53
37.340        27
37.350        20
37.360        20
37.370        33
37.380        47
37.390        47
37.400        27
37.410        20
37.420        47
37.430        47
37.440        20
37.450        27
37.460        13
37.470        47
37.480        13
37.490        60
37.500        20
37.510        20
37.520        27
37.530        47
37.540        40
37.550        13
37.560         7
37.570        20
37.580        27
37.590        40
37.600        20
37.610        20
37.620        27
37.630        20
37.640        53
37.650        47
37.660        27
37.670        53
37.680        60
37.690        53
37.700        33
37.710        47
37.720       107
37.730        53
37.740        73
37.750        40
37.760        53
37.770        67
37.780        60
37.790        47
37.800        53
37.810        47
37.820        13
37.830        20
37.840        27
37.850        40
37.860        40
37.870        60
37.880        27
37.890        47
37.900        33
37.910        47
37.920        40
37.930        27
37.940        33
37.950        27
37.960        27
37.970        13
37.980        27
37.990        20
38.000        40
38.010        13
38.020         7
38.030        27
38.040        20
38.050       100
38.060        27
38.070        33
38.080        33
38.090        13
38.100        33
38.110        13
38.120        13
38.130        20
38.140        33
38.150        20
38.160        47
38.170        20
38.180        40
38.190        27
38.200        13
38.210        20
38.220         0
38.230        20
38.240        40
38.250        33
38.260        20
38.270        13
38.280        33
38.290        20
38.300        20
38.310        20
38.320        27
38.330         7
38.340        33
38.350        40
38.360        27
38.370        13
38.380        47
38.390        33
38.400        13
38.410        27
38.420        20
38.430        47
38.440        27
38.450        33
38.460        33
38.470        27
38.480         0
38.490        13
38.500        13
38.510        33
38.520        47
38.530        33
38.540        40
38.550        20
38.560        13
38.570        33
38.580        27
38.590        27
38.600        27
38.610        27
38.620        40
38.630        47
38.640        53
38.650        47
38.660        27
38.670        47
38.680        20
38.690        13
38.700        27
38.710        27
38.720        33
38.730        33
38.740        20
38.750        53
38.760        40
38.770        47
38.780        40
38.790         7
38.800        27
38.810        33
38.820        53
38.830         7
38.840         7
38.850        13
38.860        13
38.870        13
38.880        13
38.890        27
38.900        53
38.910        33
38.920        27
38.930        27
38.940        33
38.950        20
38.960        33
38.970        33
38.980        47
38.990        20
39.000        27
39.010        13
39.020        27
39.030         0
39.040        40
39.050        13
39.060         7
39.070         0
39.080        27
39.090        13
39.100        53
39.110        20
39.120        20
39.130        20
39.140        27
39.150        67
39.160        40
39.170        33
39.180        27
39.190        53
39.200        13
39.210        13
39.220        47
39.230        40
39.240         7
39.250        13
39.260        20
39.270         7
39.280        40
39.290        27
39.300        47
39.310         7
39.320        13
39.330        40
39.340        20
39.350        67
39.360        27
39.370        40
39.380        20
39.390        53
39.400        73
39.410        40
39.420        40
39.430        27
39.440        40
39.450        20
39.460        27
39.470        27
39.480        40
39.490        47
39.500        47
39.510        47
39.520        33
39.530        27
39.540        13
39.550        67
39.560        67
39.570        33
39.580        53
39.590        33
39.600        33
39.610        33
39.620        80
39.630        93
39.640        67
39.650       120
39.660        73
39.670        60
39.680        93
39.690        80
39.700        87
39.710       113
39.720       107
39.730        93
39.740       100
39.750       160
39.760       180
39.770       113
39.780       187
39.790       320
39.800       333
39.810       293
39.820       353
39.830       333
39.840       393
39.850       426
39.860       460
39.870       780
39.880       740
39.890       786
39.900       673
39.910       866
39.920       853
39.930       693
39.940       700
39.950       713
39.960       693
39.970       520
39.980       440
39.990       426
40.000       433
40.010       433
40.020       460
40.030       340
40.040       327
40.050       353
40.060       247
40.070       247
40.080       213
40.090       213
40.100       140
40.110       113
40.120       160
40.130        67
40.140        53
40.150       100
40.160       113
40.170       107
40.180        53
40.190        53
40.200        60
40.210        47
40.220        47
40.230        53
40.240        27
40.250        47
40.260        27
40.270        47
40.280        33
40.290        73
40.300        40
40.310        33
40.320        40
40.330         7
40.340        33
40.350        20
40.360        27
40.370        73
40.380         7
40.390        40
40.400        33
40.410        40
40.420        27
40.430        40
40.440        20
40.450        47
40.460        33
40.470        27
40.480        20
40.490        13
40.500        20
40.510        13
40.520        47
40.530        47
40.540         0
40.550        13
40.560        13
40.570        53
40.580        20
40.590        20
40.600        33
40.610        13
40.620        27
40.630        33
40.640        27
40.650        33
40.660        20
40.670        33
40.680        27
40.690        20
40.700        27
40.710        27
40.720        27
40.730        33
40.740        20
40.750        20
40.760        40
40.770        13
40.780        13
40.790        20
40.800        53
40.810        33
40.820        20
40.830        27
40.840        40
40.850        13
40.860        33
40.870        13
40.880        13
40.890        20
40.900        40
40.910        33
40.920        27
40.930        20
40.940        33
40.950        40
40.960        40
40.970        40
40.980         7
40.990        13
41.000        20
41.010        20
41.020        33
41.030        13
41.040        20
41.050        20
41.060        27
41.070        27
41.080        27
41.090        53
41.100        27
41.110        27
41.120        13
41.130        27
41.140        33
41.150        20
41.160         7
41.170        53
41.180        20
41.190        20
41.200        20
41.210        33
41.220        40
41.230        20
41.240         0
41.250        27
41.260        40
41.270        47
41.280         0
41.290        40
41.300        13
41.310        33
41.320         7
41.330         7
41.340        20
41.350        47
41.360        60
41.370        20
41.380        13
41.390        33
41.400        40
41.410        73
41.420        20
41.430        60
41.440        20
41.450        27
41.460        27
41.470        53
41.480        47
41.490        33
41.500        60
41.510        87
41.520        33
41.530        73
41.540       100
41.550        33
41.560        93
41.570       127
41.580        67
41.590       140
41.600       200
41.610       160
41.620       260
41.630       207
41.640       127
41.650       167
41.660       147
41.670       120
41.680       113
41.690        53
41.700       100
41.710       133
41.720       140
41.730       120
41.740        40
41.750        87
41.760        67
41.770        47
41.780        47
41.790        60
41.800        13
41.810        33
41.820        47
41.830        40
41.840        27
41.850        53
41.860        20
41.870        33
41.880        20
41.890        27
41.900        13
41.910        13
41.920        40
41.930        27
41.940        20
41.950        33
41.960        53
41.970        13
41.980         7
41.990        20
42.000        33
42.010        53
42.020         0
42.030        20
42.040        20
42.050         7
42.060        27
42.070         7
42.080        13
42.090        13
42.100        67
42.110        33
42.120        27
42.130        13
42.140        13
42.150        20
42.160        27
42.170        27
42.180         7
42.190        20
42.200        13
42.210         7
42.220        20
42.230        20
42.240        20
42.250        13
42.260        33
42.270        20
42.280         0
42.290        13
42.300        27
42.310        33
42.320        13
42.330        20
42.340        20
42.350        27
42.360        27
42.370        13
42.380        13
42.390        20
42.400        13
42.410        20
42.420        40
42.430        33
42.440        20
42.450        40
42.460        27
42.470        33
42.480        60
42.490        20
42.500        27
42.510        27
42.520        13
42.530        27
42.540         7
42.550        33
42.560        33
42.570        33
42.580        27
42.590         7
42.600         7
42.610        20
42.620        40
42.630        47
42.640         0
42.650        40
42.660        40
42.670        33
42.680        40
42.690         7
42.700        47
42.710        33
42.720        33
42.730        20
42.740        27
42.750        27
42.760         0
42.770        13
42.780        20
42.790         0
42.800        20
42.810        40
42.820        20
42.830        13
42.840        27
42.850        20
42.860        20
42.870        20
42.880         7
42.890        27
42.900        33
42.910        67
42.920        33
42.930        20
42.940         7
42.950         7
42.960        33
42.970        27
42.980         0
42.990        20
43.000        13
43.010         7
43.020        13
43.030        33
43.040        33
43.050        47
43.060         7
43.070        27
43.080        33
43.090        20
43.100        40
43.110        13
43.120        33
43.130        27
43.140        27
43.150        47
43.160        27
43.170        20
43.180        33
43.190        40
43.200        13
43.210        47
43.220        40
43.230        40
43.240        80
43.250        53
43.260       120
43.270       107
43.280       180
43.290       187
43.300       120
43.310       113
43.320       180
43.330       127
43.340        93
43.350       140
43.360        33
43.370        87
43.380        60
43.390       127
43.400        93
43.410       127
43.420        80
43.430        53
43.440        60
43.450        67
43.460        53
43.470        47
43.480        47
43.490        20
43.500        27
43.510         7
43.520        20
43.530        13
43.540        27
43.550        13
43.560        20
43.570        13
43.580        40
43.590        53
43.600         7
43.610        20
43.620        20
43.630        20
43.640        13
43.650        27
43.660        33
43.670        27
43.680        27
43.690        27
43.700        20
43.710        20
43.720        20
43.730        33
43.740        13
43.750        20
43.760        13
43.770        20
43.780        33
43.790        27
43.800        13
43.810        40
43.820         0
43.830        40
43.840        33
43.850         7
43.860        27
43.870        33
43.880         7
43.890        20
43.900        27
43.910         7
43.920        40
43.930        20
43.940        47
43.950        13
43.960        20
43.970        13
43.980        20
43.990        33
44.000        40
44.010        20
44.020        33
44.030        40
44.040        27
44.050        13
44.060        13
44.070        27
44.080        13
44.090        27
44.100        27
44.110        27
44.120        20
44.130        27
44.140        27
44.150        27
44.160        13
44.170        47
44.180        13
44.190        13
44.200        33
44.210        53
44.220         7
44.230        40
44.240        20
44.250        20
44.260        13
44.270        33
44.280         0
44.290        40
44.300         7
44.310        13
44.320        20
44.330        20
44.340        13
44.350        33
44.360        40
44.370        20
44.380         0
44.390        20
44.400         0
44.410        20
44.420        20
44.430        20
44.440        13
44.450        20
44.460        20
44.470        20
44.480        20
44.490        27
44.500        13
44.510         7
44.520        13
44.530        27
44.540         7
44.550         7
44.560        40
44.570        13
44.580        27
44.590        33
44.600        27
44.610        20
44.620        13
44.630        27
44.640         7
44.650        13
44.660        33
44.670        47
44.680        40
44.690        20
44.700        40
44.710        13
44.720        33
44.730        33
44.740         7
44.750        20
44.760        20
44.770        47
44.780         7
44.790        33
44.800        27
44.810        27
44.820        13
44.830        40
44.840        27
44.850        13
44.860        27
44.870        13
44.880        33
44.890        20
44.900        47
44.910        13
44.920         7
44.930        33
44.940        33
44.950        20
44.960        40
44.970         7
44.980        40
44.990        13
45.000        40
45.010         0
45.020        53
45.030        40
45.040        27
45.050        13
45.060        27
45.070         7
45.080        27
45.090         7
45.100        33
45.110        13
45.120        20
45.130         7
45.140        13
45.150         7
45.160        40
45.170        13
45.180        20
45.190        20
45.200        20
45.210        27
45.220        27
45.230         7
45.240        20
45.250        27
45.260        40
45.270        33
45.280        33
45.290        13
45.300        20
45.310        40
45.320        20
45.330        27
45.340        33
45.350        27
45.360        13
45.370        20
45.380        13
45.390        27
45.400        13
45.410        20
45.420        47
45.430        20
45.440        20
45.450        20
45.460        27
45.470         7
45.480        20
45.490        33
45.500        27
45.510        40
45.520        20
45.530        33
45.540        13
45.550        27
45.560        13
45.570        33
45.580        13
45.590        27
45.600        27
45.610        13
45.620         7
45.630        33
45.640        27
45.650        20
45.660        20
45.670        13
45.680        27
45.690        47
45.700         0
45.710        47
45.720         7
45.730        20
45.740        20
45.750        13
45.760        27
45.770        13
45.780        20
45.790         0
45.800        20
45.810        27
45.820        33
45.830        40
45.840        20
45.850        13
45.860        13
45.870        33
45.880        40
45.890        73
45.900        40
45.910        27
45.920        27
45.930        33
45.940        20
45.950        33
45.960        47
45.970        20
45.980        40
45.990        33
46.000        53
46.010        33
46.020        53
46.030        13
46.040        60
46.050        47
46.060        47
46.070        13
46.080        67
46.090        53
46.100        33
46.110        67
46.120        80
46.130        47
46.140        87
46.150        93
46.160        73
46.170        40
46.180        93
46.190        60
46.200        93
46.210        80
46.220        80
46.230       120
46.240       100
46.250        73
46.260        87
46.270       107
46.280       140
46.290        87
46.300       160
46.310       100
46.320       120
46.330       127
46.340       140
46.350       140
46.360       140
46.370       173
46.380        87
46.390       107
46.400       207
46.410       107
46.420       180
46.430       140
46.440       140
46.450       140
46.460       180
46.470        93
46.480       180
46.490       153
46.500       167
46.510       127
46.520       100
46.530       100
46.540        93
46.550       100
46.560       107
46.570        67
46.580        47
46.590       107
46.600        73
46.610        60
46.620        60
46.630        80
46.640        73
46.650        47
46.660        67
46.670        53
46.680        60
46.690        13
46.700        53
46.710        53
46.720        27
46.730        53
46.740        53
46.750        47
46.760        33
46.770        13
46.780        27
46.790        20
46.800        60
46.810        20
46.820        27
46.830        27
46.840        20
46.850        27
46.860        33
46.870        27
46.880        27
46.890        47
46.900        20
46.910        20
46.920        20
46.930        20
46.940        20
46.950        33
46.960        73
46.970        40
46.980        27
46.990         0
47.000        27
47.010        20
47.020        53
47.030        20
47.040        40
47.050        20
47.060        20
47.070        40
47.080        20
47.090        27
47.100        33
47.110        20
47.120        40
47.130        20
47.140         0
47.150        33
47.160        20
47.170        27
47.180        27
47.190        20
47.200        13
47.210        33
47.220        27
47.230        20
47.240        13
47.250        13
47.260        13
47.270        20
47.280        20
47.290        27
47.300        20
47.310        33
47.320        27
47.330        20
47.340        27
47.350         7
47.360        13
47.370        33
47.380        20
47.390        27
47.400         7
47.410        33
47.420        40
47.430        27
47.440        27
47.450         7
47.460        27
47.470        20
47.480         7
47.490        20
47.500         0
47.510        27
47.520         7
47.530         7
47.540         0
47.550         7
47.560        33
47.570        13
47.580         7
47.590        20
47.600        53
47.610        27
47.620         7
47.630        13
47.640        27
47.650        20
47.660        27
47.670        33
47.680        33
47.690        47
47.700        13
47.710        20
47.720        20
47.730        20
47.740        13
47.750        27
47.760        20
47.770        47
47.780         7
47.790        40
47.800        20
47.810        20
47.820        20
47.830        33
47.840         0
47.850        13
47.860        40
47.870        20
47.880        27
47.890        60
47.900        13
47.910        13
47.920         0
47.930        13
47.940        20
47.950        27
47.960        20
47.970        27
47.980         0
47.990        13
48.000        20
48.010        33
48.020        27
48.030        20
48.040         7
48.050        27
48.060        27
48.070        27
48.080        13
48.090         7
48.100        13
48.110         7
48.120        13
48.130        33
48.140        20
48.150        20
48.160        33
48.170        33
48.180        27
48.190        20
48.200         0
48.210        33
48.220        20
48.230        13
48.240        20
48.250        27
48.260        13
48.270        13
48.280        27
48.290        20
48.300        13
48.310        20
48.320        20
48.330        13
48.340        13
48.350        20
48.360        27
48.370        27
48.380        33
48.390        27
48.400        13
48.410        20
48.420        13
48.430         7
48.440        13
48.450        27
48.460         7
48.470        27
48.480         7
48.490         7
48.500         7
48.510         7
48.520        27
48.530        13
48.540        13
48.550        27
48.560         7
48.570        33
48.580         0
48.590         0
48.600        20
48.610        27
48.620        13
48.630        33
48.640        33
48.650        13
48.660        13
48.670         7
48.680         7
48.690        27
48.700        33
48.710        27
48.720        40
48.730         0
48.740         7
48.750        33
48.760        20
48.770        27
48.780        20
48.790        40
48.800        27
48.810        13
48.820        27
48.830        33
48.840        27
48.850        27
48.860        33
48.870        20
48.880        20
48.890        33
48.900        20
48.910        13
48.920        27
48.930        33
48.940        27
48.950        13
48.960         7
48.970        20
48.980        20
48.990        27
49.000        20
49.010         7
49.020         7
49.030        20
49.040        33
49.050        20
49.060        20
49.070         0
49.080        27
49.090         0
49.100        20
49.110         7
49.120        13
49.130        13
49.140        13
49.150        20
49.160        27
49.170        13
49.180         7
49.190         0
49.200        20
49.210        33
49.220         0
49.230        47
49.240         7
49.250         0
49.260         7
49.270        20
49.280        13
49.290        33
49.300        20
49.310         0
49.320         7
49.330         0
49.340        20
49.350        13
49.360         7
49.370        13
49.380        27
49.390        13
49.400        20
49.410        20
49.420        20
49.430        20
49.440        33
49.450        20
49.460        13
49.470         0
49.480        27
49.490        47
49.500        33
49.510        20
49.520        20
49.530        27
49.540         7
49.550        13
49.560        13
49.570        20
49.580         7
49.590        40
49.600        13
49.610        27
49.620        20
49.630        20
49.640        13
49.650        13
49.660        33
49.670         0
49.680        13
49.690         7
49.700        27
49.710        13
49.720        13
49.730         7
49.740        20
49.750        20
49.760        13
49.770         0
49.780        27
49.790        20
49.800        27
49.810        20
49.820         7
49.830        20
49.840        27
49.850         0
49.860        20
49.870        13
49.880        20
49.890         7
49.900        20
49.910        20
49.920        33
49.930        27
49.940        27
49.950         7
49.960         0
49.970        33
49.980        20
49.990        27
50.000         0
50.010        13
50.020         7
50.030         7
50.040        27
50.050        33
50.060        13
50.070        13
50.080        33
50.090        20
50.100        20
50.110        20
50.120         7
50.130        20
50.140        20
50.150        13
50.160         7
50.170        27
50.180        13
50.190        13
50.200        13
50.210        27
50.220        20
50.230        13
50.240        13
50.250         0
50.260         7
50.270        33
50.280        13
50.290        20
50.300        27
50.310        40
50.320        33
50.330        13
50.340         0
50.350         7
50.360        20
50.370        13
50.380         7
50.390        20
50.400         7
50.410        33
50.420        40
50.430         7
50.440        20
50.450         7
50.460        20
50.470        20
50.480        27
50.490        27
50.500        20
50.510         7
50.520        13
50.530        33
50.540        13
50.550         0
50.560        40
50.570        20
50.580        13
50.590        20
50.600        13
50.610        27
50.620        13
50.630        27
50.640        20
50.650        27
50.660         7
50.670        13
50.680         7
50.690         7
50.700        13
50.710        13
50.720        20
50.730        33
50.740         0
50.750        33
50.760        13
50.770        13
50.780        20
50.790        13
50.800        20
50.810        33
50.820        20
50.830        13
50.840        20
50.850        13
50.860         0
50.870        27
50.880        20
50.890         7
50.900        20
50.910         7
50.920        13
50.930        13
50.940         7
50.950        40
50.960         7
50.970        47
50.980         7
50.990        27
51.000        27
51.010        20
51.020        20
51.030        40
51.040        13
51.050        13
51.060        13
51.070        13
51.080        20
51.090         7
51.100        20
51.110         7
51.120        27
51.130        40
51.140         7
51.150         7
51.160        47
51.170         0
51.180        13
51.190         7
51.200        20
51.210        20
51.220        20
51.230        13
51.240        13
51.250         0
51.260        20
51.270         0
51.280        20
51.290        13
51.300        27
51.310        13
51.320         7
51.330        20
51.340        13
51.350         7
51.360        20
51.370         7
51.380        13
51.390         0
51.400        20
51.410        20
51.420        33
51.430        13
51.440        33
51.450        33
51.460        27
51.470        13
51.480        20
51.490        13
51.500        13
51.510        33
51.520        13
51.530         7
51.540         7
51.550        27
51.560        13
51.570        20
51.580        13
51.590         7
51.600        13
51.610        40
51.620        20
51.630         7
51.640        33
51.650        27
51.660         7
51.670        13
51.680         7
51.690        20
51.700        13
51.710        13
51.720         7
51.730        13
51.740        33
51.750         7
51.760        20
51.770        20
51.780         7
51.790        20
51.800        40
51.810         7
51.820        33
51.830         7
51.840         0
51.850         0
51.860        33
51.870         7
51.880        33
51.890         7
51.900        20
51.910         7
51.920        27
51.930        20
51.940        20
51.950         7
51.960        13
51.970        33
51.980        27
51.990        13
52.000        27
52.010        13
52.020        13
52.030        20
52.040        33
52.050        40
52.060         0
52.070        20
52.080        33
52.090         7
52.100        40
52.110        13
52.120        27
52.130         7
52.140        33
52.150         0
52.160        13
52.170        20
52.180        40
52.190        13
52.200         0
52.210        13
52.220        27
52.230        13
52.240        27
52.250        33
52.260        13
52.270        13
52.280        33
52.290         7
52.300        33
52.310        20
52.320         7
52.330        20
52.340        20
52.350        20
52.360        47
52.370         7
52.380        27
52.390        33
52.400        20
52.410        33
52.420        13
52.430        33
52.440        40
52.450        27
52.460        40
52.470        67
52.480        33
52.490        33
52.500        53
52.510        67
52.520        53
52.530       173
52.540       147
52.550       193
52.560       213
52.570       187
52.580       173
52.590       140
52.600       107
52.610        80
52.620        47
52.630        47
52.640        60
52.650         7
52.660        67
52.670        47
52.680       107
52.690       127
52.700        93
52.710        93
52.720        93
52.730        67
52.740        53
52.750        53
52.760        33
52.770        33
52.780        67
52.790        20
52.800         0
52.810        27
52.820        13
52.830        27
52.840        20
52.850        13
52.860        20
52.870        27
52.880        13
52.890        20
52.900        13
52.910        13
52.920        20
52.930        33
52.940        13
52.950         7
52.960        27
52.970        13
52.980        33
52.990         7
53.000        13
53.010         7
53.020         7
53.030        27
53.040        20
53.050        20
53.060        27
53.070        13
53.080         7
53.090        20
53.100        27
53.110        33
53.120         7
53.130        27
53.140        13
53.150        13
53.160        13
53.170        20
53.180         7
53.190        20
53.200         0
53.210        13
53.220        13
53.230        33
53.240        33
53.250        13
53.260        20
53.270         7
53.280        27
53.290        40
53.300        20
53.310        20
53.320        13
53.330        13
53.340        27
53.350        20
53.360        13
53.370        20
53.380        27
53.390        27
53.400        13
53.410        20
53.420        20
53.430        33
53.440         7
53.450        20
53.460        20
53.470        40
53.480         0
53.490         7
53.500        13
53.510        27
53.520         7
53.530        27
53.540        33
53.550         7
53.560        13
53.570        20
53.580         7
53.590         0
53.600        27
53.610        20
53.620        20
53.630        13
53.640         7
53.650        27
53.660        13
53.670        33
53.680        27
53.690        20
53.700         7
53.710        53
53.720        13
53.730        13
53.740        13
53.750        27
53.760         0
53.770        33
53.780        13
53.790        40
53.800         0
53.810        13
53.820        13
53.830         7
53.840        13
53.850         7
53.860        27
53.870        13
53.880        33
53.890        13
53.900        27
53.910        13
53.920        27
53.930         0
53.940        27
53.950        40
53.960         7
53.970         7
53.980        13
53.990        20
54.000         7
54.010         0
54.020         7
54.030        20
54.040        27
54.050         0
54.060        20
54.070        13
54.080        13
54.090         7
54.100        13
54.110        20
54.120        13
54.130         7
54.140        13
54.150         0
54.160        40
54.170         7
54.180         7
54.190        20
54.200         7
54.210        20
54.220         7
54.230         7
54.240         0
54.250        13
54.260        13
54.270         7
54.280        33
54.290         0
54.300        20
54.310         7
54.320         7
54.330         0
54.340        20
54.350        20
54.360        20
54.370        13
54.380        27
54.390        13
54.400         7
54.410        13
54.420         7
54.430        33
54.440        20
54.450         0
54.460        13
54.470        13
54.480        13
54.490        13
54.500        13
54.510        13
54.520        13
54.530         7
54.540         7
54.550        40
54.560        13
54.570        20
54.580        20
54.590         0
54.600        13
54.610        27
54.620         7
54.630         7
54.640        13
54.650        27
54.660         7
54.670        13
54.680        20
54.690         7
54.700         0
54.710        27
54.720        27
54.730        33
54.740        20
54.750        13
54.760        20
54.770        27
54.780         7
54.790         0
54.800         7
54.810        20
54.820         7
54.830        40
54.840        20
54.850        27
54.860        20
54.870        13
54.880        20
54.890        47
54.900         7
54.910        20
54.920        33
54.930         7
54.940         7
54.950        20
54.960        20
54.970        27
54.980         7
54.990         7
55.000         7
55.010        13
55.020        27
55.030        27
55.040        40
55.050        20
55.060         7
55.070         7
55.080        27
55.090         0
55.100        20
55.110         7
55.120        20
55.130        20
55.140        33
55.150         0
55.160         0
55.170         7
55.180        20
55.190        20
55.200        20
55.210         7
55.220        20
55.230        20
55.240        20
55.250        13
55.260        20
55.270        20
55.280        13
55.290        13
55.300        20
55.310        20
55.320        20
55.330        33
55.340         7
55.350         0
55.360        20
55.370        20
55.380        13
55.390         0
55.400         7
55.410         0
55.420         0
55.430        13
55.440         7
55.450         7
55.460        33
55.470         7
55.480        20
55.490        27
55.500        33
55.510        20
55.520        13
55.530         7
55.540        27
55.550        27
55.560        13
55.570        27
55.580        13
55.590        13
55.600         7
55.610        33
55.620        40
55.630         7
55.640        13
55.650        27
55.660        13
55.670        20
55.680        27
55.690         7
55.700         7
55.710        13
55.720        20
55.730        40
55.740         7
55.750        20
55.760         0
55.770        27
55.780        13
55.790        33
55.800        20
55.810         7
55.820        20
55.830        33
55.840        13
55.850        27
55.860        33
55.870         7
55.880         0
55.890        20
55.900        13
55.910        27
55.920        20
55.930         7
55.940        20
55.950        20
55.960         0
55.970         0
55.980        13
55.990         0
56.000         7
56.010        13
56.020         7
56.030        13
56.040        13
56.050        20
56.060         0
56.070        27
56.080        33
56.090        27
56.100        13
56.110         7
56.120        13
56.130        20
56.140        20
56.150        33
56.160        33
56.170        13
56.180         7
56.190        33
56.200        27
56.210         7
56.220        13
56.230        20
56.240        20
56.250         7
56.260        13
56.270        13
56.280        13
56.290        13
56.300        20
56.310         0
56.320         7
56.330         0
56.340        13
56.350        20
56.360        13
56.370        33
56.380         7
56.390        20
56.400        33
56.410        40
56.420        20
56.430        13
56.440         7
56.450        20
56.460         0
56.470        27
56.480        20
56.490        20
56.500        40
56.510         7
56.520        13
56.530        20
56.540         7
56.550         0
56.560        40
56.570        47
56.580        13
56.590        27
56.600         7
56.610        20
56.620         0
56.630        13
56.640        20
56.650        13
56.660        13
56.670        13
56.680         0
56.690         7
56.700        20
56.710        20
56.720        27
56.730         7
56.740        47
56.750         7
56.760         7
56.770        13
56.780        13
56.790        27
56.800        27
56.810        27
56.820        20
56.830        33
56.840         0
56.850        20
56.860         0
56.870        33
56.880         7
56.890         7
56.900         7
56.910        27
56.920         7
56.930        33
56.940         7
56.950         0
56.960        27
56.970        27
56.980         0
56.990        13
57.000        13
57.010        13
57.020         7
57.030        13
57.040        13
57.050        27
57.060        20
57.070         7
57.080         7
57.090         7
57.100         7
57.110         0
57.120        20
57.130        20
57.140        13
57.150        13
57.160        20
57.170        27
57.180         7
57.190        47
57.200         0
57.210        33
57.220         7
57.230        27
57.240        20
57.250         7
57.260        13
57.270        60
57.280         7
57.290        47
57.300        20
57.310        20
57.320        27
57.330        53
57.340        13
57.350        67
57.360        40
57.370        67
57.380        33
57.390        40
57.400        73
57.410        73
57.420        73
57.430        87
57.440        80
57.450        80
57.460       147
57.470       140
57.480       147
57.490       120
57.500       147
57.510       120
57.520       120
57.530        87
57.540        73
57.550        87
57.560       100
57.570        87
57.580        53
57.590       100
57.600        80
57.610       160
57.620        67
57.630       193
57.640       120
57.650       140
57.660       133
57.670       107
57.680       160
57.690       153
57.700       153
57.710       253
57.720       220
57.730       300
57.740       227
57.750       260
57.760       307
57.770       227
57.780       167
57.790       227
57.800       367
57.810       187
57.820       253
57.830       233
57.840       260
57.850       193
57.860       173
57.870       213
57.880       213
57.890       200
57.900       147
57.910       120
57.920       180
57.930       207
57.940        93
57.950       160
57.960       167
57.970       120
57.980       147
57.990       153
58.000       120
58.010       100
58.020        67
58.030        67
58.040        40
58.050        67
58.060        67
58.070        73
58.080        40
58.090        40
58.100        60
58.110        53
58.120        60
58.130        33
58.140        53
58.150        33
58.160        27
58.170         0
58.180        13
58.190        33
58.200         0
58.210        40
58.220        20
58.230        33
58.240        20
58.250        27
58.260        20
58.270         0
58.280        27
58.290         7
58.300        13
58.310        20
58.320        47
58.330         7
58.340         7
58.350         7
58.360        27
58.370        13
58.380        33
58.390        40
58.400        27
58.410        20
58.420        33
58.430        20
58.440         7
58.450         0
58.460        13
58.470        13
58.480        33
58.490         0
58.500         0
58.510        20
58.520        13
58.530         0
58.540        13
58.550        13
58.560        33
58.570        13
58.580        13
58.590        13
58.600        13
58.610        13
58.620        20
58.630        20
58.640        27
58.650        27
58.660        20
58.670        13
58.680        20
58.690        13
58.700         0
58.710        13
58.720        27
58.730        13
58.740        13
58.750        33
58.760        13
58.770        20
58.780        33
58.790         0
58.800        27
58.810        27
58.820         7
58.830        27
58.840        20
58.850        13
58.860        13
58.870        20
58.880        20
58.890        20
58.900        13
58.910        27
58.920        13
58.930       180
58.940         0
58.950        20
58.960        20
58.970        27
58.980         7
58.990        13
59.000        20
59.010        13
59.020         0
59.030         7
59.040        13
59.050        20
59.060        40
59.070         7
59.080        13
59.090         0
59.100         7
59.110        13
59.120         7
59.130        13
59.140        27
59.150        13
59.160        33
59.170        33
59.180         0
59.190        20
59.200        20
59.210        13
59.220        13
59.230        20
59.240        33
59.250        33
59.260        13
59.270        33
59.280         7
59.290        33
59.300         7
59.310        13
59.320         0
59.330         0
59.340        20
59.350        27
59.360        27
59.370        13
59.380        27
59.390        20
59.400        33
59.410         7
59.420        40
59.430        20
59.440        20
59.450        13
59.460        27
59.470        27
59.480         7
59.490        40
59.500        20
59.510        13
59.520         0
59.530        33
59.540         7
59.550        33
59.560         7
59.570        20
59.580         0
59.590        20
59.600        13
59.610        13
59.620        13
59.630         0
59.640         7
59.650         7
59.660        27
59.670        13
59.680        13
59.690        13
59.700        20
59.710        20
59.720        20
59.730        33
59.740        33
59.750        27
59.760        33
59.770        20
59.780         7
59.790        27
59.800        40
59.810         7
59.820        20
59.830        33
59.840        20
59.850        27
59.860         7
59.870        13
59.880        27
59.890        13
59.900        20
59.910        27
59.920         7
59.930        27
59.940        13
59.950         7
59.960         0
59.970         0
59.980        13
59.990         0
60.000         0
