20.000        33
20.010        73
20.020        47
20.030        67
20.040        73
20.050        60
20.060        80
20.070        27
20.080        20
20.090        67
20.100        40
20.110        33
20.120        27
20.130        40
20.140        80
20.150        80
20.160        20
20.170        27
20.180        67
20.190        33
20.200        20
20.210        60
20.220        20
20.230        53
20.240        87
20.250        60
20.260        93
20.270        67
20.280        33
20.290        20
20.300        27
20.310        27
20.320        33
20.330        80
20.340        47
20.350        33
20.360        67
20.370        33
20.380        93
20.390        33
20.400        67
20.410        20
20.420        33
20.430        47
20.440        40
20.450        20
20.460        73
20.470        73
20.480        33
20.490        33
20.500        40
20.510        47
20.520        47
20.530        40
20.540        40
20.550        53
20.560        47
20.570        60
20.580        33
20.590        60
20.600        73
20.610        53
20.620        20
20.630        53
20.640        40
20.650        27
20.660        53
20.670        27
20.680        40
20.690        33
20.700        60
20.710        60
20.720        47
20.730        93
20.740        33
20.750        27
20.760        33
20.770         7
20.780        60
20.790        27
20.800        33
20.810        27
20.820         7
20.830        53
20.840        53
20.850        67
20.860        53
20.870        67
20.880        67
20.890        67
20.900        40
20.910        67
20.920        40
20.930        53
20.940        53
20.950        47
20.960        40
20.970        73
20.980        67
20.990        47
21.000        47
21.010        33
21.020        73
21.030        47
21.040        53
21.050        33
21.060        60
21.070        33
21.080        53
21.090        60
21.100        27
21.110        53
21.120        47
21.130        67
21.140        53
21.150        60
21.160        47
21.170        73
21.180        47
21.190        13
21.200        33
21.210        33
21.220        67
21.230        80
21.240        47
21.250        20
21.260        33
21.270        47
21.280        80
21.290        13
21.300        60
21.310        53
21.320        60
21.330        73
21.340        60
21.350        27
21.360        40
21.370        80
21.380        40
21.390        80
21.400        60
21.410        87
21.420        40
21.430        53
21.440        47
21.450        40
21.460        47
21.470        27
21.480        40
21.490        40
21.500        47
21.510        67
21.520        47
21.530        40
21.540        27
21.550        40
21.560        60
21.570        67
21.580        73
21.590        20
21.600        53
21.610        47
21.620        20
21.630        27
21.640        33
21.650        47
21.660        47
21.670        73
21.680        73
21.690        20
21.700        60
21.710        53
21.720        33
21.730        47
21.740        40
21.750        53
21.760        47
21.770        40
21.780        20
21.790        47
21.800        47
21.810        47
21.820        40
21.830        67
21.840        40
21.850        67
21.860        40
21.870        73
21.880        47
21.890        47
21.900        33
21.910        40
21.920        40
21.930        80
21.940        20
21.950        33
21.960        27
21.970        47
21.980        33
21.990        47
22.000        53
22.010        13
22.020        80
22.030        13
22.040        33
22.050        40
22.060        53
22.070        67
22.080        47
22.090        33
22.100        47
22.110        33
22.120        47
22.130        67
22.140        33
22.150        40
22.160        47
22.170        67
22.180        73
22.190        73
22.200        80
22.210        73
22.220        53
22.230        47
22.240        33
22.250        93
22.260        33
22.270        47
22.280        53
22.290        47
22.300        87
22.310        53
22.320        53
22.330        80
22.340        40
22.350        47
22.360        73
22.370        53
22.380        40
22.390        73
22.400        40
22.410        87
22.420        53
22.430        67
22.440        53
22.450        27
22.460       113
22.470        80
22.480        93
22.490        73
22.500        73
22.510        40
22.520        47
22.530        60
22.540        67
22.550        73
22.560        73
22.570        87
22.580        73
22.590        67
22.600        53
22.610        27
22.620        53
22.630        60
22.640        67
22.650        27
22.660        53
22.670        40
22.680        53
22.690        67
22.700        47
22.710        73
22.720        33
22.730        53
22.740        47
22.750        53
22.760        60
22.770        67
22.780        47
22.790        33
22.800        73
22.810        20
22.820        53
22.830        93
22.840        40
22.850        20
22.860       113
22.870        27
22.880        27
22.890        47
22.900        87
22.910        27
22.920        27
22.930        60
22.940        87
22.950        13
22.960        73
22.970        53
22.980        20
22.990        33
23.000        40
23.010        47
23.020        33
23.030        53
23.040        80
23.050        73
23.060        53
23.070        47
23.080        47
23.090        40
23.100        73
23.110        73
23.120        53
23.130        53
23.140        40
23.150        40
23.160        40
23.170        27
23.180        40
23.190        13
23.200        40
23.210        67
23.220        33
23.230        40
23.240        40
23.250        53
23.260        33
23.270        53
23.280        40
23.290        13
23.300        33
23.310        53
23.320        67
23.330        53
23.340        47
23.350        47
23.360        47
23.370        60
23.380        47
23.390        27
23.400        47
23.410        53
23.420        40
23.430        20
23.440        53
23.450        47
23.460        27
23.470        60
23.480        60
23.490        53
23.500        33
23.510        40
23.520        47
23.530        53
23.540        53
23.550        27
23.560        40
23.570        53
23.580        47
23.590        40
23.600        47
23.610        20
23.620        73
23.630        33
23.640        47
23.650        40
23.660        73
23.670        27
23.680        40
23.690        33
23.700        27
23.710        27
23.720        67
23.730        47
23.740        40
23.750        27
23.760        27
23.770        33
23.780        73
23.790        47
23.800        20
23.810        60
23.820        27
23.830        33
23.840        47
23.850        60
23.860        33
23.870        53
23.880        13
23.890        67
23.900        40
23.910        40
23.920        47
23.930        67
23.940        27
23.950        40
23.960        33
23.970        53
23.980        33
23.990        60
24.000        33
24.010        53
24.020        27
24.030        20
24.040        47
24.050        33
24.060        73
24.070        33
24.080        67
24.090        53
24.100        47
24.110        13
24.120        40
24.130        47
24.140        33
24.150        80
24.160        60
24.170        53
24.180        27
24.190        67
24.200        40
24.210        47
24.220        13
24.230        33
24.240        20
24.250        33
24.260        53
24.270        47
24.280        47
24.290        27
24.300        53
24.310        47
24.320        40
24.330        40
24.340        53
24.350        27
24.360        33
24.370        53
24.380        60
24.390        33
24.400        40
24.410        47
24.420        13
24.430        73
24.440        53
24.450        20
24.460        40
24.470        53
24.480        33
24.490        33
24.500        20
24.510        13
24.520        20
24.530        20
24.540        47
24.550        33
24.560        33
24.570        33
24.580        40
24.590        67
24.600        33
24.610        40
24.620        47
24.630        53
24.640        20
24.650        13
24.660        73
24.670        33
24.680        33
24.690        27
24.700        53
24.710        27
24.720        47
24.730        20
24.740        40
24.750        53
24.760        40
24.770        27
24.780        73
24.790        33
24.800        60
24.810        33
24.820        20
24.830        73
24.840        67
24.850        53
24.860        47
24.870        27
24.880        40
24.890        53
24.900        53
24.910        40
24.920        47
24.930        47
24.940        53
24.950        67
24.960        40
24.970        53
24.980        53
24.990        67
25.000        53
25.010        67
25.020        60
25.030        40
25.040        27
25.050        33
25.060        60
25.070        33
25.080        53
25.090        27
25.100        47
25.110        20
25.120        47
25.130        53
25.140        33
25.150        33
25.160        27
25.170        67
25.180        60
25.190        20
25.200        47
25.210        33
25.220        33
25.230        67
25.240        40
25.250        67
25.260        40
25.270        13
25.280        80
25.290        53
25.300        33
25.310        47
25.320        33
25.330        27
25.340        33
25.350        73
25.360        53
25.370        67
25.380        80
25.390        47
25.400        53
25.410        53
25.420        93
25.430       113
25.440        80
25.450       107
25.460       113
25.470        87
25.480        93
25.490        80
25.500        80
25.510       140
25.520       147
25.530       200
25.540       340
25.550       586
25.560       806
25.570       906
25.580       986
25.590      1160
25.600      1060
25.610       933
25.620       826
25.630       686
25.640       566
25.650       466
25.660       546
25.670       480
25.680       353
25.690       313
25.700       173
25.710       120
25.720        60
25.730        67
25.740        60
25.750        73
25.760        40
25.770        67
25.780        40
25.790        27
25.800        67
25.810        53
25.820        67
25.830        47
25.840        33
25.850        47
25.860        33
25.870        33
25.880        53
25.890        33
25.900        33
25.910        47
25.920        20
25.930        27
25.940        53
25.950        33
25.960        60
25.970        40
25.980        27
25.990        60
26.000        40
26.010        73
26.020        40
26.030        27
26.040        27
26.050        67
26.060        53
26.070        40
26.080        40
26.090        27
26.100        33
26.110        20
26.120        47
26.130        33
26.140        20
26.150        60
26.160        53
26.170        33
26.180        73
26.190        27
26.200        13
26.210        27
26.220        13
26.230        53
26.240        27
26.250        47
26.260        20
26.270        53
26.280        27
26.290        27
26.300        27
26.310        60
26.320        47
26.330        40
26.340        53
26.350        40
26.360        20
26.370        33
26.380        33
26.390        60
26.400        47
26.410        27
26.420        80
26.430        47
26.440        13
26.450        60
26.460        20
26.470        47
26.480        40
26.490        47
26.500        40
26.510        47
26.520        67
26.530        13
26.540        53
26.550        20
26.560        40
26.570        33
26.580        33
26.590        33
26.600        33
26.610        33
26.620        27
26.630        20
26.640        20
26.650        20
26.660        73
26.670        33
26.680        47
26.690        27
26.700        53
26.710        20
26.720        20
26.730        20
26.740        67
26.750        40
26.760        87
26.770        67
26.780        40
26.790        47
26.800        47
26.810        40
26.820        53
26.830         7
26.840        27
26.850        27
26.860        27
26.870        33
26.880         7
26.890        53
26.900        60
26.910        27
26.920        27
26.930        13
26.940        33
26.950        80
26.960        27
26.970        33
26.980        40
26.990        33
27.000        53
27.010        27
27.020        60
27.030        33
27.040        33
27.050        40
27.060        20
27.070        40
27.080        33
27.090        20
27.100        40
27.110        60
27.120        40
27.130        20
27.140        27
27.150        47
27.160        53
27.170        40
27.180        47
27.190         7
27.200        33
27.210        60
27.220        47
27.230        40
27.240        67
27.250        27
27.260        53
27.270        40
27.280        33
27.290        20
27.300        27
27.310        27
27.320        13
27.330        33
27.340        13
27.350        27
27.360        27
27.370        20
27.380        20
27.390        13
27.400        20
27.410        40
27.420        27
27.430        53
27.440        47
27.450        27
27.460        40
27.470        60
27.480        73
27.490        13
27.500        53
27.510        47
27.520        40
27.530        33
27.540        13
27.550        20
27.560        13
27.570        40
27.580        33
27.590        33
27.600        73
27.610        33
27.620        27
27.630        13
27.640        33
27.650        27
27.660        47
27.670        33
27.680        27
27.690        27
27.700        60
27.710        60
27.720        20
27.730        33
27.740        33
27.750        20
27.760        40
27.770        40
27.780        33
27.790        33
27.800        40
27.810        33
27.820        40
27.830        33
27.840        33
27.850        40
27.860        20
27.870        40
27.880        13
27.890        40
27.900        53
27.910        40
27.920        40
27.930        20
27.940        20
27.950        40
27.960        33
27.970        27
27.980        33
27.990        27
28.000        13
28.010        27
28.020        40
28.030        33
28.040        27
28.050        60
28.060        40
28.070        20
28.080        33
28.090        13
28.100        40
28.110        20
28.120        40
28.130        13
28.140        47
28.150        13
28.160        53
28.170        20
28.180        27
28.190         7
28.200        13
28.210        13
28.220        27
28.230        33
28.240        33
28.250        40
28.260        27
28.270        40
28.280        27
28.290        53
28.300         7
28.310        40
28.320         7
28.330        20
28.340        53
28.350        40
28.360        33
28.370        47
28.380        33
28.390        20
28.400        33
28.410        53
28.420        33
28.430        40
28.440        53
28.450        27
28.460         0
28.470        33
28.480        33
28.490        67
28.500        40
28.510        20
28.520        53
28.530        20
28.540        20
28.550        33
28.560        20
28.570        60
28.580        13
28.590        13
28.600        33
28.610        47
28.620        33
28.630         7
28.640         0
28.650        27
28.660        27
28.670         7
28.680        20
28.690        13
28.700        40
28.710        27
28.720        40
28.730        13
28.740        27
28.750        27
28.760        20
28.770        27
28.780        13
28.790        27
28.800        73
28.810        33
28.820        20
28.830        20
28.840        20
28.850        33
28.860        27
28.870        20
28.880        67
28.890        33
28.900        40
28.910        27
28.920        40
28.930        27
28.940        33
28.950        33
28.960        47
28.970        53
28.980        53
28.990        27
29.000        47
29.010        13
29.020        53
29.030        27
29.040        20
29.050        27
29.060        13
29.070        47
29.080         7
29.090        67
29.100        33
29.110        27
29.120        13
29.130        60
29.140        40
29.150        53
29.160        40
29.170        33
29.180        13
29.190        27
29.200        53
29.210        13
29.220        20
29.230        40
29.240        47
29.250        27
29.260         7
29.270        27
29.280        53
29.290        33
29.300        27
29.310        53
29.320        20
29.330        47
29.340        33
29.350        20
29.360        33
29.370        40
29.380        53
29.390         0
29.400        47
29.410        20
29.420        20
29.430        40
29.440        20
29.450        40
29.460        20
29.470        27
29.480        80
29.490        33
29.500        40
29.510        40
29.520        20
29.530        47
29.540        53
29.550        33
29.560        27
29.570        27
29.580        13
29.590        20
29.600        13
29.610        20
29.620        47
29.630        20
29.640        20
29.650        40
29.660        20
29.670        53
29.680        13
29.690        20
29.700        33
29.710         7
29.720        20
29.730        20
29.740        13
29.750        27
29.760        53
29.770        40
29.780        27
29.790        33
29.800         0
29.810        20
29.820        40
29.830        47
29.840        13
29.850        27
29.860        13
29.870        13
29.880        20
29.890        33
29.900        33
29.910        40
29.920        13
29.930        13
29.940        40
29.950        47
29.960        20
29.970        20
29.980         7
29.990        47
30.000        20
30.010        20
30.020        40
30.030        27
30.040        27
30.050        27
30.060        40
30.070        13
30.080        27
30.090        67
30.100        13
30.110        33
30.120         7
30.130        40
30.140        27
30.150        40
30.160        20
30.170        47
30.180        20
30.190        13
30.200        27
30.210        40
30.220        47
30.230        47
30.240        33
30.250        40
30.260        27
30.270        20
30.280        33
30.290        20
30.300         7
30.310        33
30.320        47
30.330        20
30.340        67
30.350        33
30.360        13
30.370        13
30.380        40
30.390        13
30.400        13
30.410        33
30.420        20
30.430        33
30.440        13
30.450        33
30.460        13
30.470        33
30.480        40
30.490         7
30.500        27
30.510        20
30.520        20
30.530         7
30.540        27
30.550        33
30.560        13
30.570        20
30.580        33
30.590        13
30.600        33
30.610        40
30.620        27
30.630        27
30.640        47
30.650        13
30.660        40
30.670        13
30.680        40
30.690        20
30.700        20
30.710        33
30.720        27
30.730        20
30.740        33
30.750        20
30.760        13
30.770         7
30.780        27
30.790        20
30.800        33
30.810        33
30.820        53
30.830        33
30.840        27
30.850        33
30.860        27
30.870        27
30.880        27
30.890        40
30.900        20
30.910        47
30.920        33
30.930        20
30.940        33
30.950         7
30.960        73
30.970        40
30.980        13
30.990        27
31.000        20
31.010        20
31.020        40
31.030        20
31.040        20
31.050        27
31.060        47
31.070        20
31.080        33
31.090        33
31.100        47
31.110        47
31.120        47
31.130        13
31.140         7
31.150        40
31.160        47
31.170        27
31.180        20
31.190        60
31.200        27
31.210        33
31.220        33
31.230        60
31.240        47
31.250        40
31.260        13
31.270        47
31.280        20
31.290        67
31.300        40
31.310        53
31.320        47
31.330        47
31.340        27
31.350        40
31.360        47
31.370        47
31.380        13
31.390        47
31.400        13
31.410        27
31.420        60
31.430        20
31.440        33
31.450        20
31.460        20
31.470        33
31.480        27
31.490        47
31.500        53
31.510        40
31.520        40
31.530        13
31.540        40
31.550        33
31.560        13
31.570        47
31.580        33
31.590        53
31.600        33
31.610        40
31.620        33
31.630        40
31.640        60
31.650        27
31.660        67
31.670        47
31.680        40
31.690        67
31.700        80
31.710        80
31.720        87
31.730        60
31.740        80
31.750        60
31.760       127
31.770       133
31.780       113
31.790        73
31.800        87
31.810        73
31.820        73
31.830        80
31.840       100
31.850        60
31.860       113
31.870        87
31.880        93
31.890        60
31.900       120
31.910       120
31.920       113
31.930       120
31.940        93
31.950       100
31.960       127
31.970       160
31.980       113
31.990        80
32.000       140
32.010       120
32.020        80
32.030       107
32.040       107
32.050       153
32.060       180
32.070       120
32.080       180
32.090       127
32.100       100
32.110       113
32.120       140
32.130       133
32.140       140
32.150       200
32.160        73
32.170       107
32.180       107
32.190        93
32.200        87
32.210       107
32.220        80
32.230       167
32.240        80
32.250       120
32.260        87
32.270       140
32.280        40
32.290        53
32.300       113
32.310       100
32.320        73
32.330        73
32.340        67
32.350       107
32.360        73
32.370        80
32.380        73
32.390        87
32.400       100
32.410       100
32.420        93
32.430        60
32.440        73
32.450        67
32.460        67
32.470        47
32.480        73
32.490        47
32.500        80
32.510        60
32.520        73
32.530        60
32.540        60
32.550        67
32.560        40
32.570        20
32.580        60
32.590        53
32.600        33
32.610        73
32.620        27
32.630        53
32.640        47
32.650        73
32.660        47
32.670        33
32.680        27
32.690        33
32.700        67
32.710        60
32.720        67
32.730        27
32.740        53
32.750        47
32.760        40
32.770        33
32.780        20
32.790        60
32.800        47
32.810        40
32.820        53
32.830        40
32.840        67
32.850        47
32.860        53
32.870        33
32.880        13
32.890        20
32.900        40
32.910        33
32.920        40
32.930        27
32.940        40
32.950        47
32.960        33
32.970        33
32.980        27
32.990        33
33.000        20
33.010        27
33.020        40
33.030        33
33.040        13
33.050         0
33.060        27
33.070        33
33.080        33
33.090        33
33.100        40
33.110         0
33.120        13
33.130        40
33.140        20
33.150        33
33.160        40
33.170        20
33.180        13
33.190        20
33.200        20
33.210         0
33.220        40
33.230        33
33.240         0
33.250        40
33.260        33
33.270        27
33.280        20
33.290        40
33.300        27
33.310        20
33.320        47
33.330        33
33.340        27
33.350        60
33.360        40
33.370        20
33.380        40
33.390        20
33.400        27
33.410         0
33.420        20
33.430        27
33.440        47
33.450        20
33.460        67
33.470        60
33.480        53
33.490        20
33.500        20
33.510        53
33.520        20
33.530        20
33.540        53
33.550        20
33.560        53
33.570        33
33.580        40
33.590        40
33.600        20
33.610        53
33.620        20
33.630        20
33.640        20
33.650        13
33.660        47
33.670        40
33.680        53
33.690        13
33.700        20
33.710        27
33.720        27
33.730        27
33.740        33
33.750        27
33.760         7
33.770        13
33.780        20
33.790        20
33.800        20
33.810        27
33.820         7
33.830        33
33.840        47
33.850        40
33.860        40
33.870        13
33.880         0
33.890        20
33.900        27
33.910        53
33.920        27
33.930        13
33.940        40
33.950        13
33.960        47
33.970        20
33.980        27
33.990        60
34.000        33
34.010        13
34.020        13
34.030        20
34.040        27
34.050        27
34.060        40
34.070        53
34.080        27
34.090         0
34.100        20
34.110        47
34.120         0
34.130        40
34.140        27
34.150        20
34.160        13
34.170        20
34.180        27
34.190        27
34.200        20
34.210        13
34.220        13
34.230        27
34.240        53
34.250        20
34.260        40
34.270        20
34.280        20
34.290        20
34.300        13
34.310         0
34.320        27
34.330        13
34.340         7
34.350        27
34.360        47
34.370        33
34.380        27
34.390        53
34.400        33
34.410         7
34.420        33
34.430        27
34.440        20
34.450        27
34.460        20
34.470         7
34.480        33
34.490        27
34.500        20
34.510        33
34.520        13
34.530        33
34.540         7
34.550        27
34.560        33
34.570        13
34.580        27
34.590        33
34.600        53
34.610        33
34.620        13
34.630        20
34.640        20
34.650        13
34.660         7
34.670        27
34.680        33
34.690        20
34.700        20
34.710        27
34.720        40
34.730        27
34.740        27
34.750        47
34.760        27
34.770        13
34.780         7
34.790         0
34.800        40
34.810        47
34.820        40
34.830         0
34.840        47
34.850        53
34.860        33
34.870        27
34.880        47
34.890        53
34.900        20
34.910        53
34.920        53
34.930        33
34.940        47
34.950        53
34.960        53
34.970        60
34.980        40
34.990       127
35.000        73
35.010        53
35.020       120
35.030       107
35.040       107
35.050        87
35.060       100
35.070       153
35.080       147
35.090       207
35.100       240
35.110       413
35.120       486
35.130       533
35.140       646
35.150       593
35.160       640
35.170       513
35.180       506
35.190       327
35.200       293
35.210       307
35.220       400
35.230       520
35.240       460
35.250       273
35.260       300
35.270       253
35.280       207
35.290       147
35.300       153
35.310        73
35.320       100
35.330        73
35.340        53
35.350        67
35.360        47
35.370        53
35.380        40
35.390        20
35.400        40
35.410        47
35.420        27
35.430        33
35.440        33
35.450        40
35.460        40
35.470        20
35.480        40
35.490        20
35.500        27
35.510        33
35.520        33
35.530        20
35.540        47
35.550        13
35.560        13
35.570        13
35.580        33
35.590        27
35.600        33
35.610        40
35.620        27
35.630        33
35.640        40
35.650        40
35.660        27
35.670        20
35.680        13
35.690        33
35.700        20
35.710         7
35.720        13
35.730        27
35.740        20
35.750        27
35.760        40
35.770        27
35.780        20
35.790        20
35.800        13
35.810        13
35.820        27
35.830        47
35.840        20
35.850        33
35.860        20
35.870         7
35.880         7
35.890        27
35.900        20
35.910        20
35.920        27
35.930        20
35.940        47
35.950        33
35.960        13
35.970        13
35.980        20
35.990        20
36.000        20
36.010        13
36.020        20
36.030        20
36.040        13
36.050        27
36.060        20
36.070        27
36.080        20
36.090        13
36.100         7
36.110        13
36.120        27
36.130        20
36.140        20
36.150         7
36.160        47
36.170        33
36.180        47
36.190        20
36.200        47
36.210        33
36.220        20
36.230         7
36.240         7
36.250        40
36.260        13
36.270        20
36.280        33
36.290        20
36.300        20
36.310         7
36.320        40
36.330         7
36.340        13
36.350        40
36.360        20
36.370        40
36.380        13
36.390        27
36.400        20
36.410        27
36.420        40
36.430        20
36.440        27
36.450        53
36.460        40
36.470        27
36.480         7
36.490        20
36.500        20
36.510        33
36.520        20
36.530        27
36.540         0
36.550        40
36.560        33
36.570        53
36.580        20
36.590        33
36.600         7
36.610        13
36.620        13
36.630        20
36.640        27
36.650        20
36.660        20
36.670        20
36.680        27
36.690        13
36.700        20
36.710        20
36.720        20
36.730        20
36.740        27
36.750        13
36.760         7
36.770         7
36.780        13
36.790        20
36.800        40
36.810        20
36.820         7
36.830         7
36.840         7
36.850         7
36.860        40
36.870        40
36.880        27
36.890         7
36.900        33
36.910        13
36.920         7
36.930        33
36.940        33
36.950        40
36.960        27
36.970        13
36.980         7
36.990        33
37.000        33
37.010        27
37.020        40
37.030         0
37.040        27
37.050        27
37.060        33
37.070         7
37.080        13
37.090        27
37.100        27
37.110        20
37.120        33
37.130        40
37.140        27
37.150        20
37.160        20
37.170        13
37.180        40
37.190        33
37.200        27
37.210        13
37.220        47
37.230         7
37.240        20
37.250        27
37.260         7
37.270        27
37.280         7
37.290        20
37.300        27
37.310        13
37.320        40
37.330        27
37.340        13
37.350        13
37.360        33
37.370        20
37.380        27
37.390        40
37.400        47
37.410        27
37.420        20
37.430        13
37.440        33
37.450        47
37.460        47
37.470        27
37.480        20
37.490        33
37.500        20
37.510        27
37.520        13
37.530        27
37.540         7
37.550        40
37.560        40
37.570        53
37.580        40
37.590        20
37.600        47
37.610        27
37.620        40
37.630        47
37.640        67
37.650        73
37.660        53
37.670        40
37.680        80
37.690        60
37.700        47
37.710        80
37.720        27
37.730         7
37.740        40
37.750        47
37.760       127
37.770       193
37.780       173
37.790       240
37.800       327
37.810       220
37.820       133
37.830       127
37.840       120
37.850        93
37.860        67
37.870       127
37.880       107
37.890       100
37.900       140
37.910        93
37.920       133
37.930        47
37.940        47
37.950        67
37.960        13
37.970        27
37.980        33
37.990        20
38.000        27
38.010        20
38.020        20
38.030         0
38.040        53
38.050        20
38.060        47
38.070         7
38.080        40
38.090        13
38.100        33
38.110        33
38.120        20
38.130         7
38.140        20
38.150        20
38.160        27
38.170        40
38.180         7
38.190         7
38.200        20
38.210        33
38.220        13
38.230        40
38.240        33
38.250        27
38.260        40
38.270        20
38.280        27
38.290        47
38.300        27
38.310        13
38.320        20
38.330        20
38.340        27
38.350        13
38.360        20
38.370        20
38.380        40
38.390        40
38.400        27
38.410        40
38.420        27
38.430        47
38.440        13
38.450         7
38.460        20
38.470        20
38.480        33
38.490        20
38.500         7
38.510        20
38.520        27
38.530        13
38.540        27
38.550        27
38.560        20
38.570        33
38.580         7
38.590        20
38.600         0
38.610        27
38.620        47
38.630        27
38.640        27
38.650        20
38.660        33
38.670        27
38.680        33
38.690        13
38.700        47
38.710        20
38.720        13
38.730        40
38.740        20
38.750        20
38.760        40
38.770        33
38.780         7
38.790        13
38.800        27
38.810         7
38.820        33
38.830        13
38.840         7
38.850        40
38.860        20
38.870        33
38.880        13
38.890        13
38.900        27
38.910        27
38.920        20
38.930        27
38.940        33
38.950        33
38.960        53
38.970        20
38.980         0
38.990        27
39.000        20
39.010        20
39.020        40
39.030        13
39.040        13
39.050        20
39.060        47
39.070        27
39.080         7
39.090         7
39.100        27
39.110        20
39.120        13
39.130        20
39.140        33
39.150        13
39.160        20
39.170        27
39.180        20
39.190         0
39.200        20
39.210        20
39.220        20
39.230        20
39.240         0
39.250        13
39.260         7
39.270        20
39.280         7
39.290        13
39.300        13
39.310         7
39.320        53
39.330         7
39.340        27
39.350        27
39.360        27
39.370        13
39.380        47
39.390        13
39.400        33
39.410        60
39.420        27
39.430        27
39.440        47
39.450         0
39.460         0
39.470        47
39.480        33
39.490        13
39.500        27
39.510        27
39.520        20
39.530        13
39.540        13
39.550        13
39.560        27
39.570        13
39.580        13
39.590        20
39.600        13
39.610        40
39.620        13
39.630        40
39.640        27
39.650        20
39.660        13
39.670        27
39.680        53
39.690        33
39.700        13
39.710         7
39.720        27
39.730        20
39.740         7
39.750        33
39.760        27
39.770         7
39.780         7
39.790         0
39.800         7
39.810        40
39.820        27
39.830        20
39.840        47
39.850        20
39.860        47
39.870        13
39.880         7
39.890        27
39.900        33
39.910        33
39.920        47
39.930        20
39.940         0
39.950        27
39.960        33
39.970         0
39.980        40
39.990        47
40.000        47
40.010        60
40.020        27
40.030        13
40.040         7
40.050        33
40.060         0
40.070        20
40.080        13
40.090        20
40.100        27
40.110        33
40.120        33
40.130        13
40.140        33
40.150        27
40.160        40
40.170        20
40.180        47
40.190        27
40.200        27
40.210        33
40.220        20
40.230         7
40.240        27
40.250        20
40.260        20
40.270        27
40.280        27
40.290        40
40.300        33
40.310        40
40.320        20
40.330         7
40.340        20
40.350        27
40.360        47
40.370        13
40.380        27
40.390        33
40.400        40
40.410        13
40.420        40
40.430        27
40.440        20
40.450        27
40.460        20
40.470        13
40.480        73
40.490        40
40.500        47
40.510        20
40.520        13
40.530         7
40.540        13
40.550         7
40.560         7
40.570        27
40.580        20
40.590        40
40.600        33
40.610        33
40.620        13
40.630        20
40.640        27
40.650        27
40.660        20
40.670        20
40.680        13
40.690        20
40.700        27
40.710        33
40.720        27
40.730        20
40.740        47
40.750        20
40.760        27
40.770        33
40.780        33
40.790        27
40.800         0
40.810        53
40.820         7
40.830         7
40.840        13
40.850        47
40.860        33
40.870        20
40.880        20
40.890        33
40.900        33
40.910        13
40.920        13
40.930        20
40.940        40
40.950        13
40.960        20
40.970        20
40.980        20
40.990        20
41.000        13
41.010        47
41.020        40
41.030        20
41.040         7
41.050        27
41.060         7
41.070        20
41.080        27
41.090        27
41.100        20
41.110        20
41.120        20
41.130        20
41.140        40
41.150         7
41.160        13
41.170        20
41.180        33
41.190        20
41.200        20
41.210        33
41.220        60
41.230         7
41.240        20
41.250        27
41.260        40
41.270        33
41.280        33
41.290        20
41.300        13
41.310        27
41.320        33
41.330        20
41.340         7
41.350        13
41.360        33
41.370        53
41.380        27
41.390        60
41.400         7
41.410        40
41.420        60
41.430        40
41.440        13
41.450        40
41.460        33
41.470        40
41.480        13
41.490        40
41.500        47
41.510        53
41.520        40
41.530        33
41.540        47
41.550        40
41.560        47
41.570        47
41.580        73
41.590        67
41.600        60
41.610        20
41.620        67
41.630       113
41.640       133
41.650       107
41.660       167
41.670       200
41.680       213
41.690       247
41.700       213
41.710       147
41.720       167
41.730       193
41.740       207
41.750       133
41.760        67
41.770        73
41.780       100
41.790       127
41.800       147
41.810       173
41.820       147
41.830       127
41.840       107
41.850        73
41.860        40
41.870         0
41.880        40
41.890        47
41.900        27
41.910        33
41.920        27
41.930        20
41.940        13
41.950        27
41.960        20
41.970        20
41.980        40
41.990        27
42.000        27
42.010        27
42.020         0
42.030        27
42.040        33
42.050        20
42.060         7
42.070        47
42.080        27
42.090        20
42.100        33
42.110        20
42.120        13
42.130        27
42.140        20
42.150        20
42.160        27
42.170         0
42.180        27
42.190        33
42.200        20
42.210         7
42.220        27
42.230        27
42.240        13
42.250        13
42.260         0
42.270        13
42.280        13
42.290        20
42.300        33
42.310        27
42.320        20
42.330        13
42.340        13
42.350        27
42.360        13
42.370        13
42.380        27
42.390        40
42.400        13
42.410         7
42.420        13
42.430        20
42.440        13
42.450        27
42.460        27
42.470         7
42.480        20
42.490        33
42.500        33
42.510        13
42.520         0
42.530        13
42.540        20
42.550        13
42.560         0
42.570        33
42.580        13
42.590        27
42.600        20
42.610        20
42.620         0
42.630        33
42.640        33
42.650        20
42.660        13
42.670        47
42.680        27
42.690         7
42.700         0
42.710        20
42.720        33
42.730        53
42.740        20
42.750        40
42.760        13
42.770        13
42.780        27
42.790        40
42.800        40
42.810        27
42.820        60
42.830        33
42.840        27
42.850        13
42.860        13
42.870        27
42.880        27
42.890        13
42.900        20
42.910        27
42.920        13
42.930        13
42.940        27
42.950        33
42.960        40
42.970        47
42.980        47
42.990        20
43.000        33
43.010        33
43.020        27
43.030         0
43.040        20
43.050        33
43.060        33
43.070        20
43.080        27
43.090        33
43.100        20
43.110        33
43.120        40
43.130        53
43.140        33
43.150        27
43.160        53
43.170        73
43.180        20
43.190        47
43.200        47
43.210        67
43.220        67
43.230       120
43.240        67
43.250        87
43.260        73
43.270       193
43.280       207
43.290       327
43.300       260
43.310       253
43.320       373
43.330       293
43.340       280
43.350       180
43.360       200
43.370       280
43.380       173
43.390       287
43.400       233
43.410       213
43.420       180
43.430       207
43.440       173
43.450       220
43.460       107
43.470       140
43.480       127
43.490       147
43.500        60
43.510        67
43.520       120
43.530        73
43.540        53
43.550        53
43.560        27
43.570        40
43.580        20
43.590        40
43.600        27
43.610        33
43.620        20
43.630         7
43.640        20
43.650        20
43.660        13
43.670        20
43.680        47
43.690        20
43.700        27
43.710        13
43.720        33
43.730        20
43.740        40
43.750        27
43.760        40
43.770         7
43.780        33
43.790        13
43.800        13
43.810        20
43.820        20
43.830        20
43.840        33
43.850         7
43.860        13
43.870         0
43.880         7
43.890        20
43.900        47
43.910        20
43.920         0
43.930        47
43.940        33
43.950        20
43.960        33
43.970        20
43.980        20
43.990        13
44.000        20
44.010        20
44.020        33
44.030        20
44.040        40
44.050        20
44.060        20
44.070        20
44.080        13
44.090        20
44.100        40
44.110        13
44.120        20
44.130        33
44.140         7
44.150        47
44.160        40
44.170         7
44.180        67
44.190        47
44.200        40
44.210        33
44.220        27
44.230        27
44.240        27
44.250        27
44.260        27
44.270        27
44.280        33
44.290         7
44.300        13
44.310        33
44.320        40
44.330        27
44.340        27
44.350        33
44.360        27
44.370        33
44.380        27
44.390        40
44.400        27
44.410        27
44.420        40
44.430        13
44.440        20
44.450        27
44.460        20
44.470        27
44.480        27
44.490        27
44.500        27
44.510         7
44.520        60
44.530        20
44.540        60
44.550        27
44.560        27
44.570        20
44.580        40
44.590        27
44.600        20
44.610        33
44.620        33
44.630        33
44.640        27
44.650        40
44.660        47
44.670        40
44.680        33
44.690        53
44.700        53
44.710        40
44.720        40
44.730        20
44.740        47
44.750        67
44.760        40
44.770        60
44.780        27
44.790        60
44.800        33
44.810        40
44.820        33
44.830        40
44.840        33
44.850        60
44.860        33
44.870        33
44.880        33
44.890        53
44.900        60
44.910        60
44.920        80
44.930        53
44.940        60
44.950        67
44.960        60
44.970        27
44.980        33
44.990        47
45.000        60
45.010        80
45.020        67
45.030       100
45.040        27
45.050        67
45.060        47
45.070       107
45.080        53
45.090        93
45.100        67
45.110        47
45.120        87
45.130        80
45.140        47
45.150        73
45.160        73
45.170        73
45.180        80
45.190        80
45.200        73
45.210        67
45.220        87
45.230        67
45.240       140
45.250       100
45.260       113
45.270        93
45.280        80
45.290        67
45.300        80
45.310       120
45.320        60
45.330        93
45.340        73
45.350       120
45.360       120
45.370       127
45.380        80
45.390       107
45.400       153
45.410       127
45.420       127
45.430       120
45.440       153
45.450       153
45.460       133
45.470       167
45.480       173
45.490       193
45.500       107
45.510       133
45.520       127
45.530       147
45.540       220
45.550       133
45.560       160
45.570       153
45.580       220
45.590        80
45.600       127
45.610       200
45.620        73
45.630       140
45.640       133
45.650       180
45.660       173
45.670       127
45.680       147
45.690       153
45.700       100
45.710       160
45.720       193
45.730       200
45.740       140
45.750       120
45.760       133
45.770       187
45.780       200
45.790       160
45.800       213
45.810       113
45.820        87
45.830       153
45.840       120
45.850       127
45.860       207
45.870       187
45.880       133
45.890       133
45.900       173
45.910       140
45.920       153
45.930       100
45.940       160
45.950       147
45.960       147
45.970        67
45.980       133
45.990       153
46.000       140
46.010       153
46.020       100
46.030       147
46.040       113
46.050       100
46.060       113
46.070       107
46.080        73
46.090       120
46.100        87
46.110       107
46.120       113
46.130       147
46.140        93
46.150        80
46.160       120
46.170       113
46.180        67
46.190        80
46.200       107
46.210       120
46.220       100
46.230        87
46.240        73
46.250        73
46.260       133
46.270       127
46.280        67
46.290        80
46.300        60
46.310        73
46.320        80
46.330        73
46.340        87
46.350        80
46.360       107
46.370        87
46.380        60
46.390        73
46.400        67
46.410        93
46.420        93
46.430        60
46.440        53
46.450        67
46.460        40
46.470        93
46.480        67
46.490        73
46.500        67
46.510        47
46.520        60
46.530        60
46.540        60
46.550        40
46.560        73
46.570        80
46.580        67
46.590        40
46.600        60
46.610        33
46.620        27
46.630        33
46.640        60
46.650        33
46.660        27
46.670        40
46.680        40
46.690        40
46.700        40
46.710        20
46.720        33
46.730        33
46.740        40
46.750        13
46.760        40
46.770        47
46.780        27
46.790        40
46.800        47
46.810        53
46.820        47
46.830        40
46.840        40
46.850        27
46.860        60
46.870         7
46.880        53
46.890        47
46.900        40
46.910        27
46.920        20
46.930        27
46.940        27
46.950        13
46.960        80
46.970        20
46.980        47
46.990        33
47.000        27
47.010        53
47.020         0
47.030        27
47.040        67
47.050        27
47.060        33
47.070        33
47.080        53
47.090        27
47.100        47
47.110        20
47.120        27
47.130        20
47.140        13
47.150        27
47.160        27
47.170        20
47.180        20
47.190        60
47.200        47
47.210        20
47.220         7
47.230        27
47.240        20
47.250        27
47.260        33
47.270        13
47.280        33
47.290        13
47.300        40
47.310        20
47.320        13
47.330        20
47.340        13
47.350        33
47.360        33
47.370        13
47.380        20
47.390        33
47.400         7
47.410        20
47.420        33
47.430         7
47.440        13
47.450        13
47.460        27
47.470        47
47.480        13
47.490        20
47.500        33
47.510        13
47.520        40
47.530        53
47.540        20
47.550        27
47.560        27
47.570        27
47.580         0
47.590        13
47.600        20
47.610        13
47.620        13
47.630        27
47.640        13
47.650        27
47.660         7
47.670        53
47.680         7
47.690        20
47.700         7
47.710        20
47.720        13
47.730        27
47.740        13
47.750        40
47.760        27
47.770        27
47.780        20
47.790        20
47.800        13
47.810        20
47.820        40
47.830        13
47.840        20
47.850        13
47.860        27
47.870        27
47.880         7
47.890         7
47.900        13
47.910         7
47.920        13
47.930        20
47.940        13
47.950        20
47.960        20
47.970         7
47.980        33
47.990         7
48.000         7
48.010        27
48.020         7
48.030        33
48.040         0
48.050         0
48.060        13
48.070        20
48.080        13
48.090         7
48.100        40
48.110        27
48.120        20
48.130         7
48.140        20
48.150        27
48.160        47
48.170        20
48.180        33
48.190         7
48.200        27
48.210        27
48.220         0
48.230        33
48.240         0
48.250        33
48.260        13
48.270        13
48.280        27
48.290        33
48.300        13
48.310        40
48.320        13
48.330         7
48.340        33
48.350         0
48.360        20
48.370         0
48.380        20
48.390         7
48.400        33
48.410         7
48.420        27
48.430        27
48.440        20
48.450         0
48.460        27
48.470        27
48.480         7
48.490        13
48.500         7
48.510         7
48.520        20
48.530        20
48.540        20
48.550        13
48.560        13
48.570        33
48.580        33
48.590        20
48.600         7
48.610         7
48.620        13
48.630        13
48.640         7
48.650        20
48.660        13
48.670        13
48.680        33
48.690        13
48.700        20
48.710        20
48.720        33
48.730        27
48.740        33
48.750        20
48.760         7
48.770         7
48.780        13
48.790        20
48.800        13
48.810        33
48.820        33
48.830        33
48.840         0
48.850        47
48.860        20
48.870        13
48.880        27
48.890        13
48.900        47
48.910        53
48.920        20
48.930        20
48.940        13
48.950         7
48.960        13
48.970        13
48.980        33
48.990        27
49.000        20
49.010        27
49.020        40
49.030        33
49.040        27
49.050        13
49.060         7
49.070        40
49.080        13
49.090        27
49.100        13
49.110        53
49.120        33
49.130        13
49.140        20
49.150         7
49.160         0
49.170         7
49.180        20
49.190        40
49.200        20
49.210        33
49.220         7
49.230        40
49.240         7
49.250         0
49.260        33
49.270         0
49.280         0
49.290         7
49.300        20
49.310        20
49.320         7
49.330         7
49.340        20
49.350        20
49.360        20
49.370         7
49.380        13
49.390         7
49.400        20
49.410        27
49.420        20
49.430         7
49.440         7
49.450         0
49.460        27
49.470         7
49.480        13
49.490         7
49.500         7
49.510        20
49.520        13
49.530         0
49.540        27
49.550         7
49.560         7
49.570        27
49.580         7
49.590        13
49.600         7
49.610        27
49.620         7
49.630         0
49.640         0
49.650        13
49.660        20
49.670        20
49.680         7
49.690        20
49.700         0
49.710         7
49.720         7
49.730         7
49.740         0
49.750         0
49.760         7
49.770         7
49.780         7
49.790         7
49.800        40
49.810        47
49.820        33
49.830        13
49.840        33
49.850        27
49.860        20
49.870        13
49.880        20
49.890        53
49.900        27
49.910         7
49.920        20
49.930         0
49.940        20
49.950        27
49.960        20
49.970         7
49.980         7
49.990        13
50.000        33
50.010        27
50.020        20
50.030        20
50.040        13
50.050        20
50.060        13
50.070        20
50.080        13
50.090        20
50.100        33
50.110         7
50.120        20
50.130        13
50.140         7
50.150         7
50.160         7
50.170        20
50.180        20
50.190        13
50.200        27
50.210         7
50.220        13
50.230        13
50.240        13
50.250        27
50.260         7
50.270         0
50.280         7
50.290        27
50.300        20
50.310        20
50.320        20
50.330        20
50.340        33
50.350        13
50.360        13
50.370        20
50.380        20
50.390        13
50.400        20
50.410         7
50.420        20
50.430        27
50.440        13
50.450        33
50.460        20
50.470         7
50.480        27
50.490         0
50.500        27
50.510         7
50.520        27
50.530        13
50.540         0
50.550        20
50.560         7
50.570        20
50.580         0
50.590        13
50.600        20
50.610         7
50.620        20
50.630        13
50.640         0
50.650        20
50.660         0
50.670        13
50.680         7
50.690        27
50.700         0
50.710        20
50.720        40
50.730         0
50.740         0
50.750        27
50.760        33
50.770         7
50.780        13
50.790         0
50.800        13
50.810        13
50.820        27
50.830        20
50.840        27
50.850        13
50.860        27
50.870        13
50.880         7
50.890        13
50.900        13
50.910         7
50.920         7
50.930         0
50.940        20
50.950         0
50.960        27
50.970        20
50.980         7
50.990        13
51.000        13
51.010        40
51.020         0
51.030        20
51.040         7
51.050        13
51.060        20
51.070         7
51.080        13
51.090        27
51.100         7
51.110        20
51.120        13
51.130         7
51.140         7
51.150        27
51.160        13
51.170         7
51.180        20
51.190         7
51.200        33
51.210        13
51.220        33
51.230        13
51.240        13
51.250        13
51.260        40
51.270        27
51.280        13
51.290        27
51.300        13
51.310        20
51.320         7
51.330        13
51.340        20
51.350        33
51.360         0
51.370        13
51.380        33
51.390         7
51.400        27
51.410        20
51.420        13
51.430         7
51.440         7
51.450        13
51.460         0
51.470        20
51.480         7
51.490        13
51.500         7
51.510        13
51.520        20
51.530        33
51.540        33
51.550        33
51.560        47
51.570        33
51.580         7
51.590        13
51.600        20
51.610         7
51.620        20
51.630         0
51.640        27
51.650         7
51.660         7
51.670        13
51.680        33
51.690         0
51.700        13
51.710        40
51.720        13
51.730        20
51.740         0
51.750        13
51.760        20
51.770         7
51.780         7
51.790         7
51.800        20
51.810        13
51.820        13
51.830        27
51.840         7
51.850        13
51.860        13
51.870        20
51.880        27
51.890         0
51.900        47
51.910         7
51.920        33
51.930         7
51.940         0
51.950        13
51.960        20
51.970         7
51.980         0
51.990        27
52.000        20
52.010        20
52.020        33
52.030        13
52.040        13
52.050        13
52.060        13
52.070         7
52.080        40
52.090         7
52.100        20
52.110        13
52.120         7
52.130        27
52.140        13
52.150        20
52.160        20
52.170        20
52.180        60
52.190        13
52.200         7
52.210        20
52.220         0
52.230        13
52.240        20
52.250        47
52.260        27
52.270        33
52.280        13
52.290        33
52.300        27
52.310         7
52.320        20
52.330         7
52.340        20
52.350        33
52.360         0
52.370        27
52.380         7
52.390        33
52.400         7
52.410        53
52.420        20
52.430        27
52.440        53
52.450        27
52.460        53
52.470        60
52.480        80
52.490       100
52.500        40
52.510       107
52.520        47
52.530        73
52.540        67
52.550        67
52.560        60
52.570        53
52.580        20
52.590        93
52.600        67
52.610        53
52.620        40
52.630        60
52.640        47
52.650        47
52.660        47
52.670        47
52.680        53
52.690        53
52.700        60
52.710        20
52.720        33
52.730        20
52.740        20
52.750        40
52.760        40
52.770        20
52.780        27
52.790        27
52.800        33
52.810        27
52.820        27
52.830        20
52.840         0
52.850         7
52.860        20
52.870        13
52.880        27
52.890         7
52.900         7
52.910        13
52.920         0
52.930        13
52.940         7
52.950        13
52.960        13
52.970        20
52.980        20
52.990         7
53.000         7
53.010         7
53.020        20
53.030         7
53.040         7
53.050         7
53.060        13
53.070        27
53.080        27
53.090         7
53.100        13
53.110        27
53.120        20
53.130        13
53.140        27
53.150         7
53.160         7
53.170        33
53.180        20
53.190        27
53.200        20
53.210        33
53.220        20
53.230        20
53.240         0
53.250         7
53.260        13
53.270        13
53.280         7
53.290        27
53.300        20
53.310        13
53.320        33
53.330         7
53.340        20
53.350         0
53.360         7
53.370        27
53.380         7
53.390        27
53.400        20
53.410        20
53.420        27
53.430        33
53.440        20
53.450        13
53.460        33
53.470        27
53.480         7
53.490         7
53.500        20
53.510        13
53.520        20
53.530         7
53.540        27
53.550         0
53.560        13
53.570        27
53.580        47
53.590        27
53.600        27
53.610         7
53.620         7
53.630        13
53.640        53
53.650        20
53.660        20
53.670        20
53.680        13
53.690        20
53.700        40
53.710         0
53.720         7
53.730        27
53.740        20
53.750        33
53.760        33
53.770         7
53.780        20
53.790         7
53.800        13
53.810         7
53.820         7
53.830        13
53.840        13
53.850         0
53.860        13
53.870         7
53.880        20
53.890        13
53.900        20
53.910        13
53.920        20
53.930         0
53.940         0
53.950         7
53.960        20
53.970         7
53.980        33
53.990        27
54.000        33
54.010        27
54.020        20
54.030        13
54.040         7
54.050         7
54.060        33
54.070         7
54.080        27
54.090        40
54.100         0
54.110        33
54.120        20
54.130        33
54.140        13
54.150         7
54.160         7
54.170        20
54.180        13
54.190        13
54.200         7
54.210        13
54.220        13
54.230        13
54.240        20
54.250        13
54.260         7
54.270        47
54.280        33
54.290         0
54.300        20
54.310        27
54.320        20
54.330        20
54.340         7
54.350        20
54.360        13
54.370        13
54.380        20
54.390         0
54.400         0
54.410        13
54.420        20
54.430        20
54.440         0
54.450        13
54.460        13
54.470        13
54.480        27
54.490        20
54.500         0
54.510        13
54.520        13
54.530         7
54.540        33
54.550        13
54.560        13
54.570         7
54.580         0
54.590         0
54.600         0
54.610        13
54.620         0
54.630         7
54.640        20
54.650        13
54.660         7
54.670        13
54.680        20
54.690        20
54.700         7
54.710        13
54.720         0
54.730        13
54.740        13
54.750        20
54.760         0
54.770        13
54.780        33
54.790         0
54.800        27
54.810         7
54.820        20
54.830         0
54.840        27
54.850         7
54.860         7
54.870         7
54.880        27
54.890        13
54.900        13
54.910         7
54.920         7
54.930        47
54.940         7
54.950        20
54.960        20
54.970        20
54.980         0
54.990        13
55.000         7
55.010        13
55.020         7
55.030        20
55.040        13
55.050        20
55.060        13
55.070        13
55.080         7
55.090        27
55.100        27
55.110        20
55.120         7
55.130         7
55.140         7
55.150        20
55.160        13
55.170        20
55.180         7
55.190        27
55.200        20
55.210         0
55.220        27
55.230         7
55.240        13
55.250         7
55.260        20
55.270        20
55.280        27
55.290        20
55.300         7
55.310        13
55.320         7
55.330        13
55.340        27
55.350        20
55.360        13
55.370         7
55.380        20
55.390         7
55.400         0
55.410        20
55.420        13
55.430        13
55.440         7
55.450        13
55.460        20
55.470        33
55.480        13
55.490        13
55.500        20
55.510        13
55.520        33
55.530         7
55.540        13
55.550        20
55.560         7
55.570         0
55.580         0
55.590         7
55.600        20
55.610         0
55.620        27
55.630         7
55.640        13
55.650        27
55.660        13
55.670        13
55.680         7
55.690         0
55.700         0
55.710        13
55.720         7
55.730         7
55.740        13
55.750        27
55.760        13
55.770        13
55.780        33
55.790         7
55.800        20
55.810        13
55.820        20
55.830        13
55.840        20
55.850        27
55.860         0
55.870         7
55.880        13
55.890        13
55.900         7
55.910         7
55.920         7
55.930         0
55.940         7
55.950         0
55.960        33
55.970        20
55.980        33
55.990        20
56.000         7
56.010         7
56.020         7
56.030        13
56.040        20
56.050        13
56.060        27
56.070         7
56.080         0
56.090        20
56.100        27
56.110        20
56.120         0
56.130         7
56.140        27
56.150         0
56.160        13
56.170         7
56.180         7
56.190        13
56.200        13
56.210        20
56.220         7
56.230        13
56.240        27
56.250         0
56.260         7
56.270         7
56.280        33
56.290         0
56.300         0
56.310         0
56.320         0
56.330        20
56.340        13
56.350        13
56.360        13
56.370        27
56.380        27
56.390        20
56.400        20
56.410        20
56.420        27
56.430        27
56.440        20
56.450         0
56.460        20
56.470        20
56.480        33
56.490        33
56.500        20
56.510         0
56.520        40
56.530        13
56.540        33
56.550        20
56.560         7
56.570         7
56.580        13
56.590        13
56.600        33
56.610        27
56.620        20
56.630        20
56.640         7
56.650        13
56.660        20
56.670        13
56.680        13
56.690         7
56.700        27
56.710        20
56.720         7
56.730         7
56.740        40
56.750         0
56.760        33
56.770        20
56.780        13
56.790        20
56.800        20
56.810        13
56.820         7
56.830        20
56.840         7
56.850        13
56.860        13
56.870        27
56.880         7
56.890        20
56.900        20
56.910        20
56.920         7
56.930        27
56.940        20
56.950        20
56.960        33
56.970        40
56.980         7
56.990         7
57.000         7
57.010        13
57.020         7
57.030         7
57.040        33
57.050        13
57.060        13
57.070        13
57.080         0
57.090        20
57.100        13
57.110        27
57.120        13
57.130        20
57.140        13
57.150        13
57.160        13
57.170        27
57.180        27
57.190         7
57.200        20
57.210        20
57.220        13
57.230        33
57.240        20
57.250        13
57.260        20
57.270        13
57.280        40
57.290        40
57.300        40
57.310         7
57.320        13
57.330        33
57.340        20
57.350        60
57.360        33
57.370        40
57.380        40
57.390        80
57.400        53
57.410        67
57.420        80
57.430       127
57.440       120
57.450       107
57.460       153
57.470       180
57.480       253
57.490       400
57.500       407
57.510       500
57.520       626
57.530       673
57.540       546
57.550       573
57.560       407
57.570       320
57.580       147
57.590       167
57.600       153
57.610       113
57.620       160
57.630       107
57.640       133
57.650       200
57.660       153
57.670       313
57.680       353
57.690       287
57.700       280
57.710       173
57.720       167
57.730       147
57.740       107
57.750        60
57.760        53
57.770        27
57.780        47
57.790        20
57.800        13
57.810        40
57.820        13
57.830        47
57.840        40
57.850        27
57.860        20
57.870        27
57.880         7
57.890         7
57.900        20
57.910        20
57.920         7
57.930        20
57.940        33
57.950        13
57.960        33
57.970         7
57.980        47
57.990         0
58.000        27
58.010        13
58.020        47
58.030        27
58.040        27
58.050        13
58.060        27
58.070         0
58.080        20
58.090         0
58.100         7
58.110        20
58.120        40
58.130        33
58.140        20
58.150        13
58.160        27
58.170        33
58.180         7
58.190        13
58.200        33
58.210        20
58.220         0
58.230        27
58.240        20
58.250        20
58.260        20
58.270         7
58.280         0
58.290        20
58.300        20
58.310         7
58.320         0
58.330        33
58.340         7
58.350         0
58.360         7
58.370         7
58.380         7
58.390        13
58.400        27
58.410         7
58.420         7
58.430        40
58.440         0
58.450        20
58.460        20
58.470        27
58.480         0
58.490        20
58.500        33
58.510        20
58.520         7
58.530        20
58.540        13
58.550        20
58.560         7
58.570         7
58.580        33
58.590        20
58.600         7
58.610         7
58.620        13
58.630         0
58.640         7
58.650         7
58.660        13
58.670         0
58.680        20
58.690        20
58.700        20
58.710        13
58.720         7
58.730         0
58.740        13
58.750         0
58.760        13
58.770        13
58.780        20
58.790        20
58.800         7
58.810         7
58.820         0
58.830         0
58.840        27
58.850         7
58.860        20
58.870        13
58.880         7
58.890         0
58.900        27
58.910        13
58.920         0
58.930         0
58.940        40
58.950         7
58.960         7
58.970        20
58.980         7
58.990        20
59.000         7
59.010         0
59.020         7
59.030        20
59.040        13
59.050         7
59.060         7
59.070        13
59.080         7
59.090        27
59.100         0
59.110        20
59.120        27
59.130         7
59.140        13
59.150        13
59.160         0
59.170         0
59.180        20
59.190        27
59.200         0
59.210        20
59.220        13
59.230        33
59.240         7
59.250        13
59.260        27
59.270        27
59.280        13
59.290         7
59.300        20
59.310        27
59.320        27
59.330        20
59.340        27
59.350         0
59.360         7
59.370         7
59.380        20
59.390         0
59.400        27
59.410        13
59.420        27
59.430        20
59.440        27
59.450        13
59.460        13
59.470        33
59.480        27
59.490        20
59.500        40
59.510        13
59.520        13
59.530        13
59.540        20
59.550        40
59.560         7
59.570         0
59.580         7
59.590        13
59.600        13
59.610         7
59.620         0
59.630         7
59.640         0
59.650        20
59.660         0
59.670        13
59.680         0
59.690        20
59.700         7
59.710        13
59.720         7
59.730        27
59.740        13
59.750        47
59.760        20
59.770        13
59.780        33
59.790        53
59.800        13
59.810         7
59.820         0
59.830        13
59.840        13
59.850         7
59.860        27
59.870         0
59.880        33
59.890        13
59.900        27
59.910        27
59.920        27
59.930        13
59.940        20
59.950        53
59.960         7
59.970         7
59.980        33
59.990        13
60.000        13
