20.000        67
20.010        40
20.020        40
20.030        67
20.040        27
20.050        80
20.060        20
20.070        13
20.080        53
20.090        47
20.100        27
20.110        27
20.120        67
20.130        40
20.140        53
20.150        40
20.160        33
20.170        40
20.180        47
20.190        33
20.200        40
20.210        47
20.220        40
20.230        60
20.240        33
20.250        27
20.260        40
20.270        60
20.280        67
20.290        27
20.300        53
20.310        40
20.320        40
20.330        47
20.340        73
20.350        20
20.360        40
20.370        73
20.380        40
20.390        33
20.400        20
20.410        67
20.420        73
20.430        73
20.440        40
20.450        60
20.460        60
20.470        67
20.480        60
20.490        60
20.500        67
20.510        73
20.520        40
20.530        47
20.540        20
20.550        47
20.560        33
20.570        33
20.580        47
20.590        53
20.600        47
20.610        40
20.620        47
20.630        40
20.640        13
20.650        13
20.660        40
20.670        40
20.680        40
20.690        33
20.700        53
20.710        67
20.720        47
20.730        60
20.740        47
20.750        53
20.760        47
20.770        13
20.780        60
20.790        40
20.800        47
20.810        33
20.820        33
20.830        53
20.840        33
20.850        47
20.860        73
20.870        27
20.880        40
20.890        40
20.900        13
20.910        33
20.920        40
20.930        53
20.940        27
20.950        67
20.960        33
20.970        53
20.980        40
20.990        87
21.000         7
21.010        27
21.020        53
21.030        53
21.040        33
21.050        33
21.060        40
21.070        33
21.080        73
21.090        20
21.100        13
21.110        53
21.120        40
21.130        47
21.140        60
21.150        60
21.160        20
21.170        53
21.180        33
21.190        60
21.200        40
21.210        33
21.220        33
21.230        67
21.240        60
21.250        33
21.260         7
21.270        33
21.280        80
21.290        40
21.300        40
21.310        53
21.320        40
21.330        40
21.340         7
21.350        20
21.360        20
21.370        33
21.380        27
21.390        60
21.400        40
21.410        13
21.420        33
21.430        33
21.440        27
21.450        53
21.460        20
21.470        73
21.480        40
21.490        60
21.500        13
21.510        33
21.520        40
21.530        40
21.540        27
21.550        80
21.560        67
21.570        60
21.580        33
21.590        73
21.600        47
21.610        47
21.620        53
21.630        47
21.640        40
21.650        20
21.660        60
21.670        47
21.680        53
21.690        33
21.700        33
21.710        40
21.720        13
21.730        33
21.740        53
21.750        53
21.760        33
21.770        40
21.780        80
21.790        40
21.800        27
21.810        27
21.820        33
21.830        53
21.840        33
21.850        27
21.860        33
21.870        13
21.880        33
21.890        60
21.900        93
21.910        27
21.920         7
21.930        47
21.940        47
21.950        33
21.960        40
21.970        60
21.980        53
21.990        40
22.000        47
22.010        60
22.020        80
22.030        60
22.040        73
22.050        33
22.060        13
22.070        27
22.080        47
22.090        47
22.100        60
22.110        20
22.120        53
22.130        73
22.140        73
22.150        47
22.160        60
22.170        40
22.180        47
22.190        73
22.200        47
22.210        73
22.220        93
22.230        47
22.240        53
22.250        40
22.260        47
22.270        40
22.280        40
22.290        20
22.300        53
22.310        73
22.320        47
22.330        47
22.340        60
22.350       107
22.360        80
22.370        47
22.380        40
22.390        53
22.400        40
22.410        87
22.420        40
22.430       140
22.440        73
22.450        93
22.460        93
22.470        93
22.480       113
22.490       107
22.500       193
22.510       133
22.520       160
22.530       193
22.540       187
22.550       227
22.560       220
22.570       247
22.580       187
22.590       227
22.600       347
22.610       340
22.620       373
22.630       380
22.640       333
22.650       420
22.660       420
22.670       446
22.680       420
22.690       546
22.700       500
22.710       333
22.720       373
22.730       433
22.740       387
22.750       347
22.760       353
22.770       287
22.780       293
22.790       247
22.800       227
22.810       233
22.820       193
22.830       200
22.840       113
22.850       120
22.860       113
22.870       133
22.880       113
22.890       107
22.900       140
22.910        80
22.920       127
22.930       133
22.940       100
22.950       127
22.960       100
22.970        73
22.980       100
22.990        93
23.000       107
23.010        93
23.020        67
23.030        40
23.040        60
23.050        60
23.060        47
23.070        53
23.080        53
23.090       113
23.100        60
23.110        60
23.120        93
23.130        47
23.140        40
23.150        80
23.160        73
23.170        67
23.180        80
23.190        80
23.200        67
23.210        73
23.220        40
23.230        67
23.240        60
23.250        47
23.260        40
23.270        60
23.280        20
23.290        73
23.300        93
23.310        33
23.320        40
23.330        40
23.340        47
23.350        27
23.360        80
23.370        53
23.380        47
23.390        60
23.400        27
23.410        73
23.420        33
23.430        53
23.440        73
23.450        53
23.460        40
23.470        47
23.480        47
23.490        53
23.500        53
23.510        67
23.520        53
23.530        47
23.540        87
23.550        60
23.560        60
23.570        53
23.580        33
23.590        20
23.600        47
23.610        47
23.620        67
23.630        40
23.640        73
23.650        40
23.660        47
23.670        20
23.680        60
23.690        53
23.700        40
23.710        33
23.720        33
23.730        47
23.740        47
23.750        47
23.760        87
23.770        60
23.780        53
23.790        40
23.800        47
23.810        73
23.820        20
23.830        47
23.840        47
23.850        73
23.860        73
23.870        53
23.880        53
23.890        67
23.900        27
23.910        47
23.920        40
23.930        47
23.940        27
23.950        13
23.960        40
23.970        87
23.980        53
23.990        73
24.000        40
24.010        33
24.020        47
24.030        27
24.040        33
24.050        40
24.060        47
24.070        53
24.080        60
24.090        47
24.100        53
24.110        80
24.120        47
24.130        40
24.140        47
24.150        27
24.160        13
24.170        40
24.180        53
24.190        40
24.200        67
24.210        27
24.220        13
24.230        27
24.240        27
24.250        33
24.260        47
24.270        87
24.280        40
24.290         7
24.300         7
24.310        40
24.320        33
24.330        60
24.340        27
24.350        33
24.360        60
24.370        27
24.380        53
24.390        27
24.400        47
24.410        33
24.420        20
24.430        53
24.440        27
24.450        53
24.460        47
24.470         7
24.480        73
24.490        27
24.500        47
24.510        33
24.520        47
24.530        33
24.540        40
24.550        27
24.560        27
24.570        13
24.580        47
24.590         7
24.600        60
24.610        67
24.620        47
24.630        53
24.640        47
24.650        67
24.660        60
24.670        33
24.680        67
24.690        40
24.700        20
24.710        47
24.720        53
24.730        47
24.740        73
24.750        47
24.760        27
24.770        40
24.780        40
24.790        47
24.800        67
24.810        47
24.820        67
24.830        33
24.840        53
24.850        47
24.860        53
24.870        33
24.880        73
24.890        67
24.900        40
24.910        40
24.920        40
24.930        60
24.940        60
24.950        47
24.960        67
24.970        47
24.980        80
24.990        47
25.000        67
25.010        53
25.020        73
25.030        33
25.040        67
25.050        93
25.060        40
25.070        53
25.080        27
25.090        67
25.100        40
25.110        80
25.120        20
25.130        53
25.140       120
25.150        53
25.160        40
25.170        47
25.180        93
25.190       120
25.200        87
25.210        73
25.220        87
25.230        53
25.240        73
25.250       133
25.260       120
25.270       187
25.280       307
25.290       273
25.300       273
25.310       433
25.320       500
25.330       686
25.340       820
25.350       920
25.360       960
25.370      1013
25.380      1126
25.390      1186
25.400      1080
25.410      1093
25.420      1153
25.430      1046
25.440       946
25.450      1000
25.460       826
25.470       673
25.480       706
25.490       586
25.500       513
25.510       526
25.520       493
25.530       500
25.540       566
25.550       700
25.560       693
25.570      1000
25.580      1439
25.590      1579
25.600      1753
25.610      2092
25.620      2066
25.630      1986
25.640      1693
25.650      1393
25.660      1373
25.670      1186
25.680      1020
25.690      1033
25.700       880
25.710       700
25.720       320
25.730       247
25.740       187
25.750       153
25.760       127
25.770       113
25.780       160
25.790       133
25.800       120
25.810        73
25.820       120
25.830       100
25.840        40
25.850       100
25.860        73
25.870        67
25.880        60
25.890        53
25.900        53
25.910        67
25.920       107
25.930        60
25.940        73
25.950        67
25.960        87
25.970        67
25.980        93
25.990        67
26.000        87
26.010        87
26.020        67
26.030        73
26.040        27
26.050        47
26.060        87
26.070        60
26.080        60
26.090        87
26.100        33
26.110        47
26.120        93
26.130        73
26.140        53
26.150        87
26.160        40
26.170        40
26.180        53
26.190        33
26.200        53
26.210        80
26.220        73
26.230        47
26.240        27
26.250        73
26.260        80
26.270        53
26.280        80
26.290        73
26.300        60
26.310        53
26.320        27
26.330        33
26.340        80
26.350        67
26.360        60
26.370        80
26.380        20
26.390        80
26.400        60
26.410        47
26.420        33
26.430        40
26.440        20
26.450        47
26.460        27
26.470        60
26.480        33
26.490        40
26.500        93
26.510        60
26.520        33
26.530        47
26.540         7
26.550        47
26.560        40
26.570        73
26.580        87
26.590        53
26.600        47
26.610        87
26.620        20
26.630        47
26.640        73
26.650        60
26.660        80
26.670        67
26.680        60
26.690        47
26.700        47
26.710        67
26.720        60
26.730        67
26.740        53
26.750        53
26.760        67
26.770        53
26.780        53
26.790        67
26.800        40
26.810        40
26.820        40
26.830        13
26.840        60
26.850        53
26.860        80
26.870        33
26.880        53
26.890        67
26.900        73
26.910        73
26.920        47
26.930        67
26.940        33
26.950        33
26.960        53
26.970        40
26.980        60
26.990        53
27.000        33
27.010        53
27.020        53
27.030        73
27.040        47
27.050        13
27.060        67
27.070        67
27.080        33
27.090        27
27.100        13
27.110        60
27.120        73
27.130        60
27.140        40
27.150        53
27.160        60
27.170        53
27.180        53
27.190        40
27.200        20
27.210        60
27.220        47
27.230        47
27.240        33
27.250        47
27.260        47
27.270        40
27.280        20
27.290        20
27.300        20
27.310        60
27.320       100
27.330        73
27.340        27
27.350        47
27.360        60
27.370        60
27.380        93
27.390        47
27.400        47
27.410        93
27.420        73
27.430        33
27.440        20
27.450        47
27.460        33
27.470        33
27.480        20
27.490        40
27.500        60
27.510        87
27.520        47
27.530        20
27.540        47
27.550        33
27.560        47
27.570        67
27.580        27
27.590        93
27.600        53
27.610        27
27.620        53
27.630        47
27.640        53
27.650        47
27.660        40
27.670        33
27.680        47
27.690        53
27.700        47
27.710        40
27.720        27
27.730        20
27.740        60
27.750        67
27.760        60
27.770        33
27.780        27
27.790        33
27.800        27
27.810        53
27.820        67
27.830        80
27.840        27
27.850        73
27.860        80
27.870        53
27.880        47
27.890        27
27.900        80
27.910        40
27.920        60
27.930        67
27.940        33
27.950        53
27.960        20
27.970        40
27.980        33
27.990        67
28.000        20
28.010        60
28.020        80
28.030        53
28.040        27
28.050        47
28.060        60
28.070        47
28.080        47
28.090        27
28.100        40
28.110        40
28.120        47
28.130        47
28.140        60
28.150       113
28.160        47
28.170        67
28.180        47
28.190        53
28.200        73
28.210        33
28.220        60
28.230        60
28.240        60
28.250        73
28.260        53
28.270        53
28.280        67
28.290        47
28.300        80
28.310        27
28.320        47
28.330        20
28.340        47
28.350        20
28.360        13
28.370        47
28.380        47
28.390        20
28.400        27
28.410        20
28.420        40
28.430         7
28.440        33
28.450        47
28.460        40
28.470        73
28.480        60
28.490        53
28.500        33
28.510       133
28.520        53
28.530        53
28.540        53
28.550        53
28.560        20
28.570        53
28.580        60
28.590        47
28.600        40
28.610        33
28.620        53
28.630        13
28.640        53
28.650        40
28.660        53
28.670        40
28.680        53
28.690        40
28.700        27
28.710        60
28.720        60
28.730        53
28.740        53
28.750        87
28.760        33
28.770        60
28.780        67
28.790        87
28.800        27
28.810        47
28.820        40
28.830        27
28.840        67
28.850        93
28.860        60
28.870        40
28.880        47
28.890        87
28.900        33
28.910        60
28.920        40
28.930        53
28.940        53
28.950        40
28.960        47
28.970        40
28.980        53
28.990        67
29.000        60
29.010        53
29.020        73
29.030        33
29.040        73
29.050        27
29.060        40
29.070        40
29.080        40
29.090        47
29.100        67
29.110        47
29.120        60
29.130        73
29.140        47
29.150        67
29.160        40
29.170        47
29.180        40
29.190        80
29.200        40
29.210        67
29.220        53
29.230        40
29.240        40
29.250        80
29.260        40
29.270        67
29.280        53
29.290        40
29.300        40
29.310        27
29.320        40
29.330        33
29.340        33
29.350        27
29.360        67
29.370        47
29.380        60
29.390        47
29.400        80
29.410        53
29.420        13
29.430        47
29.440        80
29.450        53
29.460        87
29.470        53
29.480        67
29.490        60
29.500        67
29.510        13
29.520        33
29.530        47
29.540        53
29.550        47
29.560        33
29.570        53
29.580        53
29.590        67
29.600        53
29.610        33
29.620        73
29.630        67
29.640        20
29.650        33
29.660        60
29.670        33
29.680        67
29.690        67
29.700        33
29.710        73
29.720        40
29.730        60
29.740        13
29.750        47
29.760        33
29.770        53
29.780        40
29.790        67
29.800        53
29.810        47
29.820        53
29.830        93
29.840        27
29.850        40
29.860        60
29.870        40
29.880        47
29.890        27
29.900        33
29.910        40
29.920        33
29.930        47
29.940        53
29.950        33
29.960        47
29.970        27
29.980        40
29.990        53
30.000        47
30.010        53
30.020        40
30.030        33
30.040        53
30.050        13
30.060        67
30.070        60
30.080        60
30.090        33
30.100        73
30.110        80
30.120        67
30.130        33
30.140        20
30.150        47
30.160        27
30.170        40
30.180        47
30.190        53
30.200        53
30.210        33
30.220        60
30.230        73
30.240        33
30.250        33
30.260        73
30.270        53
30.280        33
30.290        47
30.300        27
30.310        33
30.320        60
30.330        53
30.340        73
30.350        53
30.360        47
30.370        47
30.380        40
30.390        60
30.400        20
30.410        47
30.420        47
30.430        40
30.440        60
30.450        27
30.460        40
30.470        27
30.480        27
30.490        87
30.500        73
30.510        73
30.520        73
30.530        40
30.540        27
30.550        40
30.560        27
30.570        33
30.580        33
30.590        33
30.600        53
30.610        20
30.620        27
30.630        27
30.640         7
30.650        67
30.660        27
30.670        27
30.680        47
30.690        53
30.700        60
30.710        47
30.720        67
30.730        33
30.740        53
30.750        73
30.760        53
30.770        47
30.780        67
30.790        40
30.800        73
30.810        53
30.820        20
30.830        73
30.840        33
30.850        73
30.860        47
30.870        47
30.880        53
30.890        60
30.900       100
30.910        53
30.920        47
30.930        47
30.940        33
30.950        60
30.960        53
30.970        33
30.980        40
30.990        53
31.000        27
31.010        40
31.020        13
31.030        47
31.040        47
31.050        73
31.060        67
31.070        73
31.080        27
31.090        73
31.100        40
31.110        73
31.120        47
31.130        40
31.140        67
31.150        73
31.160        67
31.170        73
31.180        87
31.190        67
31.200        33
31.210        53
31.220        60
31.230        53
31.240        60
31.250        47
31.260        40
31.270        67
31.280        53
31.290       107
31.300        80
31.310        60
31.320        53
31.330        67
31.340        80
31.350        80
31.360        73
31.370        47
31.380        80
31.390        80
31.400       107
31.410        73
31.420        53
31.430        67
31.440       107
31.450       107
31.460        60
31.470       113
31.480        60
31.490       100
31.500        33
31.510        40
31.520        53
31.530        67
31.540        73
31.550        73
31.560        87
31.570        53
31.580        73
31.590        80
31.600        93
31.610        93
31.620       113
31.630        80
31.640        53
31.650       107
31.660       100
31.670        67
31.680        33
31.690        73
31.700        40
31.710        47
31.720        87
31.730       147
31.740        93
31.750        87
31.760       100
31.770        87
31.780        87
31.790        87
31.800        73
31.810        80
31.820       107
31.830       100
31.840        40
31.850       107
31.860       120
31.870        87
31.880        93
31.890       120
31.900       133
31.910        87
31.920       113
31.930       113
31.940        87
31.950       107
31.960       100
31.970       140
31.980        80
31.990       140
32.000       127
32.010       147
32.020       180
32.030       227
32.040       180
32.050       140
32.060       240
32.070       260
32.080       220
32.090       200
32.100       240
32.110       320
32.120       287
32.130       227
32.140       327
32.150       333
32.160       446
32.170       546
32.180       460
32.190       506
32.200       566
32.210       646
32.220       726
32.230       633
32.240       646
32.250       873
32.260       800
32.270       913
32.280      1000
32.290       986
32.300      1086
32.310      1266
32.320      1446
32.330      1373
32.340      1579
32.350      1626
32.360      1726
32.370      1573
32.380      1586
32.390      1813
32.400      1766
32.410      1806
32.420      1866
32.430      1686
32.440      1593
32.450      1519
32.460      1479
32.470      1579
32.480      1526
32.490      1313
32.500      1246
32.510      1266
32.520      1080
32.530       980
32.540       960
32.550       920
32.560       880
32.570       680
32.580       773
32.590       620
32.600       573
32.610       520
32.620       486
32.630       466
32.640       393
32.650       333
32.660       313
32.670       273
32.680       247
32.690       227
32.700       260
32.710       313
32.720       187
32.730       147
32.740       220
32.750       227
32.760       133
32.770       147
32.780       193
32.790       107
32.800       153
32.810       120
32.820       140
32.830       167
32.840       133
32.850       167
32.860       127
32.870       113
32.880        93
32.890       133
32.900       100
32.910        80
32.920       120
32.930       120
32.940        93
32.950       120
32.960       120
32.970       113
32.980       133
32.990       120
33.000       100
33.010        40
33.020        93
33.030       113
33.040        93
33.050       100
33.060        80
33.070        87
33.080       120
33.090        93
33.100       100
33.110        80
33.120        67
33.130       100
33.140        73
33.150        60
33.160        80
33.170        53
33.180        93
33.190       100
33.200       127
33.210        67
33.220        53
33.230        80
33.240        67
33.250        60
33.260        87
33.270        67
33.280        73
33.290       127
33.300        47
33.310        60
33.320        47
33.330       107
33.340        73
33.350        93
33.360        73
33.370       100
33.380        87
33.390        87
33.400        73
33.410        80
33.420        20
33.430        60
33.440        73
33.450        53
33.460        73
33.470        73
33.480        80
33.490        93
33.500        80
33.510       100
33.520        40
33.530        67
33.540        73
33.550        73
33.560       113
33.570        80
33.580       113
33.590       100
33.600        47
33.610        93
33.620        53
33.630        73
33.640        47
33.650        33
33.660        27
33.670        53
33.680        73
33.690        73
33.700        87
33.710        40
33.720        53
33.730        80
33.740        80
33.750        60
33.760        73
33.770        47
33.780        67
33.790        60
33.800        80
33.810        80
33.820        67
33.830        73
33.840        47
33.850        73
33.860        93
33.870        93
33.880        93
33.890        33
33.900       120
33.910        87
33.920        80
33.930        27
33.940        40
33.950        80
33.960        53
33.970        60
33.980        87
33.990        60
34.000        73
34.010       100
34.020        67
34.030        47
34.040        47
34.050        53
34.060        80
34.070        53
34.080        67
34.090        33
34.100        67
34.110        67
34.120        80
34.130        27
34.140        33
34.150        80
34.160        87
34.170        73
34.180        47
34.190       107
34.200        73
34.210       107
34.220        47
34.230        73
34.240        53
34.250        87
34.260        40
34.270        67
34.280       100
34.290        60
34.300        80
34.310        60
34.320       107
34.330        67
34.340        80
34.350       113
34.360        67
34.370        53
34.380        87
34.390        67
34.400        40
34.410        40
34.420        73
34.430        40
34.440        53
34.450        53
34.460        33
34.470        80
34.480        80
34.490        60
34.500        47
34.510        67
34.520        53
34.530        93
34.540        33
34.550        53
34.560        27
34.570        27
34.580        73
34.590        47
34.600        47
34.610       133
34.620       100
34.630        87
34.640        93
34.650        33
34.660        47
34.670        80
34.680        60
34.690       127
34.700        93
34.710        60
34.720        47
34.730        47
34.740        67
34.750        93
34.760        73
34.770        80
34.780        73
34.790        67
34.800       113
34.810        73
34.820        67
34.830        87
34.840        47
34.850        47
34.860        60
34.870        27
34.880        60
34.890       127
34.900        73
34.910        13
34.920        33
34.930        67
34.940        87
34.950        67
34.960        47
34.970        80
34.980        53
34.990        80
35.000        60
35.010        47
35.020        53
35.030        87
35.040        73
35.050        47
35.060        73
35.070        47
35.080        80
35.090        53
35.100        60
35.110       100
35.120        80
35.130        53
35.140        33
35.150        33
35.160        33
35.170        47
35.180       100
35.190        67
35.200        53
35.210        73
35.220        73
35.230        47
35.240        40
35.250       107
35.260        60
35.270        53
35.280        73
35.290        27
35.300        60
35.310        87
35.320        53
35.330        60
35.340        67
35.350        60
35.360        40
35.370        40
35.380        53
35.390        67
35.400        53
35.410       133
35.420        40
35.430        80
35.440        53
35.450        80
35.460        93
35.470        53
35.480        33
35.490        60
35.500        47
35.510        40
35.520        53
35.530        73
35.540        67
35.550        87
35.560        40
35.570        93
35.580        40
35.590        73
35.600        93
35.610        60
35.620        67
35.630        53
35.640        47
35.650       120
35.660        47
35.670        47
35.680        73
35.690        40
35.700        33
35.710        33
35.720        93
35.730        47
35.740        47
35.750        73
35.760       100
35.770       107
35.780        73
35.790        40
35.800        53
35.810        60
35.820        80
35.830       100
35.840        33
35.850        87
35.860        60
35.870        93
35.880        87
35.890        40
35.900        73
35.910        60
35.920        40
35.930        60
35.940        80
35.950        80
35.960        53
35.970        53
35.980        47
35.990        93
36.000       113
36.010        60
36.020        47
36.030        67
36.040        93
36.050        47
36.060        27
36.070        93
36.080        47
36.090        73
36.100        47
36.110        53
36.120        87
36.130        80
36.140        47
36.150        67
36.160        67
36.170        33
36.180        73
36.190       107
36.200        73
36.210        40
36.220        67
36.230        80
36.240        67
36.250        93
36.260       100
36.270        53
36.280        60
36.290        27
36.300       107
36.310        60
36.320        53
36.330        67
36.340       107
36.350        93
36.360        53
36.370        53
36.380        60
36.390        40
36.400        93
36.410        87
36.420        93
36.430        80
36.440        47
36.450        33
36.460        93
36.470        47
36.480        53
36.490        80
36.500        60
36.510        60
36.520        67
36.530        53
36.540        40
36.550        40
36.560        47
36.570        87
36.580        40
36.590        47
36.600        73
36.610       100
36.620        33
36.630        33
36.640        47
36.650        67
36.660        47
36.670        67
36.680        53
36.690        73
36.700        33
36.710        47
36.720        67
36.730        60
36.740        53
36.750        40
36.760        80
36.770        47
36.780        87
36.790        47
36.800        60
36.810        47
36.820        87
36.830        60
36.840        33
36.850       113
36.860        47
36.870        33
36.880        53
36.890        60
36.900        67
36.910        47
36.920        60
36.930        53
36.940        67
36.950        33
36.960        80
36.970        40
36.980        67
36.990        40
37.000        73
37.010        47
37.020        47
37.030        40
37.040        67
37.050        67
37.060        47
37.070        47
37.080        60
37.090        40
37.100        80
37.110        60
37.120        73
37.130        27
37.140        53
37.150        73
37.160        53
37.170        80
37.180        60
37.190        27
37.200        73
37.210        73
37.220        67
37.230        53
37.240        67
37.250        47
37.260        87
37.270        67
37.280        53
37.290        40
37.300        67
37.310        67
37.320        53
37.330        53
37.340        33
37.350        33
37.360        33
37.370        47
37.380       100
37.390        73
37.400        60
37.410        33
37.420        47
37.430        60
37.440        40
37.450        40
37.460        47
37.470        27
37.480        87
37.490        53
37.500        60
37.510        33
37.520        67
37.530        40
37.540        40
37.550        53
37.560        93
37.570        40
37.580        40
37.590        67
37.600        53
37.610        40
37.620        67
37.630        47
37.640        47
37.650        47
37.660        53
37.670       113
37.680        67
37.690        67
37.700        60
37.710        33
37.720        47
37.730        53
37.740        47
37.750        73
37.760        40
37.770        47
37.780        33
37.790        67
37.800        73
37.810        47
37.820        60
37.830        87
37.840        60
37.850        53
37.860        40
37.870        73
37.880        27
37.890        73
37.900        20
37.910        40
37.920        93
37.930        47
37.940        33
37.950        33
37.960        67
37.970        53
37.980        27
37.990        33
38.000        47
38.010        80
38.020        73
38.030        67
38.040        20
38.050        60
38.060        33
38.070        73
38.080        47
38.090        33
38.100        13
38.110        40
38.120        33
38.130        13
38.140        33
38.150        47
38.160        73
38.170       107
38.180        47
38.190        47
38.200        20
38.210        60
38.220        47
38.230        40
38.240        60
38.250        60
38.260        47
38.270        27
38.280        47
38.290        40
38.300        33
38.310        47
38.320        20
38.330        33
38.340        33
38.350        27
38.360        20
38.370        40
38.380        47
38.390        47
38.400        47
38.410        33
38.420        60
38.430        47
38.440        93
38.450        33
38.460        80
38.470        60
38.480        33
38.490        20
38.500        13
38.510        40
38.520        47
38.530        47
38.540        20
38.550        40
38.560        20
38.570        80
38.580        53
38.590        33
38.600        33
38.610        47
38.620        47
38.630        47
38.640        27
38.650        67
38.660        40
38.670        40
38.680        53
38.690        20
38.700        33
38.710        40
38.720        33
38.730        27
38.740        60
38.750        20
38.760        40
38.770        47
38.780        40
38.790        33
38.800        67
38.810        60
38.820        33
38.830        53
38.840        73
38.850        53
38.860        27
38.870        33
38.880        40
38.890        33
38.900        13
38.910        47
38.920        27
38.930         7
38.940        40
38.950        53
38.960        40
38.970        40
38.980        40
38.990        53
39.000        67
39.010        47
39.020        47
39.030        53
39.040        80
39.050        80
39.060        60
39.070        20
39.080        53
39.090        33
39.100        67
39.110        47
39.120        27
39.130       107
39.140        33
39.150        53
39.160        13
39.170        73
39.180        60
39.190        60
39.200        53
39.210        47
39.220        80
39.230        60
39.240        20
39.250        53
39.260        67
39.270        40
39.280        40
39.290        13
39.300        20
39.310        53
39.320        27
39.330         7
39.340        47
39.350        73
39.360        53
39.370        27
39.380        33
39.390        40
39.400        33
39.410        33
39.420        33
39.430        67
39.440        73
39.450        53
39.460        20
39.470        67
39.480        20
39.490        20
39.500        40
39.510        47
39.520        40
39.530        40
39.540        40
39.550        27
39.560        80
39.570        53
39.580        67
39.590        73
39.600        27
39.610        33
39.620        20
39.630        20
39.640        27
39.650        33
39.660        67
39.670        13
39.680        40
39.690        33
39.700        53
39.710        47
39.720        47
39.730        60
39.740        13
39.750        33
39.760        20
39.770        33
39.780        33
39.790        47
39.800        53
39.810        27
39.820        53
39.830        40
39.840        27
39.850        67
39.860        47
39.870        40
39.880        20
39.890        80
39.900        93
39.910        33
39.920        87
39.930        53
39.940        67
39.950        73
39.960       100
39.970        60
39.980        80
39.990        60
40.000       120
40.010       140
40.020        73
40.030       113
40.040       100
40.050        53
40.060        53
40.070        93
40.080        87
40.090        67
40.100       113
40.110        60
40.120        60
40.130        67
40.140        40
40.150        53
40.160        67
40.170        60
40.180        47
40.190        47
40.200        53
40.210        47
40.220        60
40.230        67
40.240        67
40.250        47
40.260        53
40.270        33
40.280        40
40.290        33
40.300        60
40.310        27
40.320        53
40.330        40
40.340        13
40.350        73
40.360        40
40.370        13
40.380        20
40.390         7
40.400        33
40.410        53
40.420        40
40.430        27
40.440        40
40.450        40
40.460        27
40.470        33
40.480        13
40.490        53
40.500        40
40.510        53
40.520        20
40.530         0
40.540        53
40.550        13
40.560        33
40.570        13
40.580        20
40.590        27
40.600        40
40.610        47
40.620        40
40.630         0
40.640        33
40.650        40
40.660        53
40.670        53
40.680        93
40.690        47
40.700        40
40.710        53
40.720        27
40.730        53
40.740        27
40.750        40
40.760        20
40.770        27
40.780        40
40.790        53
40.800        67
40.810        27
40.820        40
40.830        33
40.840         7
40.850        27
40.860        40
40.870        27
40.880        13
40.890        20
40.900        27
40.910        33
40.920        40
40.930        47
40.940        27
40.950        27
40.960        27
40.970        53
40.980        67
40.990        27
41.000        33
41.010        20
41.020        47
41.030        27
41.040        40
41.050        40
41.060        53
41.070        27
41.080        20
41.090        27
41.100        20
41.110        13
41.120        67
41.130        60
41.140        47
41.150        27
41.160        27
41.170        33
41.180        33
41.190        40
41.200        47
41.210        33
41.220        60
41.230        33
41.240        27
41.250        27
41.260        20
41.270        33
41.280        33
41.290        33
41.300        47
41.310        47
41.320        40
41.330        60
41.340        47
41.350        27
41.360        53
41.370        47
41.380        33
41.390        40
41.400        33
41.410        67
41.420        33
41.430        27
41.440        67
41.450        40
41.460        53
41.470        33
41.480        47
41.490        73
41.500        80
41.510        20
41.520        53
41.530        60
41.540        47
41.550        53
41.560        67
41.570        80
41.580        60
41.590        40
41.600        73
41.610        47
41.620        47
41.630        53
41.640        47
41.650        47
41.660        87
41.670        20
41.680        20
41.690        33
41.700        40
41.710        60
41.720        60
41.730        87
41.740        27
41.750        20
41.760        67
41.770        80
41.780        33
41.790        20
41.800        80
41.810        60
41.820        27
41.830        67
41.840        67
41.850        47
41.860        73
41.870        33
41.880        33
41.890        47
41.900        40
41.910        20
41.920        53
41.930        20
41.940        53
41.950        27
41.960        47
41.970        40
41.980        33
41.990        53
42.000        60
42.010        67
42.020        40
42.030        80
42.040        33
42.050        47
42.060        33
42.070        40
42.080        20
42.090        27
42.100        47
42.110        13
42.120        33
42.130        33
42.140        47
42.150        13
42.160        27
42.170        47
42.180        27
42.190        40
42.200        67
42.210        47
42.220        27
42.230        13
42.240        27
42.250        27
42.260        20
42.270        60
42.280        27
42.290        20
42.300        60
42.310        53
42.320        27
42.330        33
42.340        20
42.350        27
42.360        27
42.370        53
42.380        33
42.390        47
42.400        27
42.410        13
42.420        33
42.430        53
42.440        27
42.450        27
42.460        53
42.470        13
42.480        27
42.490        40
42.500        60
42.510        33
42.520        27
42.530         7
42.540        47
42.550        40
42.560        40
42.570        40
42.580        20
42.590        27
42.600        40
42.610        27
42.620        27
42.630        47
42.640        53
42.650        33
42.660        20
42.670        20
42.680        13
42.690        40
42.700        53
42.710        33
42.720        20
42.730        20
42.740        27
42.750        33
42.760        33
42.770        20
42.780        27
42.790         7
42.800        87
42.810        27
42.820        27
42.830        13
42.840        20
42.850        40
42.860        33
42.870        13
42.880        40
42.890        40
42.900        60
42.910        40
42.920        27
42.930        33
42.940        33
42.950        40
42.960        20
42.970        20
42.980        27
42.990        33
43.000        40
43.010        33
43.020        33
43.030        40
43.040        20
43.050        40
43.060        33
43.070        47
43.080        13
43.090        27
43.100        47
43.110        20
43.120        27
43.130        20
43.140        13
43.150        53
43.160        20
43.170        27
43.180        33
43.190        47
43.200        47
43.210        53
43.220        33
43.230        53
43.240        13
43.250        40
43.260        47
43.270        40
43.280        20
43.290        47
43.300         7
43.310        47
43.320        47
43.330        27
43.340        33
43.350        27
43.360        47
43.370        13
43.380        20
43.390        33
43.400        27
43.410        20
43.420        33
43.430        40
43.440        20
43.450        13
43.460        27
43.470        40
43.480        33
43.490        67
43.500        27
43.510        27
43.520        53
43.530        67
43.540        27
43.550        40
43.560        27
43.570        20
43.580        33
43.590        33
43.600        33
43.610        47
43.620        53
43.630        47
43.640        20
43.650        33
43.660        47
43.670        27
43.680        53
43.690        33
43.700        13
43.710        53
43.720        33
43.730        47
43.740         7
43.750        33
43.760        73
43.770        27
43.780        40
43.790        27
43.800        20
43.810        33
43.820        20
43.830        27
43.840        73
43.850        20
43.860        27
43.870        27
43.880        47
43.890        40
43.900        27
43.910        33
43.920        20
43.930        73
43.940        20
43.950        27
43.960        47
43.970        33
43.980        33
43.990        27
44.000        20
44.010        40
44.020        33
44.030        13
44.040        20
44.050        47
44.060        47
44.070        47
44.080        33
44.090        20
44.100        40
44.110        47
44.120        13
44.130        33
44.140        20
44.150        67
44.160        60
44.170        40
44.180        53
44.190        33
44.200        47
44.210        13
44.220        67
44.230        33
44.240        40
44.250        33
44.260        47
44.270        33
44.280        60
44.290        53
44.300        53
44.310        40
44.320        53
44.330        20
44.340        80
44.350        53
44.360        53
44.370        53
44.380        33
44.390        27
44.400        20
44.410        40
44.420        33
44.430        20
44.440        20
44.450        33
44.460        40
44.470        47
44.480        40
44.490        33
44.500        80
44.510        40
44.520        67
44.530        27
44.540        47
44.550        40
44.560        27
44.570        13
44.580        40
44.590        40
44.600        40
44.610        60
44.620        40
44.630        33
44.640        53
44.650        33
44.660        40
44.670        33
44.680        80
44.690        67
44.700        80
44.710        40
44.720        73
44.730        60
44.740        47
44.750        60
44.760        80
44.770        67
44.780        67
44.790        87
44.800        80
44.810        47
44.820        53
44.830        87
44.840        47
44.850        80
44.860        27
44.870       120
44.880        73
44.890        47
44.900        60
44.910        73
44.920        87
44.930        60
44.940        60
44.950        60
44.960        67
44.970        60
44.980        40
44.990        93
45.000        60
45.010        80
45.020       107
45.030        87
45.040        87
45.050        67
45.060        60
45.070        60
45.080        80
45.090        67
45.100        53
45.110        60
45.120        87
45.130        60
45.140        53
45.150        67
45.160        80
45.170       107
45.180        87
45.190        93
45.200        67
45.210       133
45.220        80
45.230        53
45.240       100
45.250       140
45.260       120
45.270        67
45.280        93
45.290       113
45.300       113
45.310        73
45.320        93
45.330       107
45.340       100
45.350        93
45.360       127
45.370        80
45.380        73
45.390       107
45.400        80
45.410        80
45.420       107
45.430       133
45.440       120
45.450       113
45.460        87
45.470       107
45.480       113
45.490       133
45.500       107
45.510       133
45.520       167
45.530       107
45.540        53
45.550       107
45.560       127
45.570       220
45.580       167
45.590       180
45.600       127
45.610       160
45.620       140
45.630       227
45.640       207
45.650       180
45.660       140
45.670       173
45.680       133
45.690       193
45.700       140
45.710       207
45.720       260
45.730       253
45.740       273
45.750       253
45.760       293
45.770       287
45.780       360
45.790       420
45.800       360
45.810       333
45.820       407
45.830       426
45.840       333
45.850       440
45.860       506
45.870       446
45.880       506
45.890       533
45.900       520
45.910       446
45.920       513
45.930       673
45.940       653
45.950       713
45.960       793
45.970       740
45.980       786
45.990       886
46.000      1126
46.010       980
46.020       953
46.030      1113
46.040      1006
46.050      1299
46.060      1206
46.070      1419
46.080      1373
46.090      1593
46.100      1539
46.110      1533
46.120      1979
46.130      2006
46.140      2026
46.150      2239
46.160      2132
46.170      2232
46.180      2586
46.190      2366
46.200      2566
46.210      2759
46.220      2752
46.230      3052
46.240      3065
46.250      3205
46.260      3052
46.270      3239
46.280      3612
46.290      3379
46.300      3145
46.310      3345
46.320      3525
46.330      3525
46.340      3345
46.350      3585
46.360      3379
46.370      3379
46.380      3685
46.390      3405
46.400      3272
46.410      3352
46.420      3125
46.430      2925
46.440      2859
46.450      2906
46.460      2839
46.470      2706
46.480      2726
46.490      2232
46.500      2279
46.510      2472
46.520      2199
46.530      1986
46.540      2053
46.550      1906
46.560      1919
46.570      1859
46.580      1893
46.590      1659
46.600      1459
46.610      1526
46.620      1446
46.630      1253
46.640      1160
46.650      1126
46.660      1053
46.670       973
46.680       893
46.690      1026
46.700       840
46.710       813
46.720       773
46.730       866
46.740       793
46.750       726
46.760       706
46.770       633
46.780       693
46.790       633
46.800       553
46.810       613
46.820       453
46.830       506
46.840       446
46.850       566
46.860       400
46.870       466
46.880       387
46.890       353
46.900       340
46.910       307
46.920       287
46.930       353
46.940       320
46.950       227
46.960       347
46.970       267
46.980       247
46.990       307
47.000       307
47.010       373
47.020       300
47.030       347
47.040       240
47.050       253
47.060       267
47.070       227
47.080       227
47.090       207
47.100       293
47.110       273
47.120       280
47.130       400
47.140       580
47.150       573
47.160       766
47.170       746
47.180       833
47.190       933
47.200      1160
47.210      1279
47.220      1106
47.230      1066
47.240       893
47.250       753
47.260       560
47.270       327
47.280       360
47.290       313
47.300       227
47.310       200
47.320       153
47.330       133
47.340       173
47.350       207
47.360       160
47.370       167
47.380       133
47.390       153
47.400       200
47.410       127
47.420       107
47.430       113
47.440       100
47.450        93
47.460       120
47.470       113
47.480       133
47.490       147
47.500       140
47.510       100
47.520       113
47.530       127
47.540       120
47.550        87
47.560        93
47.570        80
47.580       120
47.590       100
47.600       133
47.610        67
47.620        80
47.630        60
47.640        67
47.650       120
47.660        80
47.670       113
47.680       120
47.690        93
47.700       127
47.710        93
47.720       100
47.730        73
47.740       107
47.750        80
47.760        93
47.770        87
47.780        73
47.790        80
47.800       133
47.810        60
47.820        67
47.830        80
47.840        53
47.850        93
47.860        80
47.870        47
47.880        93
47.890        80
47.900        67
47.910        53
47.920       120
47.930        73
47.940       100
47.950        80
47.960        80
47.970        60
47.980       100
47.990        93
48.000        87
48.010       100
48.020        60
48.030       100
48.040        80
48.050        47
48.060        73
48.070       107
48.080        47
48.090        80
48.100        87
48.110        33
48.120        80
48.130        40
48.140        67
48.150        60
48.160        47
48.170        73
48.180        67
48.190        93
48.200        53
48.210        47
48.220        53
48.230       100
48.240        73
48.250        93
48.260        87
48.270        87
48.280       100
48.290        47
48.300        73
48.310        73
48.320        73
48.330        40
48.340       100
48.350        60
48.360        40
48.370       120
48.380        33
48.390       100
48.400        80
48.410        60
48.420        33
48.430        53
48.440        27
48.450        53
48.460        33
48.470        73
48.480        47
48.490        33
48.500        27
48.510        73
48.520        47
48.530        27
48.540        67
48.550        87
48.560        73
48.570        53
48.580        47
48.590        60
48.600        67
48.610        47
48.620        47
48.630        40
48.640        33
48.650        47
48.660        40
48.670        47
48.680        67
48.690        53
48.700        27
48.710        53
48.720        93
48.730        73
48.740        73
48.750        60
48.760        53
48.770        40
48.780        13
48.790        80
48.800        47
48.810        33
48.820        40
48.830        40
48.840        27
48.850        27
48.860        47
48.870        60
48.880        33
48.890        40
48.900        33
48.910        47
48.920        40
48.930        47
48.940        60
48.950        47
48.960        47
48.970        60
48.980        67
48.990        93
49.000        20
49.010        27
49.020        40
49.030        47
49.040        73
49.050        73
49.060        27
49.070        40
49.080        67
49.090        33
49.100        33
49.110        27
49.120        27
49.130         7
49.140        47
49.150        13
49.160        40
49.170        53
49.180        67
49.190        27
49.200        53
49.210        27
49.220        53
49.230        40
49.240        33
49.250        67
49.260        80
49.270        40
49.280       100
49.290        53
49.300        47
49.310        20
49.320        27
49.330        33
49.340        47
49.350        40
49.360        47
49.370        33
49.380        73
49.390        73
49.400        73
49.410        60
49.420        67
49.430        47
49.440        53
49.450        47
49.460        33
49.470        40
49.480        60
49.490        53
49.500        67
49.510        33
49.520        40
49.530        47
49.540        53
49.550        47
49.560        60
49.570        40
49.580        33
49.590        53
49.600        53
49.610        67
49.620        27
49.630        27
49.640        80
49.650        67
49.660        40
49.670        33
49.680        47
49.690        27
49.700        47
49.710        60
49.720        60
49.730        47
49.740        53
49.750        33
49.760        73
49.770        60
49.780        20
49.790        40
49.800        40
49.810        33
49.820        20
49.830        33
49.840        40
49.850        13
49.860        60
49.870        67
49.880        40
49.890        67
49.900        53
49.910        27
49.920        53
49.930        47
49.940         7
49.950        47
49.960        33
49.970        53
49.980        27
49.990        27
50.000        47
50.010        60
50.020        27
50.030         7
50.040        47
50.050        27
50.060        53
50.070        73
50.080         7
50.090         7
50.100        40
50.110        33
50.120        27
50.130        53
50.140        87
50.150        20
50.160        53
50.170        47
50.180        53
50.190        53
50.200        73
50.210        40
50.220        67
50.230        53
50.240        53
50.250        33
50.260        13
50.270        27
50.280        53
50.290         7
50.300        67
50.310        40
50.320        80
50.330        53
50.340        40
50.350        33
50.360        80
50.370        47
50.380        33
50.390        40
50.400        40
50.410        60
50.420        60
50.430        53
50.440        67
50.450        93
50.460        40
50.470        47
50.480        53
50.490        47
50.500        27
50.510        73
50.520        53
50.530        53
50.540        40
50.550        53
50.560        60
50.570        47
50.580        80
50.590        67
50.600        80
50.610        80
50.620       100
50.630       107
50.640       147
50.650       167
50.660       140
50.670       187
50.680       173
50.690       200
50.700       267
50.710       327
50.720       267
50.730       280
50.740       313
50.750       347
50.760       327
50.770       267
50.780       300
50.790       333
50.800       233
50.810       340
50.820       340
50.830       307
50.840       287
50.850       353
50.860       287
50.870       353
50.880       313
50.890       267
50.900       240
50.910       260
50.920       247
50.930       260
50.940       273
50.950       293
50.960       333
50.970       387
50.980       267
50.990       307
51.000       360
51.010       333
51.020       227
51.030       280
51.040       213
51.050       320
51.060       327
51.070       393
51.080       340
51.090       380
51.100       367
51.110       160
51.120       340
51.130       320
51.140       320
51.150       247
51.160       253
51.170       293
51.180       287
51.190       320
51.200       240
51.210       280
51.220       293
51.230       267
51.240       393
51.250       280
51.260       347
51.270       387
51.280       280
51.290       360
51.300       327
51.310       233
51.320       280
51.330       300
51.340       280
51.350       300
51.360       327
51.370       333
51.380       300
51.390       407
51.400       340
51.410       273
51.420       327
51.430       380
51.440       340
51.450       240
51.460       333
51.470       307
51.480       373
51.490       240
51.500       253
51.510       267
51.520       273
51.530       307
51.540       307
51.550       313
51.560       333
51.570       347
51.580       320
51.590       327
51.600       287
51.610       360
51.620       313
51.630       300
51.640       460
51.650       307
51.660       373
51.670       333
51.680       320
51.690       407
51.700       273
51.710       347
51.720       347
51.730       293
51.740       400
51.750       267
51.760       360
51.770       473
51.780       347
51.790       373
51.800       360
51.810       367
51.820       513
51.830       426
51.840       333
51.850       446
51.860       513
51.870       367
51.880       333
51.890       287
51.900       440
51.910       380
51.920       373
51.930       460
51.940       393
51.950       460
51.960       486
51.970       433
51.980       473
51.990       466
52.000       420
52.010       373
52.020       486
52.030       533
52.040       413
52.050       553
52.060       486
52.070       573
52.080       506
52.090       500
52.100       593
52.110       666
52.120       673
52.130       706
52.140       660
52.150       713
52.160       813
52.170       693
52.180       793
52.190       886
52.200       693
52.210       693
52.220       946
52.230       813
52.240       946
52.250      1193
52.260      1246
52.270      1433
52.280      1526
52.290      1759
52.300      2386
52.310      2866
52.320      3072
52.330      3818
52.340      3898
52.350      4298
52.360      5345
52.370      5365
52.380      6031
52.390      6344
52.400      6491
52.410      6731
52.420      7037
52.430      7510
52.440      7777
52.450      7790
52.460      8583
52.470      8583
52.480      9410
52.490     10336
52.500     11389
52.510     13221
52.520     17060
52.530     21905
52.540     33407
52.550     51539
52.560     75057
52.570     97421
52.580    115847
52.590    130441
52.600    138998
52.610    141423
52.620    132960
52.630    116207
52.640     87845
52.650     57557
52.660     37818
52.670     28735
52.680     28169
52.690     33213
52.700     44456
52.710     53858
52.720     65001
52.730     71052
52.740     77162
52.750     77209
52.760     73317
52.770     63048
52.780     45322
52.790     30115
52.800     18519
52.810     11216
52.820      7904
52.830      5718
52.840      4338
52.850      3579
52.860      3325
52.870      2726
52.880      2446
52.890      2132
52.900      1733
52.910      1626
52.920      1699
52.930      1473
52.940      1466
52.950      1633
52.960      1333
52.970      1033
52.980       953
52.990       920
53.000       980
53.010       846
53.020       860
53.030       906
53.040       726
53.050       820
53.060       920
53.070       733
53.080       693
53.090       606
53.100       646
53.110       673
53.120       593
53.130       720
53.140       613
53.150       560
53.160       553
53.170       433
53.180       566
53.190       626
53.200       566
53.210       600
53.220       493
53.230       533
53.240       600
53.250       520
53.260       506
53.270       520
53.280       440
53.290       420
53.300       473
53.310       413
53.320       473
53.330       486
53.340       446
53.350       513
53.360       420
53.370       453
53.380       506
53.390       380
53.400       480
53.410       453
53.420       426
53.430       407
53.440       426
53.450       367
53.460       407
53.470       313
53.480       267
53.490       393
53.500       426
53.510       333
53.520       413
53.530       347
53.540       360
53.550       327
53.560       367
53.570       300
53.580       380
53.590       460
53.600       327
53.610       360
53.620       347
53.630       320
53.640       327
53.650       393
53.660       333
53.670       313
53.680       273
53.690       340
53.700       307
53.710       280
53.720       387
53.730       367
53.740       300
53.750       353
53.760       333
53.770       267
53.780       307
53.790       240
53.800       287
53.810       333
53.820       293
53.830       293
53.840       293
53.850       313
53.860       220
53.870       293
53.880       260
53.890       233
53.900       353
53.910       253
53.920       233
53.930       260
53.940       300
53.950       227
53.960       287
53.970       327
53.980       187
53.990       247
54.000       247
54.010       300
54.020       240
54.030       233
54.040       260
54.050       227
54.060       233
54.070       233
54.080       240
54.090       227
54.100       280
54.110       247
54.120       227
54.130       147
54.140       320
54.150       240
54.160       227
54.170       273
54.180       227
54.190       200
54.200       193
54.210       227
54.220       287
54.230       353
54.240       227
54.250       273
54.260       253
54.270       207
54.280       267
54.290       260
54.300       267
54.310       213
54.320       193
54.330       227
54.340       287
54.350       193
54.360       187
54.370       253
54.380       193
54.390       167
54.400       213
54.410       253
54.420       180
54.430       180
54.440       180
54.450       220
54.460       227
54.470       253
54.480       153
54.490       293
54.500       233
54.510       287
54.520       260
54.530       180
54.540       187
54.550       193
54.560       260
54.570       200
54.580       200
54.590       233
54.600       160
54.610       273
54.620       213
54.630       180
54.640       193
54.650       253
54.660       227
54.670       200
54.680       287
54.690       240
54.700       260
54.710       113
54.720       227
54.730       160
54.740       240
54.750       160
54.760       227
54.770       193
54.780       227
54.790       253
54.800       207
54.810       187
54.820       200
54.830       207
54.840       200
54.850       240
54.860       193
54.870       233
54.880       167
54.890       160
54.900       240
54.910       213
54.920       193
54.930       187
54.940       153
54.950       253
54.960       160
54.970       167
54.980       193
54.990       167
55.000       240
55.010       207
55.020       200
55.030       180
55.040       220
55.050       173
55.060       160
55.070       200
55.080       173
55.090       173
55.100       220
55.110       193
55.120       200
55.130       233
55.140       153
55.150       213
55.160       147
55.170       160
55.180       180
55.190       200
55.200       220
55.210       207
55.220       200
55.230       240
55.240       180
55.250       180
55.260       247
55.270       187
55.280       207
55.290       167
55.300       220
55.310       180
55.320       180
55.330       140
55.340       173
55.350       193
55.360       187
55.370       153
55.380       247
55.390       187
55.400       207
55.410       193
55.420       147
55.430       227
55.440       227
55.450       260
55.460       153
55.470       187
55.480       140
55.490       153
55.500       153
55.510       167
55.520       167
55.530       173
55.540       213
55.550       167
55.560       127
55.570       127
55.580       127
55.590       153
55.600       140
55.610       187
55.620       153
55.630       147
55.640       173
55.650       140
55.660       213
55.670       213
55.680       200
55.690       213
55.700       193
55.710       153
55.720       227
55.730       153
55.740       233
55.750       180
55.760       153
55.770       187
55.780       193
55.790       227
55.800       173
55.810       173
55.820       167
55.830       173
55.840       140
55.850       133
55.860       173
55.870       193
55.880       133
55.890       160
55.900       193
55.910       180
55.920       187
55.930       207
55.940       167
55.950       173
55.960       160
55.970       207
55.980       153
55.990        80
56.000       227
56.010       107
56.020       147
56.030       180
56.040       173
56.050       113
56.060       193
56.070       160
56.080       160
56.090       253
56.100       160
56.110       160
56.120       133
56.130       147
56.140       140
56.150       207
56.160       173
56.170       213
56.180       160
56.190       140
56.200       127
56.210       193
56.220       167
56.230       187
56.240       220
56.250       160
56.260       173
56.270       107
56.280       120
56.290       113
56.300       133
56.310       160
56.320       187
56.330       167
56.340       173
56.350       133
56.360       127
56.370       147
56.380       173
56.390       180
56.400       187
56.410       200
56.420       140
56.430       200
56.440       220
56.450       173
56.460       180
56.470       140
56.480       173
56.490       113
56.500       147
56.510       173
56.520        93
56.530       153
56.540        60
56.550       187
56.560       140
56.570       180
56.580       173
56.590       133
56.600       153
56.610       173
56.620       193
56.630       113
56.640       167
56.650       180
56.660       127
56.670       153
56.680       133
56.690       133
56.700       167
56.710       120
56.720       173
56.730       193
56.740       173
56.750       153
56.760       120
56.770       127
56.780       193
56.790       180
56.800       127
56.810       180
56.820        80
56.830       167
56.840       160
56.850       153
56.860       147
56.870       127
56.880       107
56.890       133
56.900       153
56.910        87
56.920       133
56.930       173
56.940       133
56.950       160
56.960       153
56.970       160
56.980       120
56.990       207
57.000       173
57.010       140
57.020       107
57.030       193
57.040       140
57.050       127
57.060       160
57.070       127
57.080       140
57.090        40
57.100       120
57.110       153
57.120       193
57.130       147
57.140       200
57.150       187
57.160       147
57.170       167
57.180       147
57.190       147
57.200       160
57.210       113
57.220       173
57.230       153
57.240       180
57.250       167
57.260       133
57.270        93
57.280       147
57.290       100
57.300       133
57.310       120
57.320       187
57.330       100
57.340        93
57.350       160
57.360       167
57.370       100
57.380       213
57.390       160
57.400       133
57.410       187
57.420       153
57.430       167
57.440       140
57.450       127
57.460       153
57.470       160
57.480       100
57.490       160
57.500       133
57.510       160
57.520       173
57.530       140
57.540       127
57.550       107
57.560       120
57.570        67
57.580       100
57.590       127
57.600       153
57.610       140
57.620       133
57.630       107
57.640       147
57.650       133
57.660       180
57.670       180
57.680        53
57.690       193
57.700       100
57.710       187
57.720       120
57.730       193
57.740       187
57.750       140
57.760       147
57.770       127
57.780       120
57.790       147
57.800       127
57.810       113
57.820       153
57.830       127
57.840       107
57.850       147
57.860       140
57.870       147
57.880       153
57.890       140
57.900       133
57.910       107
57.920       140
57.930       120
57.940       133
57.950       140
57.960       100
57.970       100
57.980       120
57.990       140
58.000        87
58.010       113
58.020       113
58.030        73
58.040        93
58.050       107
58.060       153
58.070       113
58.080       107
58.090       107
58.100       133
58.110       167
58.120       167
58.130       100
58.140       107
58.150       133
58.160       133
58.170       147
58.180       127
58.190       133
58.200        73
58.210       160
58.220       113
58.230        93
58.240        80
58.250       100
58.260       133
58.270       113
58.280       120
58.290        80
58.300       147
58.310       140
58.320       160
58.330       133
58.340       120
58.350       160
58.360       120
58.370        73
58.380        93
58.390       100
58.400       120
58.410       127
58.420       133
58.430       113
58.440       113
58.450       120
58.460       113
58.470       100
58.480       127
58.490       107
58.500        67
58.510       113
58.520       127
58.530       133
58.540        73
58.550        67
58.560       120
58.570       113
58.580       140
58.590       120
58.600        87
58.610       127
58.620       133
58.630       120
58.640        60
58.650        93
58.660       107
58.670       193
58.680        67
58.690       113
58.700       120
58.710       127
58.720        87
58.730       127
58.740       107
58.750       180
58.760        67
58.770        87
58.780       127
58.790       100
58.800        60
58.810        80
58.820       140
58.830       120
58.840       120
58.850        73
58.860        73
58.870        73
58.880       100
58.890       107
58.900       160
58.910       153
58.920        80
58.930       140
58.940       107
58.950       127
58.960       100
58.970        93
58.980       100
58.990       100
59.000        67
59.010       120
59.020       100
59.030       133
59.040       107
59.050       120
59.060       140
59.070       107
59.080        67
59.090        73
59.100       133
59.110        87
59.120        87
59.130       140
59.140       140
59.150        80
59.160        53
59.170        80
59.180       127
59.190       100
59.200       127
59.210       147
59.220        67
59.230        73
59.240        87
59.250        93
59.260        80
59.270       120
59.280       107
59.290        67
59.300        87
59.310       113
59.320       113
59.330        80
59.340       113
59.350        80
59.360       100
59.370        80
59.380        87
59.390       100
59.400        93
59.410        47
59.420       107
59.430       120
59.440       100
59.450       100
59.460       100
59.470        27
59.480       107
59.490        60
59.500        73
59.510       100
59.520        53
59.530       100
59.540        87
59.550       107
59.560        87
59.570        80
59.580        87
59.590        93
59.600        73
59.610       127
59.620        67
59.630       140
59.640        60
59.650       113
59.660       107
59.670        87
59.680        93
59.690       100
59.700       160
59.710        67
59.720       120
59.730        80
59.740        73
59.750        87
59.760       107
59.770       120
59.780       160
59.790        53
59.800       100
59.810       107
59.820        87
59.830       120
59.840       120
59.850       100
59.860        60
59.870       100
59.880        93
59.890        87
59.900        53
59.910       113
59.920        80
59.930        33
59.940       127
59.950       100
59.960        47
59.970        60
59.980        27
59.990         0
60.000         0
