20.000         0
20.010         0
20.020        20
20.030        47
20.040        60
20.050        47
20.060        53
20.070        47
20.080        27
20.090        20
20.100        47
20.110        73
20.120        53
20.130        47
20.140        60
20.150        27
20.160        40
20.170        53
20.180        40
20.190        53
20.200        40
20.210        67
20.220        33
20.230        20
20.240        60
20.250        20
20.260        60
20.270        33
20.280        27
20.290        33
20.300        27
20.310        53
20.320        40
20.330        33
20.340        73
20.350        47
20.360        40
20.370        53
20.380        40
20.390        20
20.400        53
20.410        27
20.420        47
20.430        53
20.440        60
20.450        20
20.460        40
20.470        67
20.480        20
20.490        67
20.500        47
20.510        13
20.520        40
20.530        27
20.540        60
20.550        60
20.560        40
20.570        33
20.580        60
20.590        27
20.600        20
20.610        20
20.620        20
20.630        67
20.640        33
20.650        40
20.660        53
20.670        53
20.680        40
20.690        40
20.700        60
20.710        40
20.720        27
20.730        33
20.740        47
20.750        27
20.760        40
20.770         7
20.780        33
20.790        53
20.800        53
20.810        47
20.820        80
20.830        33
20.840        20
20.850        33
20.860        53
20.870        47
20.880        40
20.890        40
20.900        33
20.910        47
20.920        87
20.930        33
20.940        47
20.950        73
20.960        27
20.970        33
20.980        20
20.990        67
21.000        53
21.010        47
21.020        60
21.030        33
21.040        33
21.050        40
21.060        40
21.070        27
21.080        40
21.090        40
21.100        33
21.110        47
21.120        27
21.130        60
21.140        47
21.150        53
21.160        53
21.170        47
21.180        53
21.190        20
21.200        60
21.210        60
21.220        33
21.230        40
21.240        40
21.250        53
21.260        47
21.270        27
21.280        60
21.290        33
21.300        40
21.310        20
21.320        13
21.330        20
21.340        47
21.350        60
21.360        27
21.370        53
21.380        40
21.390        40
21.400        67
21.410        33
21.420        40
21.430        53
21.440        47
21.450        27
21.460        40
21.470        47
21.480        13
21.490        13
21.500        53
21.510        27
21.520        53
21.530        47
21.540        33
21.550        40
21.560        53
21.570        40
21.580        33
21.590        27
21.600        47
21.610        13
21.620        27
21.630        80
21.640        53
21.650        20
21.660        20
21.670        60
21.680        33
21.690        40
21.700        27
21.710        27
21.720        53
21.730        47
21.740        33
21.750        27
21.760        40
21.770        60
21.780        80
21.790        60
21.800        40
21.810        67
21.820        87
21.830        53
21.840        40
21.850        20
21.860        47
21.870        47
21.880        73
21.890        53
21.900        60
21.910        13
21.920        67
21.930        67
21.940        73
21.950        33
21.960        53
21.970        67
21.980        40
21.990        33
22.000        40
22.010        27
22.020        33
22.030        47
22.040        33
22.050        47
22.060        20
22.070        27
22.080        53
22.090        47
22.100        47
22.110        13
22.120        27
22.130        27
22.140        47
22.150        60
22.160        40
22.170        60
22.180        67
22.190        27
22.200        47
22.210        40
22.220        13
22.230        53
22.240        53
22.250        20
22.260        40
22.270        40
22.280        13
22.290        33
22.300        67
22.310        53
22.320        80
22.330        40
22.340        33
22.350        13
22.360        20
22.370        73
22.380        33
22.390        67
22.400        47
22.410        80
22.420        33
22.430        27
22.440        53
22.450        47
22.460        60
22.470        73
22.480        27
22.490        33
22.500        40
22.510         7
22.520        33
22.530        20
22.540        47
22.550        27
22.560        33
22.570        27
22.580        33
22.590        33
22.600        27
22.610        93
22.620        53
22.630        73
22.640        27
22.650        33
22.660        60
22.670         7
22.680        27
22.690        93
22.700        13
22.710        53
22.720        33
22.730        53
22.740        53
22.750        27
22.760        20
22.770        40
22.780        60
22.790        33
22.800        33
22.810        53
22.820        20
22.830        60
22.840        33
22.850        33
22.860        73
22.870        33
22.880        27
22.890        53
22.900        27
22.910        47
22.920        53
22.930        73
22.940        80
22.950        60
22.960        27
22.970        40
22.980        27
22.990        60
23.000        73
23.010        47
23.020        20
23.030        60
23.040        20
23.050        80
23.060        33
23.070        40
23.080        47
23.090        47
23.100        67
23.110        73
23.120        27
23.130        40
23.140        53
23.150        60
23.160        20
23.170        53
23.180        60
23.190        20
23.200        47
23.210        33
23.220        27
23.230        47
23.240        47
23.250        53
23.260        67
23.270        53
23.280        53
23.290        53
23.300        47
23.310        73
23.320        60
23.330        80
23.340        80
23.350        27
23.360        27
23.370        40
23.380        67
23.390        27
23.400        27
23.410        20
23.420        40
23.430        27
23.440         7
23.450        27
23.460        33
23.470        27
23.480        40
23.490        27
23.500        20
23.510        47
23.520        33
23.530        33
23.540        13
23.550        60
23.560        53
23.570        40
23.580        33
23.590        13
23.600        60
23.610        13
23.620        47
23.630        27
23.640        20
23.650        67
23.660        60
23.670        53
23.680        20
23.690        60
23.700        53
23.710        60
23.720        20
23.730        33
23.740        27
23.750        53
23.760        47
23.770        33
23.780        40
23.790        13
23.800        40
23.810        40
23.820        33
23.830        40
23.840        33
23.850        47
23.860        33
23.870        47
23.880        40
23.890        33
23.900        33
23.910        47
23.920        60
23.930        27
23.940        40
23.950        60
23.960        40
23.970        33
23.980        33
23.990        40
24.000        33
24.010        53
24.020        27
24.030        20
24.040        20
24.050        20
24.060        13
24.070        20
24.080        67
24.090        40
24.100        27
24.110        13
24.120        27
24.130        47
24.140        53
24.150        27
24.160        20
24.170        53
24.180         7
24.190        40
24.200         7
24.210        73
24.220        27
24.230        47
24.240        40
24.250        47
24.260        13
24.270        40
24.280        53
24.290        53
24.300        40
24.310        27
24.320        27
24.330        20
24.340        33
24.350        40
24.360        40
24.370        20
24.380        33
24.390        27
24.400        33
24.410        40
24.420        27
24.430        47
24.440        40
24.450        53
24.460        47
24.470        20
24.480        47
24.490        40
24.500        27
24.510        40
24.520        60
24.530        53
24.540        47
24.550        60
24.560        13
24.570        27
24.580        20
24.590        13
24.600        27
24.610        60
24.620        53
24.630        40
24.640        13
24.650        53
24.660        20
24.670         7
24.680         7
24.690        60
24.700        73
24.710        47
24.720        27
24.730        80
24.740        20
24.750        27
24.760        33
24.770        13
24.780        27
24.790        33
24.800        27
24.810        53
24.820        60
24.830        53
24.840        47
24.850       100
24.860        53
24.870        60
24.880        33
24.890        53
24.900        53
24.910        20
24.920        20
24.930        40
24.940        47
24.950        40
24.960        27
24.970        53
24.980        20
24.990        27
25.000        13
25.010        53
25.020         7
25.030        47
25.040        53
25.050        40
25.060        47
25.070        53
25.080        47
25.090        40
25.100        60
25.110        87
25.120        53
25.130        40
25.140        27
25.150        47
25.160        33
25.170        13
25.180        40
25.190        40
25.200         7
25.210        33
25.220        47
25.230        47
25.240        47
25.250        47
25.260        47
25.270        47
25.280        60
25.290        47
25.300        47
25.310        47
25.320        53
25.330        33
25.340        13
25.350        27
25.360        67
25.370        33
25.380        47
25.390        40
25.400        53
25.410        27
25.420        40
25.430        27
25.440        47
25.450        53
25.460        60
25.470        60
25.480        60
25.490        47
25.500       100
25.510       100
25.520        73
25.530        80
25.540        67
25.550       140
25.560       107
25.570       140
25.580       173
25.590       367
25.600       240
25.610       327
25.620       173
25.630       240
25.640       167
25.650       187
25.660       227
25.670       167
25.680       120
25.690       107
25.700        80
25.710       100
25.720        60
25.730        73
25.740        33
25.750        67
25.760        60
25.770        27
25.780        60
25.790        27
25.800        13
25.810        20
25.820        20
25.830        27
25.840        13
25.850        93
25.860        33
25.870        53
25.880        13
25.890        47
25.900        40
25.910        27
25.920        27
25.930        33
25.940        53
25.950        40
25.960        20
25.970        40
25.980        20
25.990        40
26.000        47
26.010        60
26.020        13
26.030        53
26.040        40
26.050        20
26.060        20
26.070        20
26.080        33
26.090        20
26.100        47
26.110        33
26.120        53
26.130        20
26.140        67
26.150        60
26.160        20
26.170        40
26.180        20
26.190        33
26.200        53
26.210        27
26.220        40
26.230        60
26.240        27
26.250        27
26.260        27
26.270        33
26.280        20
26.290        47
26.300        27
26.310        40
26.320        40
26.330        53
26.340        27
26.350         7
26.360        33
26.370        33
26.380        33
26.390        60
26.400        47
26.410        20
26.420        33
26.430        33
26.440        60
26.450        20
26.460        47
26.470        53
26.480        40
26.490        27
26.500        27
26.510        47
26.520        27
26.530        47
26.540        47
26.550        13
26.560        40
26.570        67
26.580        40
26.590        20
26.600        27
26.610        33
26.620        60
26.630        27
26.640         7
26.650         7
26.660        40
26.670        73
26.680        40
26.690        20
26.700        47
26.710        13
26.720        20
26.730        27
26.740        33
26.750        20
26.760        33
26.770        20
26.780        27
26.790        47
26.800        40
26.810        33
26.820        27
26.830        53
26.840        27
26.850        47
26.860        40
26.870        27
26.880        20
26.890        27
26.900        40
26.910        33
26.920        40
26.930        47
26.940        20
26.950        67
26.960        20
26.970        33
26.980        13
26.990        60
27.000        40
27.010        47
27.020         7
27.030        13
27.040        33
27.050        67
27.060         0
27.070        33
27.080        20
27.090        53
27.100        40
27.110        27
27.120        33
27.130        13
27.140        33
27.150        13
27.160        33
27.170        40
27.180        33
27.190        33
27.200        33
27.210        33
27.220        40
27.230        13
27.240        27
27.250        13
27.260        40
27.270        47
27.280        20
27.290        20
27.300        20
27.310        60
27.320        33
27.330        40
27.340        33
27.350        33
27.360        33
27.370        53
27.380        20
27.390        13
27.400        20
27.410        60
27.420        47
27.430         0
27.440        13
27.450        13
27.460        20
27.470        33
27.480         7
27.490        47
27.500        27
27.510        27
27.520        33
27.530        27
27.540        33
27.550        27
27.560        40
27.570        40
27.580        40
27.590        47
27.600        13
27.610        20
27.620        13
27.630        20
27.640        27
27.650        53
27.660        33
27.670        40
27.680        27
27.690        27
27.700        40
27.710        53
27.720        40
27.730        13
27.740        13
27.750        33
27.760        27
27.770        53
27.780        27
27.790        40
27.800        13
27.810        13
27.820        20
27.830        13
27.840        27
27.850        20
27.860        20
27.870        47
27.880        47
27.890        40
27.900        47
27.910        47
27.920         7
27.930        13
27.940        47
27.950        33
27.960        60
27.970        13
27.980        13
27.990        33
28.000        33
28.010         0
28.020        20
28.030        40
28.040        40
28.050        20
28.060        20
28.070        20
28.080        33
28.090        27
28.100        20
28.110        13
28.120        40
28.130        27
28.140        27
28.150        27
28.160        33
28.170        60
28.180        20
28.190         7
28.200        20
28.210        47
28.220        13
28.230        20
28.240        33
28.250        27
28.260        33
28.270        47
28.280        40
28.290        33
28.300        27
28.310        33
28.320        20
28.330        20
28.340        20
28.350        20
28.360        27
28.370        47
28.380        27
28.390        20
28.400         7
28.410         7
28.420        33
28.430        27
28.440        40
28.450        40
28.460        47
28.470        33
28.480         0
28.490        47
28.500        33
28.510        47
28.520        27
28.530        13
28.540        40
28.550        47
28.560        67
28.570        13
28.580        33
28.590        13
28.600        20
28.610        47
28.620        20
28.630        20
28.640        33
28.650        13
28.660        20
28.670        40
28.680        40
28.690        20
28.700        40
28.710        40
28.720        33
28.730        27
28.740        20
28.750        27
28.760        33
28.770        20
28.780        40
28.790        20
28.800        60
28.810        27
28.820        40
28.830        40
28.840        27
28.850        20
28.860        40
28.870        47
28.880         7
28.890        53
28.900        13
28.910        33
28.920        27
28.930        47
28.940        20
28.950        20
28.960        40
28.970        40
28.980        33
28.990        33
29.000        73
29.010        47
29.020        20
29.030        40
29.040        40
29.050        33
29.060        27
29.070        33
29.080         7
29.090        47
29.100        40
29.110        40
29.120        33
29.130        47
29.140        33
29.150        33
29.160         0
29.170        33
29.180        40
29.190        33
29.200        27
29.210        13
29.220        20
29.230        27
29.240        13
29.250        13
29.260        33
29.270         0
29.280        53
29.290        13
29.300        20
29.310        47
29.320        33
29.330        20
29.340        47
29.350        33
29.360        53
29.370        33
29.380        20
29.390        53
29.400        33
29.410         7
29.420        13
29.430        53
29.440         7
29.450        20
29.460        13
29.470        33
29.480        40
29.490        27
29.500        40
29.510         7
29.520         0
29.530        40
29.540        20
29.550        13
29.560        13
29.570        60
29.580        27
29.590        20
29.600        33
29.610         0
29.620        20
29.630        13
29.640        40
29.650        47
29.660        27
29.670        27
29.680        27
29.690        27
29.700        20
29.710        20
29.720        33
29.730        20
29.740        20
29.750        40
29.760        20
29.770        20
29.780        13
29.790        27
29.800        20
29.810        27
29.820        20
29.830        40
29.840        40
29.850        33
29.860        67
29.870        33
29.880        67
29.890        27
29.900        40
29.910        40
29.920        40
29.930        27
29.940        20
29.950        20
29.960        20
29.970         7
29.980        27
29.990        27
30.000        33
30.010        20
30.020         7
30.030        27
30.040        27
30.050        33
30.060        33
30.070        67
30.080        33
30.090        33
30.100        27
30.110         7
30.120        27
30.130        27
30.140        27
30.150        40
30.160        40
30.170        13
30.180        20
30.190        27
30.200        13
30.210        47
30.220        40
30.230        33
30.240        40
30.250        67
30.260        27
30.270        33
30.280        47
30.290        40
30.300        33
30.310        20
30.320        47
30.330        40
30.340        20
30.350        20
30.360        40
30.370         7
30.380         7
30.390        47
30.400        33
30.410        27
30.420        27
30.430        20
30.440        40
30.450        40
30.460        27
30.470        40
30.480        20
30.490        27
30.500        40
30.510        20
30.520        33
30.530        13
30.540        47
30.550        60
30.560        40
30.570        20
30.580        67
30.590        20
30.600        27
30.610        27
30.620        47
30.630        27
30.640        27
30.650        27
30.660        13
30.670        27
30.680        27
30.690        20
30.700        40
30.710        13
30.720        27
30.730        27
30.740        27
30.750        53
30.760        20
30.770        27
30.780        27
30.790        13
30.800        27
30.810        67
30.820         7
30.830        27
30.840        20
30.850         0
30.860        20
30.870        33
30.880        27
30.890        53
30.900        33
30.910        13
30.920        33
30.930        47
30.940        20
30.950        40
30.960        13
30.970        27
30.980        20
30.990        13
31.000        47
31.010        13
31.020        20
31.030        20
31.040        27
31.050        40
31.060        60
31.070        47
31.080        20
31.090        27
31.100        20
31.110        47
31.120        20
31.130        53
31.140        20
31.150        27
31.160        20
31.170        53
31.180        33
31.190        13
31.200        27
31.210        53
31.220        20
31.230        27
31.240        20
31.250        33
31.260        53
31.270        27
31.280        33
31.290         0
31.300        27
31.310        60
31.320        47
31.330        40
31.340        13
31.350        13
31.360        47
31.370        33
31.380        53
31.390        33
31.400        47
31.410        40
31.420        13
31.430        33
31.440        60
31.450        27
31.460        33
31.470        60
31.480        33
31.490        40
31.500        40
31.510        20
31.520        40
31.530        27
31.540        27
31.550        33
31.560        60
31.570        60
31.580        20
31.590        40
31.600        33
31.610        40
31.620        60
31.630        53
31.640        47
31.650        40
31.660         7
31.670        47
31.680        67
31.690        47
31.700        47
31.710        73
31.720        67
31.730       100
31.740        93
31.750        73
31.760        60
31.770        60
31.780        13
31.790        87
31.800        73
31.810        67
31.820       107
31.830        53
31.840       133
31.850        40
31.860        93
31.870       100
31.880        93
31.890        87
31.900        87
31.910        73
31.920        67
31.930        87
31.940        67
31.950        73
31.960        40
31.970       107
31.980       120
31.990        67
32.000        93
32.010        93
32.020       120
32.030        67
32.040        47
32.050        73
32.060        67
32.070       100
32.080       120
32.090        67
32.100        87
32.110       107
32.120        60
32.130       120
32.140        80
32.150        47
32.160       107
32.170        80
32.180        73
32.190        67
32.200        60
32.210        47
32.220        47
32.230        60
32.240        60
32.250        93
32.260        27
32.270        73
32.280        80
32.290        73
32.300        87
32.310        53
32.320        53
32.330       107
32.340        67
32.350        87
32.360        47
32.370        40
32.380        40
32.390        53
32.400        60
32.410        20
32.420        33
32.430        93
32.440        67
32.450        53
32.460        53
32.470        47
32.480        53
32.490        33
32.500        33
32.510        47
32.520        53
32.530        20
32.540        93
32.550        20
32.560        27
32.570        33
32.580        40
32.590        47
32.600        47
32.610        27
32.620        27
32.630        33
32.640        33
32.650        13
32.660        27
32.670        20
32.680        27
32.690        27
32.700        33
32.710        40
32.720         7
32.730        47
32.740        53
32.750        27
32.760        20
32.770        40
32.780        33
32.790        40
32.800        33
32.810        20
32.820        33
32.830        27
32.840        47
32.850        13
32.860        67
32.870        40
32.880         7
32.890        33
32.900        13
32.910        27
32.920        27
32.930        13
32.940        20
32.950         0
32.960        40
32.970        20
32.980        20
32.990        27
33.000         7
33.010        20
33.020        27
33.030        20
33.040        40
33.050        33
33.060        27
33.070         7
33.080        47
33.090        20
33.100        27
33.110        47
33.120        33
33.130        20
33.140        27
33.150        40
33.160        53
33.170        27
33.180        13
33.190        27
33.200        27
33.210        20
33.220        33
33.230        27
33.240        20
33.250        27
33.260        27
33.270        27
33.280        20
33.290        13
33.300         7
33.310        13
33.320        53
33.330        20
33.340        40
33.350        13
33.360        20
33.370        20
33.380        33
33.390        20
33.400        13
33.410         0
33.420        33
33.430        27
33.440        13
33.450        13
33.460        27
33.470        20
33.480        40
33.490        60
33.500        20
33.510        60
33.520        40
33.530        20
33.540        33
33.550        13
33.560         7
33.570        27
33.580        40
33.590        13
33.600        27
33.610        27
33.620        40
33.630        33
33.640        40
33.650        33
33.660        27
33.670        33
33.680        13
33.690        40
33.700        20
33.710        13
33.720        47
33.730        53
33.740        33
33.750        27
33.760         7
33.770        27
33.780        27
33.790        40
33.800        33
33.810        13
33.820        13
33.830        13
33.840        33
33.850        20
33.860        20
33.870        40
33.880        40
33.890        53
33.900         7
33.910        13
33.920        27
33.930        13
33.940         7
33.950        33
33.960        20
33.970        13
33.980        20
33.990        47
34.000        33
34.010        40
34.020        20
34.030        27
34.040        13
34.050         7
34.060        13
34.070        20
34.080        20
34.090        20
34.100        67
34.110        33
34.120        40
34.130        33
34.140         7
34.150        27
34.160        27
34.170        27
34.180        13
34.190        20
34.200        13
34.210        33
34.220        47
34.230        13
34.240        27
34.250         0
34.260         7
34.270        20
34.280        13
34.290        20
34.300        40
34.310        20
34.320        13
34.330        47
34.340        27
34.350        27
34.360        20
34.370        40
34.380        13
34.390        27
34.400        20
34.410        27
34.420        27
34.430        40
34.440        27
34.450        13
34.460        20
34.470        27
34.480        40
34.490        33
34.500        20
34.510        20
34.520        13
34.530        13
34.540         0
34.550        13
34.560        40
34.570        20
34.580         7
34.590        60
34.600        13
34.610         7
34.620        40
34.630         7
34.640        27
34.650        20
34.660        53
34.670        20
34.680        53
34.690        27
34.700        13
34.710        40
34.720        27
34.730        53
34.740        20
34.750        27
34.760        13
34.770        20
34.780        33
34.790        27
34.800        33
34.810        33
34.820        20
34.830        20
34.840        27
34.850        33
34.860        47
34.870        33
34.880        13
34.890        47
34.900        40
34.910        20
34.920        40
34.930        53
34.940        40
34.950        73
34.960        67
34.970        73
34.980        80
34.990        33
35.000       100
35.010        33
35.020       107
35.030        60
35.040        93
35.050        47
35.060        87
35.070        87
35.080       120
35.090       140
35.100        80
35.110       100
35.120       160
35.130       140
35.140       180
35.150       233
35.160       193
35.170       173
35.180       253
35.190       193
35.200       227
35.210       140
35.220       160
35.230       147
35.240       147
35.250       160
35.260       173
35.270        93
35.280       147
35.290       133
35.300       160
35.310        67
35.320        80
35.330        53
35.340        33
35.350        33
35.360        27
35.370        20
35.380        27
35.390        67
35.400        20
35.410        60
35.420        40
35.430        13
35.440        53
35.450        40
35.460        27
35.470        13
35.480        33
35.490        20
35.500        20
35.510        20
35.520        27
35.530        20
35.540        40
35.550        27
35.560        20
35.570        40
35.580         7
35.590        20
35.600        13
35.610        20
35.620        27
35.630        20
35.640        13
35.650        13
35.660        13
35.670        13
35.680        20
35.690         7
35.700        20
35.710        13
35.720        20
35.730        27
35.740        20
35.750         7
35.760        40
35.770        27
35.780         0
35.790        33
35.800         0
35.810        13
35.820        40
35.830        53
35.840        27
35.850         7
35.860        33
35.870        20
35.880        40
35.890        27
35.900         7
35.910        20
35.920        33
35.930         7
35.940        13
35.950        33
35.960        27
35.970        27
35.980        47
35.990        40
36.000        20
36.010        27
36.020        33
36.030        27
36.040        53
36.050        13
36.060        40
36.070        33
36.080        20
36.090        60
36.100        13
36.110        27
36.120         7
36.130         7
36.140        27
36.150         7
36.160        13
36.170        13
36.180        27
36.190        47
36.200        40
36.210        20
36.220        40
36.230        27
36.240        27
36.250        53
36.260        13
36.270        20
36.280        33
36.290        13
36.300        33
36.310         0
36.320        27
36.330        53
36.340        27
36.350        33
36.360        40
36.370        20
36.380         7
36.390        13
36.400        53
36.410        13
36.420        20
36.430        27
36.440        33
36.450        20
36.460        27
36.470        20
36.480        20
36.490        27
36.500        27
36.510        53
36.520        27
36.530        20
36.540        27
36.550        20
36.560         0
36.570         0
36.580        13
36.590        33
36.600        20
36.610        40
36.620        33
36.630        27
36.640        20
36.650        20
36.660        27
36.670        20
36.680        20
36.690        13
36.700        13
36.710         7
36.720        13
36.730        20
36.740        27
36.750         0
36.760        53
36.770         7
36.780        20
36.790        27
36.800        33
36.810        33
36.820        27
36.830        27
36.840        20
36.850        47
36.860         7
36.870        40
36.880         7
36.890        27
36.900         7
36.910        47
36.920        27
36.930        47
36.940        27
36.950        47
36.960        40
36.970        20
36.980        33
36.990        27
37.000         0
37.010        20
37.020        40
37.030        20
37.040        20
37.050        13
37.060        40
37.070        33
37.080        33
37.090        33
37.100        27
37.110        27
37.120        33
37.130        13
37.140        40
37.150         7
37.160        33
37.170        27
37.180        27
37.190        27
37.200        33
37.210         7
37.220        27
37.230        47
37.240         7
37.250        27
37.260        20
37.270        40
37.280        13
37.290        40
37.300        13
37.310        13
37.320         7
37.330        27
37.340        40
37.350        20
37.360        27
37.370        13
37.380        13
37.390        13
37.400        13
37.410        33
37.420        20
37.430        33
37.440        13
37.450        33
37.460         7
37.470        20
37.480        47
37.490         7
37.500        13
37.510        20
37.520        53
37.530        33
37.540        27
37.550        27
37.560        13
37.570        20
37.580        33
37.590        33
37.600        27
37.610        40
37.620        13
37.630        33
37.640         0
37.650        13
37.660         7
37.670        40
37.680        27
37.690        47
37.700        47
37.710        40
37.720        20
37.730        60
37.740        60
37.750        40
37.760        47
37.770        67
37.780        67
37.790        87
37.800        27
37.810        80
37.820        47
37.830        40
37.840        40
37.850        13
37.860        47
37.870        27
37.880        33
37.890        33
37.900        73
37.910        53
37.920        40
37.930        27
37.940        47
37.950        47
37.960        53
37.970        20
37.980         7
37.990         7
38.000        33
38.010        27
38.020        40
38.030        27
38.040         7
38.050        13
38.060        33
38.070        27
38.080        27
38.090        20
38.100        20
38.110        27
38.120        13
38.130        47
38.140        40
38.150        13
38.160        20
38.170        27
38.180        33
38.190        13
38.200         0
38.210        20
38.220        20
38.230         0
38.240        20
38.250        13
38.260         0
38.270        13
38.280        40
38.290        20
38.300        33
38.310        20
38.320         7
38.330        33
38.340        33
38.350        53
38.360        27
38.370        40
38.380        13
38.390        33
38.400        20
38.410        27
38.420        27
38.430        13
38.440        33
38.450        27
38.460         7
38.470         7
38.480        20
38.490         7
38.500        33
38.510        40
38.520        33
38.530         0
38.540         7
38.550         7
38.560        13
38.570        20
38.580        13
38.590        27
38.600        20
38.610        20
38.620        47
38.630        13
38.640        20
38.650        20
38.660        13
38.670        20
38.680        40
38.690        27
38.700        13
38.710        40
38.720        33
38.730        13
38.740         7
38.750        13
38.760         7
38.770        13
38.780        40
38.790        33
38.800        20
38.810        27
38.820         7
38.830        20
38.840        20
38.850        13
38.860        13
38.870        27
38.880        20
38.890         7
38.900        13
38.910        27
38.920        20
38.930        20
38.940        20
38.950         7
38.960        27
38.970         7
38.980        33
38.990        20
39.000         7
39.010         7
39.020        13
39.030        13
39.040        20
39.050        13
39.060        53
39.070        27
39.080         7
39.090        20
39.100        40
39.110         7
39.120        27
39.130        20
39.140        33
39.150        27
39.160        20
39.170        20
39.180        40
39.190         7
39.200        27
39.210        13
39.220        33
39.230         7
39.240        13
39.250         7
39.260        13
39.270        13
39.280        33
39.290        47
39.300         7
39.310        20
39.320        20
39.330        27
39.340        13
39.350        20
39.360        20
39.370        27
39.380        13
39.390         7
39.400         7
39.410        13
39.420        40
39.430        13
39.440        27
39.450        13
39.460        20
39.470        33
39.480         7
39.490        53
39.500        33
39.510        27
39.520        53
39.530        13
39.540        20
39.550        20
39.560        47
39.570         7
39.580        20
39.590        20
39.600        33
39.610        33
39.620        20
39.630        20
39.640        27
39.650        20
39.660        20
39.670        27
39.680        27
39.690        13
39.700        40
39.710        20
39.720        20
39.730        20
39.740        40
39.750        13
39.760         7
39.770         7
39.780        20
39.790        13
39.800        27
39.810        33
39.820        53
39.830         7
39.840        33
39.850        33
39.860        20
39.870        13
39.880        33
39.890        33
39.900        13
39.910        13
39.920        20
39.930        20
39.940        20
39.950        27
39.960         7
39.970        47
39.980        40
39.990         7
40.000        20
40.010        47
40.020        20
40.030        27
40.040        13
40.050        20
40.060         7
40.070        13
40.080        27
40.090        27
40.100         0
40.110        27
40.120        13
40.130        20
40.140         7
40.150        33
40.160        13
40.170        13
40.180        33
40.190        20
40.200         7
40.210        27
40.220        13
40.230         7
40.240        20
40.250        20
40.260        33
40.270         7
40.280        20
40.290         7
40.300        33
40.310         7
40.320        13
40.330        40
40.340         7
40.350        20
40.360        13
40.370        27
40.380        47
40.390        20
40.400        27
40.410        20
40.420        27
40.430        27
40.440        27
40.450         0
40.460         7
40.470        27
40.480        20
40.490        20
40.500        40
40.510         0
40.520        13
40.530        27
40.540        13
40.550        27
40.560        27
40.570        40
40.580        27
40.590        40
40.600         7
40.610        33
40.620         7
40.630        13
40.640        33
40.650        13
40.660        20
40.670         7
40.680         0
40.690         0
40.700        40
40.710        20
40.720        27
40.730        20
40.740        20
40.750         7
40.760        20
40.770        20
40.780        20
40.790        40
40.800        20
40.810        20
40.820        27
40.830        13
40.840         7
40.850         7
40.860        13
40.870        20
40.880        27
40.890        13
40.900        13
40.910        33
40.920        27
40.930        47
40.940        20
40.950        13
40.960        13
40.970        27
40.980         7
40.990        33
41.000         0
41.010        27
41.020        53
41.030         7
41.040         0
41.050        20
41.060         7
41.070        20
41.080        13
41.090        13
41.100        33
41.110        27
41.120         7
41.130        20
41.140        40
41.150        27
41.160         7
41.170        40
41.180        27
41.190        27
41.200        27
41.210        20
41.220         7
41.230        33
41.240        20
41.250        13
41.260        20
41.270         7
41.280        13
41.290        20
41.300        20
41.310         0
41.320        13
41.330         7
41.340        40
41.350        13
41.360        27
41.370        13
41.380        20
41.390        20
41.400        27
41.410        20
41.420        27
41.430        20
41.440        13
41.450        27
41.460        27
41.470        47
41.480        13
41.490        27
41.500        20
41.510        47
41.520        33
41.530        33
41.540        33
41.550        47
41.560        27
41.570        27
41.580        33
41.590        40
41.600        53
41.610        93
41.620        33
41.630        53
41.640        53
41.650       100
41.660       113
41.670       107
41.680       127
41.690       200
41.700       173
41.710       233
41.720       227
41.730       233
41.740       287
41.750       187
41.760       140
41.770       120
41.780       147
41.790       140
41.800       107
41.810        93
41.820       107
41.830       140
41.840       127
41.850       100
41.860       120
41.870        40
41.880        60
41.890        73
41.900        20
41.910        33
41.920        20
41.930        40
41.940        20
41.950        40
41.960         7
41.970        13
41.980        27
41.990        33
42.000        13
42.010        27
42.020        20
42.030        33
42.040        27
42.050        20
42.060        20
42.070        13
42.080        20
42.090         7
42.100        13
42.110        20
42.120        20
42.130        20
42.140        20
42.150        13
42.160        13
42.170        33
42.180        27
42.190        20
42.200        33
42.210        13
42.220        40
42.230        13
42.240        13
42.250         7
42.260        40
42.270         7
42.280        33
42.290        27
42.300        20
42.310        20
42.320        20
42.330        20
42.340         0
42.350        13
42.360        13
42.370         0
42.380        33
42.390        20
42.400         0
42.410         0
42.420         7
42.430        13
42.440        27
42.450        40
42.460         0
42.470        13
42.480        13
42.490        40
42.500        13
42.510         7
42.520        13
42.530        27
42.540        47
42.550         7
42.560        33
42.570        27
42.580        20
42.590        13
42.600        20
42.610        13
42.620        27
42.630        20
42.640        27
42.650        13
42.660        13
42.670        13
42.680        13
42.690        13
42.700        20
42.710        27
42.720        40
42.730        13
42.740         7
42.750        27
42.760         7
42.770        47
42.780        27
42.790        13
42.800        13
42.810        60
42.820         7
42.830         7
42.840         7
42.850         0
42.860        20
42.870        27
42.880        20
42.890        40
42.900        13
42.910        20
42.920        27
42.930        13
42.940        27
42.950        13
42.960         7
42.970        13
42.980         7
42.990        13
43.000         0
43.010        20
43.020        13
43.030        33
43.040        13
43.050        13
43.060        13
43.070        20
43.080        53
43.090        40
43.100         7
43.110        13
43.120        13
43.130        33
43.140        20
43.150        13
43.160        13
43.170         7
43.180        47
43.190        13
43.200        33
43.210        47
43.220        67
43.230        33
43.240        40
43.250        33
43.260        47
43.270        73
43.280        47
43.290        40
43.300        73
43.310        80
43.320        53
43.330        80
43.340        73
43.350       120
43.360        93
43.370       120
43.380       147
43.390       167
43.400       200
43.410       207
43.420       173
43.430       200
43.440       207
43.450       160
43.460       127
43.470        87
43.480        87
43.490       100
43.500        80
43.510        87
43.520       107
43.530        80
43.540        87
43.550        87
43.560        67
43.570        53
43.580        67
43.590        40
43.600        53
43.610         0
43.620        33
43.630        33
43.640        20
43.650        13
43.660        40
43.670         7
43.680        40
43.690        33
43.700        27
43.710        33
43.720        13
43.730        13
43.740        20
43.750        40
43.760        20
43.770        27
43.780        13
43.790        20
43.800        33
43.810        20
43.820        27
43.830        27
43.840        13
43.850        13
43.860         7
43.870        13
43.880        33
43.890        40
43.900        13
43.910        20
43.920         7
43.930        13
43.940        27
43.950        40
43.960         7
43.970        13
43.980        33
43.990        13
44.000        27
44.010        20
44.020         7
44.030         7
44.040         0
44.050        53
44.060        20
44.070        27
44.080        13
44.090        47
44.100        13
44.110         0
44.120        13
44.130        33
44.140        40
44.150         0
44.160        20
44.170        20
44.180        13
44.190        13
44.200        13
44.210        47
44.220         7
44.230        20
44.240        20
44.250        53
44.260        13
44.270        13
44.280        13
44.290        20
44.300        13
44.310        13
44.320        40
44.330        20
44.340        47
44.350        27
44.360         7
44.370         0
44.380        40
44.390        13
44.400        27
44.410        33
44.420        20
44.430        13
44.440        40
44.450        27
44.460        13
44.470        20
44.480        33
44.490        20
44.500        20
44.510        40
44.520        40
44.530        33
44.540        40
44.550        27
44.560        27
44.570        33
44.580        33
44.590        47
44.600        33
44.610        33
44.620        20
44.630        20
44.640        13
44.650        13
44.660        27
44.670        33
44.680        40
44.690        40
44.700        60
44.710        20
44.720        20
44.730        60
44.740        27
44.750        47
44.760        20
44.770        27
44.780         7
44.790        53
44.800        33
44.810        20
44.820        47
44.830        13
44.840        13
44.850        33
44.860        47
44.870        40
44.880        67
44.890        33
44.900        13
44.910        33
44.920        27
44.930        33
44.940        33
44.950        60
44.960        40
44.970        47
44.980        40
44.990        53
45.000        33
45.010        60
45.020        67
45.030        20
45.040        33
45.050        33
45.060        27
45.070        67
45.080        47
45.090        60
45.100        60
45.110        40
45.120        60
45.130        47
45.140        60
45.150        80
45.160        60
45.170        27
45.180        47
45.190        40
45.200        27
45.210        40
45.220        67
45.230        93
45.240        40
45.250        47
45.260       113
45.270        80
45.280        60
45.290        47
45.300        47
45.310        47
45.320        67
45.330        40
45.340        40
45.350        60
45.360        60
45.370        67
45.380        80
45.390        60
45.400        47
45.410        73
45.420        67
45.430        67
45.440        87
45.450        47
45.460        60
45.470        67
45.480        73
45.490        47
45.500        27
45.510        20
45.520        53
45.530        40
45.540        27
45.550        80
45.560        47
45.570        40
45.580        67
45.590        53
45.600        60
45.610        73
45.620        27
45.630        33
45.640        40
45.650        93
45.660        40
45.670        33
45.680        47
45.690        67
45.700        60
45.710        60
45.720        60
45.730        80
45.740        67
45.750        40
45.760        53
45.770        80
45.780        53
45.790        27
45.800        60
45.810        73
45.820        53
45.830        53
45.840        73
45.850        67
45.860        47
45.870        53
45.880        53
45.890        40
45.900        80
45.910        33
45.920        87
45.930        53
45.940        33
45.950        27
45.960        33
45.970        40
45.980        47
45.990        33
46.000        53
46.010        40
46.020        60
46.030        67
46.040        47
46.050        60
46.060        47
46.070        67
46.080        47
46.090        47
46.100        40
46.110        40
46.120        27
46.130        67
46.140        47
46.150        40
46.160        53
46.170        40
46.180        53
46.190        33
46.200        27
46.210        27
46.220        20
46.230        33
46.240        33
46.250        60
46.260        27
46.270        20
46.280        67
46.290        20
46.300        33
46.310        73
46.320        47
46.330        40
46.340        27
46.350         7
46.360        27
46.370        33
46.380        27
46.390        33
46.400        40
46.410        40
46.420        33
46.430        40
46.440        20
46.450        33
46.460        40
46.470        20
46.480        53
46.490        13
46.500        20
46.510        47
46.520        13
46.530        20
46.540        33
46.550        27
46.560         7
46.570        20
46.580        40
46.590        20
46.600        20
46.610        47
46.620        13
46.630        13
46.640        67
46.650        20
46.660        27
46.670        40
46.680        67
46.690        27
46.700        33
46.710        20
46.720        20
46.730        20
46.740         0
46.750        20
46.760        27
46.770        20
46.780        13
46.790        13
46.800        40
46.810        33
46.820        27
46.830        20
46.840        40
46.850        47
46.860        27
46.870        13
46.880        27
46.890        27
46.900        20
46.910        27
46.920        20
46.930        40
46.940        13
46.950        67
46.960        20
46.970        27
46.980        33
46.990        13
47.000         7
47.010        13
47.020         7
47.030        27
47.040        53
47.050         7
47.060        20
47.070         7
47.080        20
47.090         7
47.100        20
47.110        40
47.120        13
47.130        20
47.140        53
47.150        20
47.160        27
47.170         7
47.180        13
47.190         0
47.200        47
47.210        20
47.220         7
47.230        33
47.240        27
47.250        13
47.260         7
47.270        20
47.280        27
47.290        20
47.300        13
47.310         0
47.320        47
47.330         7
47.340        20
47.350        20
47.360         0
47.370        13
47.380         7
47.390        20
47.400        27
47.410        13
47.420        27
47.430         0
47.440        20
47.450        20
47.460        13
47.470        20
47.480         7
47.490        20
47.500        20
47.510        13
47.520        40
47.530        20
47.540         7
47.550        33
47.560         7
47.570        27
47.580        20
47.590        27
47.600        13
47.610        33
47.620        20
47.630        40
47.640        27
47.650        27
47.660         7
47.670         7
47.680        47
47.690        27
47.700        13
47.710         7
47.720        33
47.730         0
47.740         0
47.750        27
47.760         7
47.770        13
47.780        33
47.790        27
47.800        20
47.810        13
47.820        33
47.830        27
47.840        20
47.850        20
47.860        27
47.870        20
47.880        33
47.890         0
47.900        20
47.910        20
47.920         7
47.930        13
47.940        33
47.950        27
47.960         7
47.970        20
47.980        13
47.990         7
48.000        13
48.010        20
48.020         7
48.030        20
48.040        20
48.050        20
48.060         0
48.070         7
48.080         7
48.090        20
48.100        13
48.110         7
48.120        13
48.130        13
48.140        33
48.150        33
48.160        20
48.170        27
48.180         7
48.190        13
48.200         0
48.210         7
48.220        20
48.230        27
48.240        13
48.250         7
48.260        13
48.270        27
48.280        20
48.290        13
48.300         0
48.310         7
48.320         7
48.330        27
48.340         7
48.350         7
48.360         7
48.370         7
48.380         7
48.390        13
48.400        13
48.410        13
48.420        20
48.430        20
48.440         7
48.450        27
48.460        13
48.470        40
48.480        33
48.490        13
48.500         7
48.510        20
48.520        13
48.530         7
48.540        20
48.550        27
48.560         0
48.570         7
48.580        13
48.590         7
48.600         7
48.610         7
48.620        13
48.630         0
48.640        27
48.650         0
48.660         7
48.670        27
48.680         7
48.690         7
48.700        13
48.710        13
48.720         0
48.730        33
48.740         7
48.750        20
48.760        27
48.770        13
48.780        27
48.790         7
48.800        27
48.810         0
48.820        13
48.830        13
48.840        13
48.850         7
48.860         0
48.870        20
48.880        33
48.890        20
48.900         7
48.910         7
48.920        13
48.930        13
48.940        13
48.950         7
48.960        13
48.970         7
48.980         7
48.990        33
49.000         0
49.010         7
49.020        13
49.030        13
49.040        20
49.050        20
49.060        33
49.070        13
49.080        13
49.090        20
49.100        13
49.110        13
49.120        13
49.130        13
49.140        20
49.150        33
49.160         0
49.170        20
49.180         7
49.190        13
49.200         0
49.210         0
49.220        13
49.230        13
49.240        33
49.250        13
49.260         7
49.270        33
49.280        27
49.290         0
49.300        20
49.310        20
49.320        13
49.330        13
49.340         7
49.350         7
49.360        13
49.370        40
49.380         7
49.390        13
49.400         7
49.410        27
49.420        20
49.430        20
49.440        13
49.450        27
49.460        20
49.470        20
49.480         7
49.490        13
49.500        13
49.510        13
49.520         0
49.530         7
49.540        20
49.550        20
49.560         7
49.570         7
49.580         7
49.590         7
49.600         7
49.610        20
49.620        27
49.630         0
49.640        20
49.650         7
49.660        13
49.670        13
49.680        13
49.690        20
49.700        20
49.710        13
49.720         7
49.730        13
49.740         0
49.750         0
49.760        20
49.770        27
49.780        27
49.790        13
49.800        13
49.810        27
49.820        20
49.830        13
49.840         7
49.850        13
49.860         0
49.870        27
49.880         7
49.890         0
49.900        27
49.910        13
49.920        13
49.930        27
49.940         0
49.950        13
49.960        20
49.970        13
49.980        53
49.990        33
50.000         0
50.010        13
50.020        20
50.030        13
50.040        13
50.050        20
50.060        27
50.070        20
50.080         7
50.090        20
50.100         7
50.110        13
50.120        20
50.130        20
50.140         7
50.150         0
50.160        13
50.170         0
50.180        13
50.190         7
50.200        33
50.210        20
50.220        13
50.230        13
50.240         7
50.250        13
50.260        27
50.270        20
50.280        33
50.290        20
50.300        27
50.310        27
50.320        13
50.330         7
50.340        20
50.350         0
50.360        20
50.370         0
50.380         7
50.390        13
50.400         7
50.410        20
50.420        20
50.430        27
50.440         7
50.450        20
50.460        13
50.470        13
50.480        33
50.490         7
50.500         7
50.510        20
50.520        33
50.530        47
50.540         7
50.550        13
50.560         7
50.570         7
50.580        13
50.590         7
50.600         7
50.610        13
50.620        20
50.630         7
50.640        33
50.650        27
50.660         0
50.670        13
50.680        20
50.690         0
50.700        13
50.710        13
50.720        27
50.730         0
50.740        20
50.750        13
50.760        20
50.770        13
50.780         7
50.790        13
50.800        20
50.810         0
50.820         7
50.830         7
50.840        20
50.850        20
50.860        20
50.870        20
50.880        13
50.890        13
50.900        20
50.910        20
50.920        13
50.930        13
50.940         7
50.950         7
50.960        20
50.970         7
50.980        27
50.990         7
51.000        33
51.010        13
51.020        13
51.030         0
51.040        33
51.050        13
51.060        20
51.070        13
51.080        20
51.090         0
51.100         7
51.110        20
51.120        13
51.130        20
51.140        13
51.150        20
51.160        27
51.170         7
51.180        13
51.190        13
51.200         0
51.210        20
51.220        20
51.230         7
51.240         7
51.250        40
51.260         0
51.270        20
51.280        33
51.290         7
51.300        20
51.310        27
51.320        20
51.330        13
51.340         7
51.350         7
51.360        13
51.370        13
51.380        13
51.390        20
51.400        33
51.410        13
51.420        20
51.430        13
51.440        13
51.450        13
51.460        13
51.470        13
51.480        27
51.490        20
51.500        13
51.510         7
51.520         7
51.530        40
51.540        27
51.550        20
51.560        27
51.570        13
51.580        20
51.590         7
51.600        27
51.610        27
51.620        20
51.630        27
51.640        27
51.650         0
51.660         7
51.670        13
51.680         0
51.690         7
51.700        13
51.710         7
51.720         7
51.730         0
51.740        13
51.750        13
51.760         7
51.770        13
51.780        20
51.790        13
51.800        13
51.810        33
51.820        33
51.830        13
51.840        20
51.850        13
51.860         0
51.870        13
51.880        33
51.890        47
51.900         0
51.910        13
51.920        20
51.930         0
51.940        13
51.950        13
51.960         0
51.970        20
51.980        13
51.990         0
52.000         7
52.010        13
52.020        40
52.030         7
52.040        13
52.050        13
52.060        13
52.070        13
52.080        33
52.090        20
52.100        33
52.110        20
52.120        13
52.130        13
52.140         0
52.150         7
52.160         0
52.170        13
52.180        20
52.190         7
52.200        13
52.210         0
52.220        13
52.230         7
52.240        20
52.250         7
52.260         7
52.270         7
52.280        20
52.290        13
52.300        13
52.310        13
52.320         7
52.330        40
52.340        33
52.350        27
52.360        27
52.370         7
52.380        47
52.390        27
52.400        13
52.410        33
52.420        33
52.430        33
52.440        13
52.450        20
52.460        33
52.470        40
52.480        20
52.490        33
52.500         7
52.510        53
52.520        53
52.530        53
52.540        80
52.550       113
52.560       147
52.570       140
52.580       227
52.590       213
52.600       333
52.610       313
52.620       313
52.630       300
52.640       400
52.650       260
52.660       293
52.670       153
52.680       167
52.690        87
52.700       207
52.710       113
52.720       127
52.730       120
52.740       153
52.750       213
52.760       180
52.770       133
52.780       193
52.790       147
52.800       120
52.810       120
52.820        60
52.830        53
52.840        33
52.850         7
52.860        20
52.870        47
52.880         0
52.890        67
52.900         0
52.910        20
52.920        13
52.930        13
52.940         7
52.950        20
52.960         0
52.970         7
52.980        27
52.990         0
53.000        20
53.010         7
53.020        20
53.030        13
53.040        13
53.050         0
53.060        20
53.070        13
53.080        20
53.090        13
53.100         0
53.110        20
53.120        33
53.130         7
53.140        13
53.150        13
53.160        27
53.170         7
53.180        27
53.190        13
53.200        27
53.210         7
53.220        20
53.230        20
53.240        27
53.250        20
53.260         0
53.270        13
53.280         7
53.290         7
53.300         7
53.310        13
53.320        13
53.330         7
53.340        20
53.350        13
53.360         7
53.370        27
53.380        20
53.390        13
53.400         7
53.410        13
53.420         7
53.430         7
53.440         7
53.450         0
53.460         7
53.470         0
53.480         0
53.490        13
53.500        13
53.510         0
53.520         0
53.530        33
53.540        20
53.550        20
53.560         7
53.570        20
53.580        13
53.590        20
53.600        27
53.610        27
53.620        13
53.630        13
53.640        13
53.650        13
53.660        20
53.670        13
53.680         7
53.690        13
53.700        13
53.710        20
53.720         0
53.730        13
53.740        20
53.750        13
53.760        13
53.770        13
53.780        20
53.790        27
53.800         7
53.810         7
53.820         0
53.830         7
53.840         7
53.850        20
53.860        33
53.870        13
53.880        20
53.890        13
53.900         7
53.910         7
53.920         0
53.930         7
53.940         0
53.950         7
53.960        27
53.970         7
53.980        20
53.990        13
54.000         7
54.010         7
54.020        27
54.030         7
54.040        13
54.050         7
54.060        20
54.070        13
54.080        13
54.090         7
54.100         7
54.110         0
54.120         0
54.130        13
54.140        13
54.150        13
54.160         7
54.170        13
54.180        20
54.190         0
54.200         7
54.210        13
54.220        13
54.230        20
54.240        53
54.250         7
54.260        13
54.270         7
54.280         0
54.290         0
54.300        13
54.310         7
54.320         7
54.330         0
54.340        27
54.350        13
54.360        13
54.370        27
54.380        33
54.390        27
54.400         7
54.410         7
54.420        20
54.430        20
54.440         7
54.450        27
54.460         7
54.470        27
54.480         7
54.490        27
54.500        13
54.510         7
54.520        33
54.530        33
54.540         0
54.550         7
54.560        13
54.570        33
54.580         7
54.590         0
54.600        13
54.610         7
54.620         7
54.630        20
54.640         7
54.650        20
54.660         0
54.670        27
54.680        13
54.690        13
54.700         0
54.710         7
54.720         7
54.730        20
54.740         7
54.750         7
54.760         7
54.770         7
54.780         7
54.790        47
54.800        47
54.810         7
54.820         0
54.830        13
54.840         7
54.850         0
54.860        13
54.870        20
54.880        13
54.890        27
54.900        13
54.910         7
54.920        20
54.930        13
54.940         7
54.950         0
54.960         7
54.970         7
54.980        20
54.990         7
55.000         0
55.010         0
55.020        27
55.030        27
55.040         0
55.050         7
55.060        27
55.070         0
55.080        33
55.090        20
55.100         7
55.110        27
55.120         7
55.130        27
55.140        20
55.150        20
55.160         7
55.170        40
55.180        13
55.190        13
55.200        13
55.210        13
55.220         0
55.230        33
55.240        13
55.250        40
55.260        13
55.270        13
55.280         7
55.290        13
55.300         0
55.310        20
55.320         7
55.330        13
55.340        20
55.350        13
55.360         7
55.370         7
55.380        13
55.390        13
55.400        27
55.410         7
55.420        13
55.430         7
55.440        20
55.450        27
55.460        13
55.470        20
55.480        20
55.490         7
55.500        20
55.510        27
55.520        20
55.530        13
55.540        13
55.550        13
55.560         0
55.570        13
55.580         7
55.590        27
55.600        13
55.610         7
55.620         0
55.630        27
55.640        20
55.650         7
55.660        27
55.670         7
55.680        13
55.690        40
55.700         7
55.710        13
55.720        13
55.730        47
55.740        13
55.750        13
55.760        33
55.770        13
55.780        13
55.790        13
55.800        13
55.810        47
55.820         7
55.830         0
55.840         7
55.850         7
55.860         7
55.870        13
55.880        13
55.890         7
55.900        20
55.910        20
55.920        13
55.930         0
55.940        20
55.950         7
55.960         7
55.970         0
55.980        20
55.990        13
56.000        13
56.010        27
56.020         0
56.030         7
56.040         0
56.050        13
56.060         7
56.070         0
56.080         0
56.090        13
56.100         7
56.110         7
56.120        13
56.130         0
56.140         7
56.150         7
56.160        27
56.170         0
56.180        20
56.190        27
56.200        13
56.210         7
56.220         0
56.230        27
56.240        13
56.250        27
56.260        13
56.270        20
56.280         7
56.290         7
56.300        27
56.310        33
56.320        20
56.330        27
56.340        27
56.350        13
56.360        13
56.370        13
56.380        20
56.390         0
56.400         7
56.410        13
56.420         7
56.430         7
56.440        13
56.450        13
56.460        13
56.470        27
56.480         7
56.490        13
56.500         0
56.510         7
56.520        20
56.530        13
56.540         0
56.550        13
56.560        33
56.570        13
56.580        20
56.590        13
56.600        13
56.610        27
56.620        20
56.630         7
56.640        20
56.650         7
56.660         7
56.670        20
56.680        20
56.690        20
56.700        27
56.710        27
56.720        13
56.730        27
56.740         7
56.750         7
56.760        20
56.770        27
56.780        13
56.790         7
56.800        13
56.810        20
56.820        27
56.830        27
56.840        27
56.850         0
56.860         7
56.870        27
56.880        13
56.890         7
56.900        27
56.910        13
56.920         7
56.930        20
56.940        13
56.950        27
56.960         7
56.970        27
56.980         7
56.990        20
57.000         0
57.010        20
57.020        13
57.030         0
57.040        13
57.050        20
57.060         0
57.070         0
57.080        13
57.090        13
57.100        13
57.110        20
57.120        13
57.130        27
57.140         0
57.150        13
57.160        27
57.170        13
57.180         0
57.190        20
57.200        27
57.210        27
57.220        27
57.230        33
57.240         7
57.250        33
57.260        67
57.270        40
57.280        40
57.290        33
57.300        13
57.310        27
57.320        67
57.330        73
57.340        40
57.350         7
57.360        53
57.370        60
57.380         7
57.390       107
57.400       127
57.410       100
57.420       100
57.430       100
57.440       187
57.450       207
57.460       213
57.470       307
57.480       240
57.490       260
57.500       253
57.510       300
57.520       353
57.530       287
57.540       313
57.550       340
57.560       307
57.570       353
57.580       273
57.590       180
57.600       147
57.610       187
57.620       187
57.630       160
57.640       167
57.650       127
57.660       140
57.670       200
57.680       147
57.690       147
57.700       127
57.710       173
57.720       220
57.730       173
57.740       133
57.750        67
57.760        47
57.770        47
57.780        33
57.790        60
57.800        20
57.810        13
57.820        40
57.830        20
57.840         0
57.850        27
57.860        13
57.870         7
57.880         0
57.890        27
57.900        20
57.910        27
57.920         0
57.930        20
57.940        20
57.950         7
57.960         0
57.970        27
57.980        13
57.990        27
58.000         0
58.010        47
58.020         7
58.030        27
58.040        20
58.050        20
58.060        27
58.070         7
58.080         0
58.090        13
58.100        13
58.110         7
58.120        13
58.130        20
58.140        20
58.150         7
58.160        20
58.170         7
58.180        27
58.190         7
58.200        13
58.210        13
58.220        20
58.230         7
58.240         7
58.250        20
58.260         7
58.270        20
58.280        33
58.290        40
58.300         7
58.310         7
58.320         7
58.330         7
58.340        13
58.350        13
58.360         7
58.370         0
58.380        27
58.390         7
58.400        20
58.410         0
58.420        40
58.430         7
58.440        20
58.450         0
58.460        27
58.470        20
58.480        20
58.490        13
58.500        13
58.510         7
58.520        20
58.530        13
58.540        13
58.550        33
58.560        20
58.570        13
58.580         0
58.590         7
58.600        13
58.610         7
58.620         7
58.630        13
58.640        40
58.650         7
58.660        13
58.670        20
58.680         7
58.690        13
58.700        13
58.710         7
58.720         0
58.730         7
58.740         7
58.750        20
58.760         7
58.770         7
58.780         7
58.790         0
58.800        20
58.810        27
58.820         0
58.830         7
58.840        20
58.850         7
58.860         0
58.870         7
58.880        13
58.890         0
58.900         7
58.910         7
58.920         7
58.930        13
58.940        27
58.950        33
58.960        13
58.970        20
58.980        33
58.990        20
59.000        27
59.010        27
59.020        13
59.030         7
59.040         7
59.050        13
59.060        20
59.070         7
59.080         7
59.090        13
59.100        13
59.110        40
59.120        20
59.130        33
59.140         7
59.150         7
59.160        13
59.170        13
59.180        20
59.190         0
59.200        20
59.210         7
59.220        27
59.230        13
59.240         0
59.250         7
59.260        33
59.270        20
59.280         7
59.290         0
59.300         7
59.310        13
59.320         7
59.330         7
59.340         0
59.350         7
59.360         7
59.370        20
59.380         0
59.390         7
59.400        27
59.410         0
59.420         7
59.430        13
59.440        13
59.450        13
59.460        33
59.470        20
59.480        20
59.490        27
59.500        20
59.510         7
59.520        33
59.530        13
59.540         7
59.550         7
59.560        20
59.570        27
59.580         0
59.590         7
59.600        13
59.610        13
59.620        20
59.630        13
59.640         7
59.650        13
59.660         7
59.670        33
59.680         0
59.690        13
59.700        27
59.710        20
59.720         0
59.730        13
59.740        13
59.750         7
59.760        13
59.770         7
59.780         0
59.790         7
59.800        20
59.810        13
59.820        20
59.830        13
59.840         7
59.850        20
59.860         7
59.870        27
59.880        13
59.890        33
59.900        20
59.910        13
59.920        13
59.930        20
59.940        13
59.950        20
59.960         0
59.970        27
59.980        20
59.990         0
60.000         7
