20.000         7
20.010         7
20.020        53
20.030        33
20.040        47
20.050        67
20.060        27
20.070        73
20.080        33
20.090        73
20.100        47
20.110        53
20.120        47
20.130        33
20.140        27
20.150        47
20.160        20
20.170        47
20.180        53
20.190        67
20.200        40
20.210        47
20.220        20
20.230        60
20.240        53
20.250        20
20.260        53
20.270        33
20.280        60
20.290        67
20.300        47
20.310        33
20.320        20
20.330        47
20.340        13
20.350        33
20.360        47
20.370        47
20.380        67
20.390        60
20.400        33
20.410        40
20.420        33
20.430        33
20.440        53
20.450        47
20.460        53
20.470        40
20.480        27
20.490        60
20.500        73
20.510        40
20.520        40
20.530        60
20.540        60
20.550        40
20.560        47
20.570        40
20.580        47
20.590        20
20.600        47
20.610        27
20.620        27
20.630        40
20.640        27
20.650        80
20.660        27
20.670        53
20.680        53
20.690        60
20.700        60
20.710        33
20.720        13
20.730        47
20.740        33
20.750        27
20.760        47
20.770        27
20.780        67
20.790        60
20.800        47
20.810        13
20.820        13
20.830        40
20.840        27
20.850        20
20.860        80
20.870        33
20.880        53
20.890        20
20.900        60
20.910        33
20.920        53
20.930        20
20.940        47
20.950        40
20.960        60
20.970        33
20.980        60
20.990        47
21.000        47
21.010        60
21.020        27
21.030        60
21.040        27
21.050        33
21.060        47
21.070        27
21.080        53
21.090        73
21.100        53
21.110        33
21.120        13
21.130        53
21.140        33
21.150        33
21.160        27
21.170        40
21.180        27
21.190        27
21.200        33
21.210        33
21.220        40
21.230        33
21.240        47
21.250        60
21.260        53
21.270        40
21.280        33
21.290        20
21.300        53
21.310        33
21.320        33
21.330        87
21.340        47
21.350        80
21.360         7
21.370        60
21.380        33
21.390        47
21.400        27
21.410        27
21.420        13
21.430        20
21.440        27
21.450        33
21.460        27
21.470        13
21.480        53
21.490        33
21.500        53
21.510        27
21.520        60
21.530        40
21.540        40
21.550        67
21.560        27
21.570        33
21.580        53
21.590        53
21.600        33
21.610        20
21.620        40
21.630        27
21.640        47
21.650        60
21.660        47
21.670        27
21.680        40
21.690        27
21.700        47
21.710        27
21.720        40
21.730        53
21.740        20
21.750        27
21.760        87
21.770         7
21.780        40
21.790        20
21.800        53
21.810        60
21.820        27
21.830        40
21.840        53
21.850        60
21.860        47
21.870        47
21.880        20
21.890        33
21.900        53
21.910        47
21.920        60
21.930         7
21.940        53
21.950        33
21.960        27
21.970        20
21.980        33
21.990        87
22.000        40
22.010        27
22.020        27
22.030        33
22.040        27
22.050        53
22.060        40
22.070        33
22.080        40
22.090        53
22.100        27
22.110        20
22.120        20
22.130        53
22.140        47
22.150        53
22.160        47
22.170        53
22.180        33
22.190        33
22.200        73
22.210        53
22.220        80
22.230        67
22.240        20
22.250        33
22.260        67
22.270        40
22.280        47
22.290        40
22.300        27
22.310        73
22.320        33
22.330        40
22.340        47
22.350        53
22.360        40
22.370        33
22.380        20
22.390        33
22.400        33
22.410        60
22.420        67
22.430        67
22.440        87
22.450        40
22.460        87
22.470        20
22.480        80
22.490        60
22.500       100
22.510        60
22.520        67
22.530        53
22.540        87
22.550       113
22.560        87
22.570        93
22.580       100
22.590       120
22.600       153
22.610       133
22.620       140
22.630       187
22.640       220
22.650       300
22.660       247
22.670       273
22.680       360
22.690       480
22.700       413
22.710       353
22.720       300
22.730       460
22.740       480
22.750       353
22.760       293
22.770       360
22.780       267
22.790       293
22.800       120
22.810       180
22.820       207
22.830       127
22.840        80
22.850        93
22.860       140
22.870       107
22.880        80
22.890        67
22.900       100
22.910        53
22.920        47
22.930        67
22.940        40
22.950        93
22.960        47
22.970        87
22.980        73
22.990        60
23.000        87
23.010        53
23.020        53
23.030        33
23.040        40
23.050        47
23.060        40
23.070        53
23.080        73
23.090        47
23.100        40
23.110        67
23.120        60
23.130        53
23.140        33
23.150        47
23.160        40
23.170        33
23.180        27
23.190        40
23.200        47
23.210        67
23.220        13
23.230        73
23.240        27
23.250        60
23.260        80
23.270        20
23.280        40
23.290        27
23.300        60
23.310        60
23.320        60
23.330        20
23.340        40
23.350        27
23.360        33
23.370        80
23.380        47
23.390        67
23.400        20
23.410        53
23.420        67
23.430        47
23.440        60
23.450        60
23.460        20
23.470        20
23.480        40
23.490        27
23.500        40
23.510        33
23.520        53
23.530        20
23.540        60
23.550        40
23.560        47
23.570        40
23.580        40
23.590        47
23.600        40
23.610        27
23.620        47
23.630        13
23.640        33
23.650        33
23.660        33
23.670        53
23.680        40
23.690        33
23.700        27
23.710         7
23.720        40
23.730        20
23.740        27
23.750        13
23.760        33
23.770        13
23.780        20
23.790        33
23.800        33
23.810        33
23.820        33
23.830        33
23.840        20
23.850        40
23.860        60
23.870        33
23.880        53
23.890        40
23.900        33
23.910        20
23.920        27
23.930        47
23.940        47
23.950        33
23.960        53
23.970        47
23.980        27
23.990        33
24.000        27
24.010        20
24.020        47
24.030        13
24.040        87
24.050        33
24.060        33
24.070        40
24.080        13
24.090        40
24.100        33
24.110        33
24.120        47
24.130        33
24.140        40
24.150        20
24.160        33
24.170        47
24.180         7
24.190        33
24.200        33
24.210        60
24.220        20
24.230        33
24.240        33
24.250        20
24.260        53
24.270        40
24.280        47
24.290        40
24.300        40
24.310        20
24.320        33
24.330        60
24.340        33
24.350        33
24.360        33
24.370        53
24.380        40
24.390         7
24.400        33
24.410        27
24.420        13
24.430        33
24.440        33
24.450        53
24.460        47
24.470        40
24.480        20
24.490        40
24.500        20
24.510         7
24.520        40
24.530        20
24.540        27
24.550        47
24.560        47
24.570        53
24.580        27
24.590        27
24.600        27
24.610        27
24.620        53
24.630        33
24.640        20
24.650        20
24.660        33
24.670        53
24.680        20
24.690        20
24.700        40
24.710        60
24.720        47
24.730        20
24.740        27
24.750        73
24.760        40
24.770        40
24.780        60
24.790        33
24.800         0
24.810        27
24.820        13
24.830        53
24.840        13
24.850        47
24.860        20
24.870        47
24.880        20
24.890        53
24.900        47
24.910        13
24.920        33
24.930        20
24.940        13
24.950        27
24.960        40
24.970        20
24.980        40
24.990        33
25.000        20
25.010        40
25.020        47
25.030        47
25.040        27
25.050        47
25.060        33
25.070        27
25.080        40
25.090        40
25.100        27
25.110        20
25.120        47
25.130        27
25.140        33
25.150        53
25.160        53
25.170        27
25.180        60
25.190        13
25.200        47
25.210        60
25.220        60
25.230        33
25.240        33
25.250        27
25.260        40
25.270        27
25.280        40
25.290        27
25.300        20
25.310        27
25.320        53
25.330        20
25.340        33
25.350        47
25.360        40
25.370        13
25.380        53
25.390        33
25.400        67
25.410        33
25.420        40
25.430         0
25.440        40
25.450        33
25.460        53
25.470        13
25.480        33
25.490        27
25.500        87
25.510        20
25.520        40
25.530        13
25.540        27
25.550        27
25.560        13
25.570        13
25.580        20
25.590        47
25.600        40
25.610        40
25.620        27
25.630        20
25.640        20
25.650        40
25.660        47
25.670        33
25.680        53
25.690        47
25.700        27
25.710        47
25.720        40
25.730        47
25.740        33
25.750        27
25.760        27
25.770        13
25.780        73
25.790        40
25.800        20
25.810        20
25.820        53
25.830        40
25.840        20
25.850         7
25.860        13
25.870        40
25.880        67
25.890        40
25.900        60
25.910        47
25.920        40
25.930        20
25.940        27
25.950        53
25.960        40
25.970        40
25.980        47
25.990        13
26.000        33
26.010        20
26.020        20
26.030        67
26.040        27
26.050        20
26.060        27
26.070        40
26.080        20
26.090        40
26.100        40
26.110        13
26.120        20
26.130        13
26.140        60
26.150        33
26.160        20
26.170        53
26.180        33
26.190        33
26.200        20
26.210        33
26.220        40
26.230        33
26.240        13
26.250        13
26.260        20
26.270        33
26.280        20
26.290        13
26.300        27
26.310        27
26.320        13
26.330        40
26.340        27
26.350        47
26.360         0
26.370        33
26.380        27
26.390        27
26.400        20
26.410        13
26.420        20
26.430         7
26.440        53
26.450         7
26.460        33
26.470        20
26.480        20
26.490        20
26.500        33
26.510        20
26.520        53
26.530        40
26.540        47
26.550        33
26.560        40
26.570        27
26.580        60
26.590        20
26.600        27
26.610        33
26.620        27
26.630        33
26.640        27
26.650        40
26.660        13
26.670        47
26.680         7
26.690        33
26.700        27
26.710        47
26.720        47
26.730        33
26.740        20
26.750        47
26.760        20
26.770        20
26.780        27
26.790        40
26.800        27
26.810        33
26.820         7
26.830        33
26.840        53
26.850        33
26.860        20
26.870        33
26.880        47
26.890        27
26.900        13
26.910        33
26.920         7
26.930        40
26.940        40
26.950         7
26.960        33
26.970        33
26.980        47
26.990        47
27.000        27
27.010        53
27.020        27
27.030        13
27.040        40
27.050        27
27.060        33
27.070        33
27.080        40
27.090        13
27.100        27
27.110        20
27.120        20
27.130         7
27.140         7
27.150        13
27.160        33
27.170        13
27.180        13
27.190        40
27.200        40
27.210        27
27.220        20
27.230        20
27.240         0
27.250        33
27.260        20
27.270        60
27.280        53
27.290        13
27.300        27
27.310        20
27.320        27
27.330         0
27.340        40
27.350        53
27.360        40
27.370        27
27.380        27
27.390        13
27.400        20
27.410        20
27.420        33
27.430        27
27.440        67
27.450        67
27.460        13
27.470        40
27.480        60
27.490        60
27.500        33
27.510        27
27.520        27
27.530        20
27.540        20
27.550        73
27.560        47
27.570        40
27.580        20
27.590        33
27.600        40
27.610         7
27.620        27
27.630        13
27.640        33
27.650        27
27.660        40
27.670        40
27.680        53
27.690        20
27.700        27
27.710        20
27.720         7
27.730        20
27.740        47
27.750         7
27.760        33
27.770        67
27.780        27
27.790        13
27.800        27
27.810        20
27.820        40
27.830        27
27.840        33
27.850        20
27.860        13
27.870        20
27.880        27
27.890        13
27.900        13
27.910        33
27.920        27
27.930        53
27.940        47
27.950        33
27.960        20
27.970        40
27.980         7
27.990         7
28.000        27
28.010        27
28.020         7
28.030         7
28.040        47
28.050        53
28.060        13
28.070        27
28.080        20
28.090        67
28.100        27
28.110        73
28.120        33
28.130        13
28.140         7
28.150        33
28.160        27
28.170        27
28.180        27
28.190        27
28.200        13
28.210        20
28.220        33
28.230        33
28.240        33
28.250        40
28.260        27
28.270        27
28.280        13
28.290        27
28.300        33
28.310        33
28.320        13
28.330        40
28.340         7
28.350        13
28.360         7
28.370         0
28.380        20
28.390         7
28.400        53
28.410        33
28.420        27
28.430        13
28.440        53
28.450        13
28.460        13
28.470        53
28.480         7
28.490        27
28.500        27
28.510        13
28.520        60
28.530        27
28.540        40
28.550        40
28.560        33
28.570        40
28.580         7
28.590        13
28.600        33
28.610        13
28.620        27
28.630        20
28.640        33
28.650        20
28.660        27
28.670        40
28.680        40
28.690        47
28.700        47
28.710         0
28.720        40
28.730        20
28.740        20
28.750        33
28.760        20
28.770        13
28.780        47
28.790        40
28.800        33
28.810        20
28.820         0
28.830        53
28.840        20
28.850        27
28.860        33
28.870        20
28.880        20
28.890        27
28.900        13
28.910        27
28.920        27
28.930        47
28.940        40
28.950        53
28.960        33
28.970        13
28.980        20
28.990        27
29.000         0
29.010         0
29.020        33
29.030        13
29.040         7
29.050        13
29.060        40
29.070        27
29.080        33
29.090        40
29.100        33
29.110        20
29.120        27
29.130        27
29.140        47
29.150        20
29.160        47
29.170        27
29.180        33
29.190        27
29.200        33
29.210        53
29.220        33
29.230        27
29.240        47
29.250        60
29.260        40
29.270        47
29.280        33
29.290        27
29.300        53
29.310        40
29.320        67
29.330        40
29.340        33
29.350        33
29.360        27
29.370        20
29.380        13
29.390        33
29.400         7
29.410        20
29.420         7
29.430        20
29.440        20
29.450         0
29.460        40
29.470        33
29.480        53
29.490        47
29.500        27
29.510        40
29.520        27
29.530        13
29.540        33
29.550        20
29.560        27
29.570         7
29.580        33
29.590        27
29.600        27
29.610        13
29.620        20
29.630        13
29.640        47
29.650        13
29.660        13
29.670        13
29.680        20
29.690        20
29.700        13
29.710        40
29.720        20
29.730        20
29.740         0
29.750        27
29.760        27
29.770         7
29.780         7
29.790        20
29.800        20
29.810        40
29.820        20
29.830         7
29.840         7
29.850        33
29.860        47
29.870         7
29.880        33
29.890         7
29.900        33
29.910        60
29.920        40
29.930         7
29.940        27
29.950        40
29.960        27
29.970         7
29.980         7
29.990        27
30.000        20
30.010         7
30.020        27
30.030        40
30.040        33
30.050        40
30.060        27
30.070        33
30.080        40
30.090        13
30.100        40
30.110        47
30.120        27
30.130        33
30.140         7
30.150        27
30.160        20
30.170        13
30.180        33
30.190         7
30.200        20
30.210        33
30.220        40
30.230        27
30.240        27
30.250        27
30.260        13
30.270        20
30.280        20
30.290         0
30.300        13
30.310        13
30.320        33
30.330        20
30.340         7
30.350        33
30.360        13
30.370        33
30.380        27
30.390        33
30.400        27
30.410        33
30.420        33
30.430        33
30.440        20
30.450         7
30.460        40
30.470         0
30.480        33
30.490        33
30.500        20
30.510        20
30.520         7
30.530        20
30.540        27
30.550        20
30.560        13
30.570        33
30.580        27
30.590         0
30.600        33
30.610        33
30.620        20
30.630        27
30.640        13
30.650        20
30.660        20
30.670        20
30.680        27
30.690        33
30.700         7
30.710         7
30.720        20
30.730        33
30.740        20
30.750        13
30.760        27
30.770        33
30.780        47
30.790        13
30.800        33
30.810        47
30.820        67
30.830        27
30.840        20
30.850        47
30.860        27
30.870        13
30.880        53
30.890        27
30.900        20
30.910        47
30.920        20
30.930        27
30.940        27
30.950        27
30.960        53
30.970         7
30.980        13
30.990        27
31.000        33
31.010        27
31.020        27
31.030        13
31.040        20
31.050        20
31.060        27
31.070        20
31.080         7
31.090        27
31.100        20
31.110        27
31.120        40
31.130        47
31.140        33
31.150        13
31.160        27
31.170        20
31.180         7
31.190        47
31.200        20
31.210        53
31.220        33
31.230        20
31.240         0
31.250         7
31.260        60
31.270        27
31.280        40
31.290        47
31.300        53
31.310        27
31.320        33
31.330        20
31.340        33
31.350        33
31.360        40
31.370        60
31.380        13
31.390        67
31.400        20
31.410        33
31.420        53
31.430        67
31.440        33
31.450        40
31.460        20
31.470        53
31.480        20
31.490        27
31.500        27
31.510        60
31.520        60
31.530        53
31.540        60
31.550        47
31.560        53
31.570        40
31.580        53
31.590        27
31.600        47
31.610        53
31.620        47
31.630        27
31.640        53
31.650        33
31.660        20
31.670        33
31.680        73
31.690        20
31.700        33
31.710        33
31.720        20
31.730        40
31.740        33
31.750        53
31.760        60
31.770        53
31.780        53
31.790        33
31.800        47
31.810        53
31.820        33
31.830        20
31.840        53
31.850        40
31.860        87
31.870        80
31.880        67
31.890        27
31.900        53
31.910        40
31.920       100
31.930        47
31.940        73
31.950        93
31.960        87
31.970        60
31.980       113
31.990        80
32.000        87
32.010       107
32.020        80
32.030        80
32.040        67
32.050        60
32.060       107
32.070       140
32.080       173
32.090        93
32.100       167
32.110        93
32.120       247
32.130       253
32.140       227
32.150       233
32.160       273
32.170       287
32.180       373
32.190       300
32.200       480
32.210       380
32.220       440
32.230       600
32.240       500
32.250       740
32.260       740
32.270       880
32.280       840
32.290       940
32.300      1246
32.310      1233
32.320      1433
32.330      1559
32.340      1799
32.350      1659
32.360      1819
32.370      2146
32.380      2379
32.390      2226
32.400      2312
32.410      2466
32.420      2639
32.430      2299
32.440      2159
32.450      2232
32.460      2092
32.470      1859
32.480      1739
32.490      1679
32.500      1659
32.510      1279
32.520      1333
32.530      1113
32.540      1026
32.550       946
32.560       693
32.570       653
32.580       433
32.590       480
32.600       493
32.610       380
32.620       287
32.630       300
32.640       300
32.650       260
32.660       260
32.670       233
32.680       120
32.690       133
32.700       140
32.710       127
32.720        93
32.730       107
32.740       140
32.750       100
32.760        53
32.770       127
32.780       100
32.790        73
32.800        60
32.810        80
32.820        53
32.830       100
32.840        40
32.850        67
32.860        60
32.870        67
32.880        93
32.890        53
32.900        47
32.910        67
32.920        27
32.930        60
32.940        27
32.950        40
32.960        60
32.970        40
32.980        67
32.990        27
33.000        60
33.010        47
33.020        47
33.030        27
33.040        47
33.050        60
33.060        53
33.070        60
33.080        27
33.090        33
33.100        27
33.110        27
33.120        40
33.130        53
33.140        40
33.150        27
33.160        13
33.170        40
33.180        33
33.190        27
33.200        27
33.210        53
33.220        40
33.230        47
33.240        67
33.250        53
33.260        40
33.270        27
33.280        33
33.290        60
33.300        20
33.310        53
33.320        27
33.330        47
33.340        20
33.350        67
33.360        27
33.370        20
33.380        47
33.390        33
33.400        20
33.410        13
33.420        47
33.430        13
33.440        20
33.450        20
33.460        40
33.470        40
33.480         7
33.490        27
33.500        20
33.510        27
33.520        40
33.530        33
33.540        20
33.550         0
33.560        47
33.570        60
33.580        47
33.590        13
33.600        33
33.610        47
33.620        53
33.630        20
33.640        40
33.650         7
33.660        27
33.670         7
33.680        33
33.690        47
33.700        33
33.710        53
33.720        27
33.730        47
33.740        20
33.750        33
33.760        33
33.770        40
33.780        33
33.790        20
33.800        13
33.810        13
33.820        13
33.830        53
33.840        20
33.850         7
33.860        20
33.870        60
33.880        20
33.890        53
33.900        20
33.910        20
33.920        20
33.930        20
33.940        33
33.950        20
33.960         7
33.970        27
33.980        20
33.990        40
34.000         7
34.010        13
34.020        20
34.030        13
34.040         7
34.050        20
34.060         7
34.070        47
34.080         0
34.090        33
34.100         7
34.110        47
34.120        27
34.130         7
34.140        33
34.150        40
34.160        13
34.170        40
34.180        40
34.190        13
34.200        20
34.210        33
34.220        33
34.230        20
34.240        20
34.250        27
34.260        47
34.270        27
34.280        27
34.290        20
34.300        13
34.310         7
34.320        20
34.330        33
34.340        33
34.350        33
34.360        33
34.370        60
34.380        53
34.390        40
34.400        27
34.410        20
34.420        27
34.430        20
34.440        13
34.450        27
34.460        47
34.470        47
34.480         0
34.490         7
34.500         0
34.510        47
34.520        40
34.530        33
34.540        13
34.550        13
34.560         7
34.570        33
34.580        27
34.590        13
34.600        40
34.610        20
34.620        20
34.630        20
34.640        20
34.650        27
34.660         7
34.670        27
34.680        33
34.690        27
34.700        13
34.710        27
34.720        40
34.730        33
34.740        27
34.750        13
34.760        40
34.770        20
34.780        27
34.790        27
34.800        20
34.810        33
34.820        27
34.830        27
34.840        33
34.850        13
34.860        13
34.870        20
34.880        27
34.890        13
34.900        20
34.910        40
34.920        20
34.930        27
34.940        33
34.950        40
34.960        27
34.970        33
34.980         0
34.990        13
35.000        13
35.010        40
35.020        13
35.030        33
35.040        33
35.050        40
35.060        60
35.070        20
35.080        20
35.090        20
35.100        20
35.110        33
35.120        33
35.130        27
35.140        40
35.150        27
35.160         7
35.170        20
35.180        13
35.190        27
35.200        13
35.210        20
35.220         0
35.230        33
35.240        20
35.250        13
35.260        40
35.270        13
35.280        13
35.290        27
35.300        40
35.310        27
35.320        20
35.330        27
35.340        13
35.350        33
35.360        13
35.370        27
35.380        27
35.390        27
35.400        13
35.410        20
35.420        20
35.430        33
35.440        13
35.450        40
35.460        27
35.470        20
35.480        13
35.490        33
35.500        27
35.510        20
35.520        40
35.530        20
35.540        27
35.550        33
35.560        27
35.570         7
35.580        13
35.590        13
35.600        27
35.610        33
35.620        13
35.630        67
35.640        53
35.650        47
35.660        13
35.670        60
35.680        40
35.690        13
35.700        27
35.710        20
35.720        13
35.730         7
35.740        13
35.750        40
35.760        27
35.770        33
35.780        13
35.790        33
35.800        20
35.810        20
35.820         7
35.830        27
35.840        13
35.850        27
35.860         7
35.870        27
35.880        20
35.890        27
35.900        27
35.910        27
35.920         7
35.930         7
35.940        20
35.950        40
35.960        20
35.970        27
35.980        27
35.990        13
36.000         7
36.010        33
36.020        47
36.030        20
36.040         7
36.050         0
36.060        33
36.070        13
36.080        13
36.090        20
36.100        20
36.110        20
36.120         0
36.130        13
36.140        20
36.150         7
36.160         7
36.170        27
36.180        27
36.190        40
36.200        60
36.210        20
36.220         0
36.230        13
36.240        33
36.250        27
36.260        27
36.270         7
36.280        20
36.290        13
36.300        13
36.310         7
36.320        13
36.330        40
36.340        27
36.350        13
36.360        33
36.370        33
36.380         7
36.390        27
36.400        33
36.410         7
36.420        47
36.430         7
36.440        33
36.450        13
36.460         7
36.470         7
36.480        20
36.490        33
36.500        40
36.510        27
36.520        13
36.530        13
36.540        13
36.550        13
36.560        47
36.570        33
36.580        27
36.590        13
36.600        33
36.610        20
36.620        33
36.630        20
36.640        13
36.650        20
36.660        20
36.670        33
36.680        27
36.690        27
36.700        20
36.710        47
36.720        20
36.730        27
36.740        27
36.750        20
36.760        47
36.770        13
36.780        13
36.790        13
36.800        27
36.810        40
36.820        33
36.830        27
36.840         7
36.850        20
36.860         7
36.870        13
36.880        33
36.890        40
36.900         0
36.910         0
36.920        20
36.930        20
36.940        40
36.950        20
36.960        40
36.970        40
36.980        13
36.990        13
37.000        27
37.010        13
37.020        13
37.030        13
37.040        13
37.050         7
37.060        20
37.070        47
37.080        13
37.090        40
37.100        20
37.110        27
37.120         7
37.130         7
37.140        27
37.150        27
37.160        20
37.170        33
37.180        27
37.190        33
37.200        13
37.210        20
37.220        27
37.230        20
37.240        20
37.250        20
37.260        20
37.270        27
37.280        20
37.290        40
37.300         7
37.310        33
37.320         7
37.330        27
37.340        27
37.350        40
37.360        20
37.370        20
37.380        33
37.390        20
37.400        27
37.410        33
37.420        27
37.430        47
37.440        27
37.450         7
37.460         0
37.470        13
37.480        27
37.490        40
37.500        40
37.510         7
37.520         7
37.530        20
37.540        20
37.550        27
37.560        13
37.570        27
37.580        20
37.590        20
37.600        27
37.610        13
37.620        27
37.630        20
37.640         7
37.650        27
37.660        13
37.670         7
37.680        33
37.690        60
37.700        13
37.710        27
37.720        13
37.730        20
37.740         7
37.750         7
37.760        33
37.770        40
37.780        20
37.790        20
37.800        13
37.810         7
37.820        13
37.830        27
37.840        13
37.850        13
37.860        20
37.870        13
37.880        20
37.890        40
37.900         7
37.910         7
37.920         7
37.930        40
37.940        20
37.950         7
37.960        20
37.970        20
37.980        20
37.990         0
38.000        20
38.010        13
38.020        20
38.030        20
38.040        27
38.050         7
38.060        33
38.070        13
38.080        20
38.090        33
38.100        20
38.110        40
38.120        20
38.130        20
38.140        20
38.150        27
38.160        33
38.170        27
38.180        27
38.190        13
38.200         7
38.210         7
38.220        13
38.230        13
38.240        27
38.250        33
38.260        47
38.270        13
38.280         7
38.290        27
38.300        27
38.310         0
38.320        33
38.330         0
38.340         7
38.350        40
38.360        27
38.370        40
38.380        27
38.390        47
38.400        33
38.410        20
38.420        20
38.430        27
38.440        13
38.450        13
38.460        20
38.470         7
38.480        20
38.490         7
38.500         7
38.510        20
38.520         7
38.530        20
38.540         7
38.550        27
38.560        20
38.570        20
38.580        13
38.590        13
38.600        13
38.610         7
38.620        20
38.630         7
38.640        47
38.650        33
38.660         7
38.670        20
38.680        13
38.690        33
38.700        13
38.710         0
38.720        13
38.730        27
38.740        20
38.750        20
38.760        27
38.770        27
38.780        20
38.790        27
38.800        13
38.810         0
38.820        40
38.830        20
38.840        13
38.850         0
38.860        27
38.870        20
38.880        13
38.890        40
38.900        53
38.910        13
38.920        13
38.930        20
38.940        13
38.950        13
38.960        20
38.970         0
38.980        20
38.990        27
39.000        33
39.010        33
39.020        27
39.030        33
39.040         7
39.050         7
39.060        13
39.070         7
39.080        20
39.090        13
39.100        13
39.110        13
39.120        13
39.130        20
39.140        40
39.150         7
39.160        13
39.170        13
39.180        27
39.190        33
39.200        20
39.210        27
39.220        33
39.230        20
39.240        33
39.250        20
39.260        13
39.270        13
39.280        33
39.290         7
39.300         7
39.310        13
39.320        27
39.330         0
39.340        47
39.350        27
39.360        47
39.370         7
39.380        13
39.390        13
39.400        13
39.410        27
39.420        27
39.430        20
39.440         7
39.450        13
39.460         0
39.470        20
39.480        33
39.490         7
39.500        13
39.510         7
39.520        33
39.530        27
39.540        27
39.550        13
39.560        13
39.570        13
39.580        40
39.590        20
39.600        27
39.610        13
39.620        33
39.630        13
39.640         7
39.650        20
39.660         7
39.670         7
39.680        13
39.690        20
39.700         7
39.710        13
39.720        13
39.730        13
39.740        47
39.750        20
39.760        47
39.770        20
39.780        13
39.790        33
39.800         7
39.810         0
39.820        20
39.830        27
39.840        20
39.850        27
39.860        13
39.870        13
39.880        20
39.890        33
39.900        20
39.910        27
39.920        40
39.930        47
39.940        27
39.950        53
39.960        47
39.970        27
39.980        40
39.990        40
40.000        80
40.010        40
40.020        53
40.030        20
40.040        40
40.050        53
40.060        60
40.070        53
40.080        53
40.090        27
40.100        47
40.110        40
40.120        27
40.130        53
40.140        53
40.150        27
40.160        33
40.170        20
40.180        47
40.190        27
40.200         0
40.210        47
40.220        40
40.230        33
40.240        13
40.250        20
40.260        53
40.270        13
40.280        20
40.290        33
40.300         0
40.310        13
40.320        13
40.330        60
40.340        27
40.350        27
40.360         7
40.370        47
40.380        20
40.390        27
40.400        27
40.410        33
40.420        20
40.430        20
40.440        13
40.450        13
40.460        33
40.470        40
40.480        27
40.490        40
40.500        13
40.510        13
40.520        47
40.530        20
40.540        13
40.550        33
40.560        27
40.570        33
40.580        20
40.590        40
40.600        13
40.610        27
40.620         7
40.630        13
40.640        27
40.650        33
40.660        20
40.670        20
40.680        13
40.690        13
40.700        13
40.710        27
40.720        40
40.730         7
40.740        13
40.750         7
40.760         7
40.770        33
40.780        27
40.790        13
40.800        13
40.810        13
40.820        13
40.830         0
40.840        53
40.850        20
40.860        20
40.870        53
40.880         0
40.890        27
40.900        20
40.910        20
40.920        20
40.930        13
40.940        27
40.950        20
40.960        27
40.970         7
40.980        13
40.990        27
41.000        27
41.010        40
41.020        13
41.030         0
41.040        40
41.050        13
41.060        27
41.070        20
41.080        27
41.090        13
41.100        20
41.110        13
41.120         7
41.130         0
41.140        33
41.150         7
41.160        13
41.170        33
41.180        13
41.190        33
41.200        13
41.210         7
41.220         0
41.230        13
41.240        13
41.250         7
41.260        27
41.270        27
41.280        13
41.290        27
41.300        40
41.310        13
41.320        13
41.330        47
41.340        20
41.350        13
41.360        13
41.370        47
41.380        20
41.390        27
41.400        40
41.410        13
41.420        20
41.430        27
41.440        33
41.450        20
41.460        27
41.470        20
41.480        13
41.490        33
41.500        13
41.510        53
41.520         7
41.530        40
41.540        20
41.550        40
41.560        53
41.570        67
41.580        13
41.590        20
41.600        20
41.610        27
41.620        40
41.630        40
41.640        40
41.650        53
41.660        33
41.670        27
41.680        73
41.690        53
41.700        33
41.710        47
41.720        73
41.730        33
41.740        13
41.750        27
41.760         7
41.770        33
41.780        33
41.790        20
41.800        47
41.810        33
41.820        40
41.830        27
41.840        13
41.850        53
41.860        20
41.870        53
41.880         7
41.890        40
41.900        20
41.910        20
41.920        27
41.930        13
41.940        27
41.950        27
41.960        27
41.970        53
41.980        40
41.990        27
42.000        33
42.010        13
42.020        20
42.030         7
42.040        13
42.050        13
42.060        27
42.070        20
42.080         7
42.090        13
42.100        33
42.110        47
42.120        40
42.130        33
42.140        27
42.150        47
42.160        20
42.170         0
42.180        33
42.190        13
42.200        33
42.210        20
42.220        13
42.230        47
42.240        40
42.250        13
42.260        13
42.270         7
42.280        13
42.290        53
42.300         0
42.310        33
42.320        13
42.330        27
42.340        13
42.350        20
42.360        20
42.370         7
42.380        53
42.390        27
42.400        33
42.410        13
42.420        20
42.430        13
42.440        27
42.450        40
42.460        13
42.470        20
42.480        20
42.490         7
42.500        20
42.510         0
42.520        20
42.530        27
42.540         7
42.550        27
42.560        33
42.570        27
42.580         7
42.590         0
42.600        13
42.610        13
42.620        13
42.630        40
42.640        20
42.650        13
42.660        20
42.670        20
42.680         7
42.690        47
42.700        27
42.710        13
42.720        13
42.730         7
42.740        27
42.750         7
42.760        33
42.770        40
42.780        20
42.790         7
42.800        20
42.810        33
42.820        20
42.830        33
42.840        33
42.850         7
42.860        27
42.870         7
42.880        20
42.890        20
42.900        20
42.910        27
42.920        33
42.930        40
42.940        13
42.950        27
42.960        27
42.970        13
42.980        13
42.990        13
43.000        33
43.010        20
43.020        33
43.030         7
43.040        33
43.050         7
43.060        13
43.070        27
43.080        20
43.090        13
43.100        20
43.110        13
43.120        20
43.130        40
43.140        13
43.150        13
43.160        33
43.170        13
43.180        13
43.190        20
43.200         7
43.210         7
43.220        20
43.230        33
43.240        20
43.250        47
43.260         7
43.270        20
43.280         7
43.290        20
43.300        13
43.310        13
43.320         7
43.330        33
43.340        33
43.350        33
43.360        13
43.370        20
43.380        13
43.390         7
43.400         0
43.410        13
43.420        13
43.430        27
43.440         0
43.450         7
43.460        27
43.470        20
43.480         7
43.490        33
43.500        27
43.510        47
43.520         7
43.530         7
43.540         7
43.550        27
43.560        13
43.570         7
43.580        40
43.590         0
43.600         7
43.610        27
43.620        13
43.630        27
43.640        20
43.650        20
43.660        20
43.670         7
43.680        60
43.690        40
43.700        33
43.710        27
43.720        20
43.730        13
43.740        20
43.750        20
43.760        27
43.770        27
43.780        20
43.790        13
43.800        27
43.810        60
43.820        27
43.830        20
43.840         0
43.850        27
43.860         7
43.870        20
43.880        13
43.890         7
43.900        13
43.910        20
43.920        20
43.930        20
43.940         7
43.950        20
43.960        20
43.970        40
43.980        47
43.990        13
44.000        13
44.010        20
44.020        27
44.030         7
44.040         0
44.050         7
44.060        20
44.070         7
44.080         7
44.090        47
44.100        27
44.110        33
44.120        33
44.130        27
44.140        40
44.150         7
44.160        13
44.170        47
44.180        27
44.190        20
44.200        13
44.210        20
44.220        27
44.230        40
44.240        20
44.250        27
44.260        27
44.270        13
44.280        20
44.290        13
44.300         7
44.310         0
44.320         7
44.330         7
44.340        40
44.350        13
44.360        27
44.370        13
44.380        13
44.390        20
44.400        33
44.410        27
44.420        27
44.430        27
44.440        27
44.450        20
44.460        27
44.470        13
44.480        33
44.490         7
44.500         0
44.510        27
44.520        27
44.530        13
44.540        13
44.550        27
44.560        27
44.570        27
44.580        20
44.590         0
44.600        27
44.610        27
44.620        20
44.630        67
44.640        40
44.650        47
44.660        47
44.670        53
44.680        27
44.690        27
44.700        40
44.710        27
44.720        20
44.730        33
44.740        20
44.750        40
44.760        33
44.770        47
44.780        40
44.790        40
44.800        40
44.810        27
44.820        27
44.830        40
44.840        67
44.850        20
44.860        40
44.870        53
44.880        33
44.890        47
44.900        40
44.910        53
44.920        40
44.930        33
44.940        33
44.950        20
44.960        47
44.970        33
44.980        53
44.990        33
45.000        13
45.010        27
45.020        40
45.030        60
45.040        53
45.050        40
45.060        40
45.070        80
45.080        27
45.090        80
45.100        53
45.110        33
45.120        53
45.130        33
45.140        33
45.150        40
45.160        40
45.170        47
45.180        60
45.190        47
45.200        47
45.210        67
45.220        93
45.230        40
45.240        80
45.250        27
45.260        67
45.270        53
45.280        27
45.290        20
45.300        47
45.310        33
45.320        60
45.330        60
45.340        40
45.350        67
45.360        40
45.370        87
45.380        80
45.390        60
45.400        20
45.410        53
45.420        80
45.430       107
45.440        60
45.450        73
45.460        87
45.470        80
45.480        53
45.490        47
45.500        80
45.510       107
45.520        20
45.530        53
45.540        40
45.550        60
45.560        67
45.570        60
45.580        60
45.590        80
45.600        60
45.610       120
45.620        87
45.630       100
45.640       127
45.650       107
45.660        53
45.670        40
45.680       107
45.690        87
45.700       153
45.710       100
45.720        87
45.730       120
45.740       120
45.750       173
45.760       107
45.770        87
45.780        93
45.790       167
45.800       127
45.810       113
45.820       120
45.830       207
45.840       153
45.850       140
45.860       133
45.870       187
45.880       140
45.890       180
45.900       233
45.910       227
45.920       280
45.930       267
45.940       233
45.950       247
45.960       313
45.970       367
45.980       287
45.990       293
46.000       393
46.010       420
46.020       407
46.030       426
46.040       633
46.050       520
46.060       573
46.070       566
46.080       666
46.090       820
46.100       753
46.110       720
46.120       940
46.130       966
46.140      1066
46.150      1113
46.160      1086
46.170      1386
46.180      1426
46.190      1446
46.200      1406
46.210      1533
46.220      1886
46.230      1886
46.240      1966
46.250      2439
46.260      2466
46.270      2479
46.280      2559
46.290      2692
46.300      3059
46.310      3012
46.320      3399
46.330      3579
46.340      3365
46.350      3725
46.360      3785
46.370      3472
46.380      3785
46.390      3639
46.400      3739
46.410      3545
46.420      3572
46.430      3472
46.440      3539
46.450      3245
46.460      3339
46.470      3059
46.480      3045
46.490      2919
46.500      2919
46.510      2499
46.520      2466
46.530      2486
46.540      2039
46.550      1966
46.560      2099
46.570      1866
46.580      1693
46.590      1773
46.600      1259
46.610      1373
46.620      1346
46.630      1213
46.640      1273
46.650      1006
46.660      1100
46.670       726
46.680       826
46.690       853
46.700       720
46.710       593
46.720       773
46.730       553
46.740       553
46.750       560
46.760       546
46.770       460
46.780       367
46.790       460
46.800       307
46.810       393
46.820       393
46.830       247
46.840       327
46.850       293
46.860       247
46.870       340
46.880       280
46.890       293
46.900       253
46.910       160
46.920       260
46.930       153
46.940       220
46.950       187
46.960       147
46.970       193
46.980       153
46.990       213
47.000       233
47.010       160
47.020       120
47.030       113
47.040       140
47.050       147
47.060       147
47.070       207
47.080       187
47.090        73
47.100       107
47.110        73
47.120       107
47.130       120
47.140       140
47.150        47
47.160        53
47.170        73
47.180        80
47.190        80
47.200        93
47.210        60
47.220       127
47.230       107
47.240        87
47.250       100
47.260        80
47.270       127
47.280        73
47.290        87
47.300        73
47.310        93
47.320        80
47.330        47
47.340        87
47.350        73
47.360        73
47.370        87
47.380        33
47.390        40
47.400        80
47.410        60
47.420        60
47.430        73
47.440        73
47.450        67
47.460        40
47.470        60
47.480        47
47.490        73
47.500        80
47.510        33
47.520        53
47.530        60
47.540        67
47.550        73
47.560        80
47.570        73
47.580        80
47.590        67
47.600        20
47.610        47
47.620        53
47.630        47
47.640        40
47.650        60
47.660        40
47.670        53
47.680        20
47.690        27
47.700        67
47.710        47
47.720        27
47.730        33
47.740        40
47.750        67
47.760        40
47.770        60
47.780        53
47.790        67
47.800        13
47.810        33
47.820        60
47.830        53
47.840        13
47.850         0
47.860        40
47.870        53
47.880        40
47.890        27
47.900        13
47.910        47
47.920        67
47.930        20
47.940        20
47.950        53
47.960        40
47.970        27
47.980        67
47.990        33
48.000        27
48.010        20
48.020        47
48.030        40
48.040        20
48.050        60
48.060        67
48.070        53
48.080        13
48.090        53
48.100        20
48.110        20
48.120        27
48.130        33
48.140        20
48.150        20
48.160        40
48.170        20
48.180        27
48.190        67
48.200        33
48.210        27
48.220        60
48.230        13
48.240        33
48.250         0
48.260        33
48.270        33
48.280        40
48.290        40
48.300        27
48.310        60
48.320        27
48.330        60
48.340        53
48.350        60
48.360        40
48.370        33
48.380        53
48.390        33
48.400        47
48.410        67
48.420        20
48.430        13
48.440        20
48.450        33
48.460        53
48.470        47
48.480        20
48.490        40
48.500        40
48.510        27
48.520         7
48.530        47
48.540        33
48.550       140
48.560        33
48.570        20
48.580        27
48.590        33
48.600        33
48.610        20
48.620        33
48.630        27
48.640        80
48.650        67
48.660        13
48.670        53
48.680        20
48.690        33
48.700        33
48.710        20
48.720        53
48.730        20
48.740        53
48.750        53
48.760         7
48.770        47
48.780        47
48.790        20
48.800        47
48.810        13
48.820        20
48.830        13
48.840        27
48.850        47
48.860        40
48.870        67
48.880        20
48.890        20
48.900        20
48.910        13
48.920        20
48.930        20
48.940        33
48.950        33
48.960        27
48.970        27
48.980        27
48.990        40
49.000        27
49.010        27
49.020        13
49.030        20
49.040        27
49.050        27
49.060        20
49.070        20
49.080        20
49.090        33
49.100         7
49.110        27
49.120        27
49.130        13
49.140        40
49.150        20
49.160        47
49.170        27
49.180        33
49.190        20
49.200        27
49.210        13
49.220        33
49.230        27
49.240        53
49.250         7
49.260        40
49.270        40
49.280        27
49.290        27
49.300        33
49.310        40
49.320        20
49.330         7
49.340        33
49.350        13
49.360        20
49.370        40
49.380        40
49.390         7
49.400        13
49.410        27
49.420        13
49.430        47
49.440        27
49.450        13
49.460        40
49.470        33
49.480        13
49.490        47
49.500        33
49.510        40
49.520        20
49.530        27
49.540        20
49.550        27
49.560        13
49.570        47
49.580        33
49.590        20
49.600        40
49.610        20
49.620        47
49.630        20
49.640        20
49.650        20
49.660        27
49.670        33
49.680        47
49.690        27
49.700        40
49.710        13
49.720        33
49.730        20
49.740        20
49.750        40
49.760        33
49.770         7
49.780         7
49.790        33
49.800        33
49.810        47
49.820        53
49.830        47
49.840         0
49.850        33
49.860        27
49.870        40
49.880        20
49.890        33
49.900        33
49.910        27
49.920         7
49.930        40
49.940        27
49.950        33
49.960        47
49.970         0
49.980        27
49.990        13
50.000        33
50.010        27
50.020        20
50.030        13
50.040        33
50.050        20
50.060        20
50.070        20
50.080        20
50.090        20
50.100        40
50.110        13
50.120        40
50.130         7
50.140        27
50.150        33
50.160        13
50.170        40
50.180        47
50.190        20
50.200        20
50.210        27
50.220        20
50.230        13
50.240        47
50.250        20
50.260        20
50.270        40
50.280        20
50.290        33
50.300        27
50.310        40
50.320        33
50.330        20
50.340        13
50.350        40
50.360        27
50.370        47
50.380        33
50.390        40
50.400        13
50.410        27
50.420        33
50.430        20
50.440        20
50.450        33
50.460        13
50.470        20
50.480        27
50.490        27
50.500        27
50.510        33
50.520        53
50.530        27
50.540        40
50.550         7
50.560        20
50.570        40
50.580        33
50.590        20
50.600        40
50.610        40
50.620        40
50.630        33
50.640        40
50.650        27
50.660        33
50.670        20
50.680        60
50.690        27
50.700        13
50.710        27
50.720        40
50.730        33
50.740        33
50.750        27
50.760         7
50.770        20
50.780        20
50.790        47
50.800         7
50.810        33
50.820        47
50.830        13
50.840        27
50.850        27
50.860        27
50.870        53
50.880        47
50.890        20
50.900        20
50.910        33
50.920        40
50.930        40
50.940        40
50.950        27
50.960        27
50.970         7
50.980        60
50.990        27
51.000        40
51.010        13
51.020        13
51.030        20
51.040        33
51.050        40
51.060        20
51.070        20
51.080        33
51.090        40
51.100        53
51.110        67
51.120        27
51.130        27
51.140        47
51.150        40
51.160        27
51.170        20
51.180        53
51.190        33
51.200        67
51.210        40
51.220        13
51.230        60
51.240        27
51.250        27
51.260        53
51.270        20
51.280        33
51.290        20
51.300        27
51.310        33
51.320        40
51.330        20
51.340        47
51.350        27
51.360        20
51.370        47
51.380        13
51.390        20
51.400        27
51.410        47
51.420        40
51.430        27
51.440        33
51.450        47
51.460         0
51.470        80
51.480        13
51.490        47
51.500        40
51.510        40
51.520        47
51.530        20
51.540         7
51.550        40
51.560        20
51.570        20
51.580        53
51.590        33
51.600         7
51.610        20
51.620        27
51.630        27
51.640        20
51.650        27
51.660        20
51.670        53
51.680        47
51.690        33
51.700        27
51.710        60
51.720        40
51.730        20
51.740        40
51.750        33
51.760        60
51.770         0
51.780        13
51.790        13
51.800        13
51.810        33
51.820        27
51.830        40
51.840        20
51.850        47
51.860        40
51.870        33
51.880        33
51.890        53
51.900        40
51.910        27
51.920        47
51.930        40
51.940        13
51.950        13
51.960        40
51.970        20
51.980        40
51.990        20
52.000        80
52.010         7
52.020        13
52.030        40
52.040        33
52.050        20
52.060        33
52.070        33
52.080        47
52.090         7
52.100        27
52.110        27
52.120        33
52.130        33
52.140        33
52.150        40
52.160        13
52.170        40
52.180        13
52.190        47
52.200        73
52.210        20
52.220        40
52.230        33
52.240        33
52.250        13
52.260        13
52.270        40
52.280        67
52.290        20
52.300        27
52.310        27
52.320        27
52.330        47
52.340        40
52.350        33
52.360        27
52.370        60
52.380        40
52.390        73
52.400        40
52.410        20
52.420        53
52.430        27
52.440        13
52.450        13
52.460        40
52.470        47
52.480        40
52.490        53
52.500        20
52.510        27
52.520        47
52.530        47
52.540         7
52.550        40
52.560        40
52.570        47
52.580        53
52.590        33
52.600        27
52.610        53
52.620        27
52.630        27
52.640        40
52.650        33
52.660        40
52.670        40
52.680        33
52.690        47
52.700        53
52.710        40
52.720        33
52.730        47
52.740        33
52.750         7
52.760        13
52.770        33
52.780        27
52.790        20
52.800        27
52.810        33
52.820        27
52.830        20
52.840        20
52.850        33
52.860        20
52.870        27
52.880        20
52.890         7
52.900        27
52.910        20
52.920        40
52.930        27
52.940        40
52.950        27
52.960        53
52.970        13
52.980        13
52.990        20
53.000        73
53.010        20
53.020        47
53.030        73
53.040        20
53.050        47
53.060        20
53.070        27
53.080        40
53.090        40
53.100        47
53.110        47
53.120        33
53.130        47
53.140        20
53.150        27
53.160         7
53.170        27
53.180        40
53.190         7
53.200        20
53.210        53
53.220        33
53.230        27
53.240        33
53.250        67
53.260        20
53.270        40
53.280        27
53.290        33
53.300        40
53.310        13
53.320        27
53.330        20
53.340        13
53.350        13
53.360        27
53.370        60
53.380        53
53.390        40
53.400        27
53.410        20
53.420        47
53.430        40
53.440        47
53.450        33
53.460        60
53.470        33
53.480        60
53.490        53
53.500        27
53.510        27
53.520        13
53.530        27
53.540        20
53.550        13
53.560        40
53.570        13
53.580        13
53.590         0
53.600        20
53.610        40
53.620        33
53.630        13
53.640        20
53.650        40
53.660        27
53.670        20
53.680        27
53.690        33
53.700        40
53.710        27
53.720        27
53.730        53
53.740         7
53.750        20
53.760        27
53.770        40
53.780        27
53.790        20
53.800        67
53.810        20
53.820        27
53.830         7
53.840        47
53.850        33
53.860        20
53.870        40
53.880        20
53.890        40
53.900        27
53.910        20
53.920        40
53.930        27
53.940        27
53.950        27
53.960        40
53.970        40
53.980        33
53.990        27
54.000        33
54.010        13
54.020         7
54.030        47
54.040        40
54.050        20
54.060        13
54.070         7
54.080        20
54.090        53
54.100        20
54.110        33
54.120        27
54.130         7
54.140        13
54.150        20
54.160        20
54.170         0
54.180        27
54.190         7
54.200        27
54.210        33
54.220        53
54.230        13
54.240        40
54.250        27
54.260        20
54.270         7
54.280        27
54.290        13
54.300         7
54.310        13
54.320        13
54.330        13
54.340        27
54.350         7
54.360        33
54.370         7
54.380        47
54.390        20
54.400        27
54.410        20
54.420        13
54.430        13
54.440         7
54.450        40
54.460        13
54.470         0
54.480        20
54.490        33
54.500         7
54.510        27
54.520         7
54.530        47
54.540        13
54.550        13
54.560         7
54.570        33
54.580         7
54.590        20
54.600        20
54.610        20
54.620        27
54.630        27
54.640        20
54.650        20
54.660        33
54.670        33
54.680         7
54.690        27
54.700        47
54.710        20
54.720        27
54.730        27
54.740         0
54.750        20
54.760        27
54.770        40
54.780        13
54.790         7
54.800        20
54.810        47
54.820        40
54.830        33
54.840        27
54.850        33
54.860        20
54.870        20
54.880        27
54.890         7
54.900        20
54.910        13
54.920         7
54.930        13
54.940        27
54.950        27
54.960         0
54.970        13
54.980        20
54.990        13
55.000        13
55.010        13
55.020        20
55.030         0
55.040        13
55.050        13
55.060        33
55.070         7
55.080        27
55.090        33
55.100        27
55.110        27
55.120        27
55.130        13
55.140         0
55.150         7
55.160        40
55.170        27
55.180        27
55.190        40
55.200        13
55.210         7
55.220        13
55.230        13
55.240        13
55.250        20
55.260        13
55.270        20
55.280        13
55.290        27
55.300        13
55.310        13
55.320        33
55.330         7
55.340        13
55.350        33
55.360        27
55.370        13
55.380         0
55.390         7
55.400        13
55.410        20
55.420        27
55.430        47
55.440        27
55.450        53
55.460        27
55.470        27
55.480        27
55.490        27
55.500        13
55.510        13
55.520        20
55.530        20
55.540        13
55.550        27
55.560         7
55.570        27
55.580        20
55.590        13
55.600        33
55.610        13
55.620        20
55.630        47
55.640        20
55.650        20
55.660        20
55.670        27
55.680        20
55.690        27
55.700        33
55.710         7
55.720        13
55.730        20
55.740        13
55.750        47
55.760        13
55.770        13
55.780         0
55.790        20
55.800        53
55.810        40
55.820         0
55.830         0
55.840        40
55.850        27
55.860        27
55.870        27
55.880        27
55.890        20
55.900        27
55.910         7
55.920        27
55.930        20
55.940        33
55.950        20
55.960        40
55.970        13
55.980        27
55.990        27
56.000         7
56.010        27
56.020        20
56.030        27
56.040        13
56.050         0
56.060        27
56.070        27
56.080        20
56.090        13
56.100        13
56.110        13
56.120        67
56.130        20
56.140         0
56.150        27
56.160        20
56.170        20
56.180        20
56.190         7
56.200        27
56.210        27
56.220         7
56.230        13
56.240         0
56.250        20
56.260        40
56.270         7
56.280        20
56.290         7
56.300         7
56.310         0
56.320        13
56.330        20
56.340        13
56.350        13
56.360        20
56.370        33
56.380        13
56.390         7
56.400        13
56.410        27
56.420         7
56.430        27
56.440        20
56.450         0
56.460         7
56.470         7
56.480        27
56.490        20
56.500        27
56.510        27
56.520        40
56.530        27
56.540        27
56.550        27
56.560        20
56.570        13
56.580         7
56.590        40
56.600        13
56.610        20
56.620        33
56.630        20
56.640         0
56.650         0
56.660        20
56.670        27
56.680        33
56.690        27
56.700        20
56.710         7
56.720        27
56.730         7
56.740        27
56.750         7
56.760        20
56.770        20
56.780         0
56.790        20
56.800         0
56.810        20
56.820        13
56.830        33
56.840        27
56.850        13
56.860        13
56.870        13
56.880        33
56.890        20
56.900        27
56.910         0
56.920         0
56.930         0
56.940         0
56.950        20
56.960         7
56.970        13
56.980         7
56.990        13
57.000        13
57.010        20
57.020        20
57.030         0
57.040         0
57.050        27
57.060        13
57.070        33
57.080         7
57.090        20
57.100        13
57.110        13
57.120        47
57.130        20
57.140        13
57.150        13
57.160        13
57.170        20
57.180        13
57.190         7
57.200        40
57.210        13
57.220        33
57.230        20
57.240        27
57.250        27
57.260         7
57.270         7
57.280         7
57.290        27
57.300         0
57.310         0
57.320         0
57.330        13
57.340        20
57.350        13
57.360        33
57.370        13
57.380         0
57.390        27
57.400         7
57.410        27
57.420        20
57.430        20
57.440         7
57.450        13
57.460        20
57.470        13
57.480        27
57.490         7
57.500         7
57.510         7
57.520         0
57.530        20
57.540         0
57.550        20
57.560        20
57.570        20
57.580         7
57.590        13
57.600        13
57.610        27
57.620        33
57.630        27
57.640         7
57.650        20
57.660        13
57.670        47
57.680        20
57.690        20
57.700        40
57.710         7
57.720        27
57.730        40
57.740        20
57.750        47
57.760        33
57.770        27
57.780        47
57.790        20
57.800        33
57.810        60
57.820        33
57.830        27
57.840        13
57.850        27
57.860        33
57.870         7
57.880        33
57.890        33
57.900        47
57.910        40
57.920        27
57.930        40
57.940        20
57.950        47
57.960        47
57.970         7
57.980        13
57.990         7
58.000        13
58.010        40
58.020        20
58.030        20
58.040        13
58.050        20
58.060        33
58.070        20
58.080        27
58.090        13
58.100        47
58.110        33
58.120        33
58.130        13
58.140        27
58.150        33
58.160        13
58.170        13
58.180        33
58.190        27
58.200        13
58.210        20
58.220        20
58.230        13
58.240        13
58.250        13
58.260        40
58.270        27
58.280        20
58.290        27
58.300        20
58.310        27
58.320        13
58.330        13
58.340        20
58.350        20
58.360        20
58.370        27
58.380        13
58.390        40
58.400         0
58.410        20
58.420         7
58.430        13
58.440        20
58.450        13
58.460        13
58.470        13
58.480        27
58.490         7
58.500        13
58.510        33
58.520         7
58.530         7
58.540         7
58.550        13
58.560        40
58.570        20
58.580        20
58.590        13
58.600        13
58.610        20
58.620         0
58.630         0
58.640        13
58.650         0
58.660         0
58.670        20
58.680        40
58.690        13
58.700        20
58.710        47
58.720         7
58.730         0
58.740        20
58.750        13
58.760        13
58.770        33
58.780        13
58.790         7
58.800        20
58.810         7
58.820        13
58.830         0
58.840         7
58.850         7
58.860         7
58.870        27
58.880        20
58.890         7
58.900        20
58.910         7
58.920         0
58.930        20
58.940         7
58.950        13
58.960        13
58.970        13
58.980         7
58.990        13
59.000        13
59.010         0
59.020         7
59.030         7
59.040        13
59.050        27
59.060        27
59.070         0
59.080         7
59.090         0
59.100         7
59.110        27
59.120        13
59.130        13
59.140        13
59.150        47
59.160         0
59.170        33
59.180         7
59.190        27
59.200         7
59.210        27
59.220        20
59.230         7
59.240        33
59.250         7
59.260         7
59.270        27
59.280        33
59.290        27
59.300        27
59.310         7
59.320         7
59.330        13
59.340         7
59.350        13
59.360         7
59.370         7
59.380        13
59.390        13
59.400        13
59.410        20
59.420         7
59.430        20
59.440        13
59.450         7
59.460         0
59.470        20
59.480        33
59.490        20
59.500         7
59.510        27
59.520        13
59.530        27
59.540        13
59.550         0
59.560         0
59.570         7
59.580         7
59.590         7
59.600        20
59.610        27
59.620        27
59.630        13
59.640        27
59.650        20
59.660         7
59.670         7
59.680         0
59.690        20
59.700        13
59.710         7
59.720         7
59.730        13
59.740         7
59.750         7
59.760        13
59.770        27
59.780        20
59.790        13
59.800        27
59.810        13
59.820         7
59.830         7
59.840         7
59.850        13
59.860         7
59.870        27
59.880         7
59.890         0
59.900         0
59.910        20
59.920        33
59.930         7
59.940        20
59.950        27
59.960        27
59.970         0
59.980        20
59.990        13
60.000        27
