20.000        53
20.010        33
20.020        20
20.030        33
20.040        33
20.050        27
20.060        73
20.070        67
20.080        87
20.090        53
20.100        53
20.110        33
20.120        27
20.130        53
20.140        47
20.150        40
20.160        53
20.170        27
20.180        20
20.190        80
20.200       100
20.210        33
20.220        87
20.230        60
20.240        27
20.250        80
20.260        47
20.270        53
20.280        47
20.290        53
20.300        40
20.310        27
20.320        53
20.330        33
20.340        60
20.350        60
20.360        40
20.370        60
20.380        93
20.390        47
20.400        60
20.410        80
20.420        20
20.430        27
20.440        53
20.450        47
20.460        53
20.470        60
20.480        27
20.490        47
20.500        87
20.510        27
20.520        40
20.530        40
20.540        60
20.550        60
20.560        80
20.570        60
20.580        47
20.590        47
20.600        67
20.610        53
20.620        60
20.630        13
20.640        60
20.650        40
20.660        67
20.670        60
20.680        33
20.690        67
20.700        20
20.710        27
20.720        47
20.730        27
20.740        40
20.750        47
20.760        33
20.770        47
20.780        47
20.790        53
20.800        53
20.810        40
20.820        27
20.830        47
20.840        67
20.850        27
20.860        40
20.870        47
20.880        60
20.890        47
20.900        67
20.910        60
20.920       113
20.930        47
20.940        80
20.950        60
20.960        53
20.970        20
20.980        53
20.990        27
21.000        53
21.010        47
21.020        27
21.030        20
21.040        40
21.050        33
21.060        47
21.070        13
21.080        53
21.090        53
21.100        33
21.110        60
21.120        33
21.130        87
21.140        33
21.150        40
21.160        53
21.170        60
21.180        33
21.190        40
21.200        47
21.210        53
21.220        27
21.230        47
21.240        40
21.250        93
21.260        27
21.270        33
21.280        33
21.290        33
21.300        53
21.310        67
21.320        27
21.330        53
21.340        33
21.350        27
21.360        53
21.370        67
21.380        40
21.390        47
21.400        53
21.410        67
21.420        40
21.430        80
21.440        40
21.450        47
21.460        13
21.470        40
21.480        47
21.490        80
21.500        13
21.510        47
21.520        53
21.530        27
21.540        53
21.550        53
21.560        67
21.570        27
21.580        60
21.590        80
21.600        20
21.610        27
21.620        33
21.630        73
21.640        40
21.650        53
21.660        47
21.670        20
21.680        67
21.690        53
21.700        40
21.710        33
21.720        33
21.730        60
21.740        73
21.750        53
21.760        33
21.770        27
21.780        60
21.790        33
21.800        40
21.810        20
21.820        47
21.830        27
21.840        47
21.850        20
21.860        60
21.870        27
21.880        47
21.890        53
21.900        27
21.910        40
21.920        33
21.930        40
21.940        80
21.950        73
21.960        40
21.970        40
21.980        27
21.990        40
22.000        40
22.010        27
22.020        53
22.030        40
22.040        47
22.050        40
22.060        53
22.070        47
22.080        47
22.090        53
22.100        60
22.110        60
22.120        47
22.130        27
22.140        33
22.150        33
22.160        60
22.170        67
22.180        53
22.190        60
22.200        47
22.210        33
22.220        33
22.230        33
22.240        47
22.250        13
22.260        20
22.270        20
22.280        20
22.290        33
22.300        40
22.310        47
22.320        40
22.330        33
22.340        40
22.350        33
22.360        40
22.370        40
22.380        27
22.390        67
22.400        53
22.410        67
22.420        67
22.430        47
22.440        40
22.450        73
22.460        60
22.470        60
22.480        87
22.490       120
22.500        80
22.510        67
22.520       113
22.530       127
22.540       107
22.550       100
22.560       107
22.570       147
22.580       133
22.590       153
22.600       193
22.610       160
22.620       133
22.630       180
22.640       193
22.650       247
22.660       207
22.670       313
22.680       333
22.690       207
22.700       313
22.710       253
22.720       267
22.730       153
22.740       200
22.750       240
22.760       187
22.770       193
22.780       120
22.790       160
22.800       120
22.810       180
22.820        93
22.830       120
22.840       127
22.850       120
22.860        93
22.870        67
22.880       120
22.890        87
22.900        60
22.910        67
22.920       127
22.930        40
22.940        80
22.950        47
22.960        87
22.970        47
22.980        67
22.990        33
23.000        53
23.010        73
23.020        93
23.030        33
23.040        53
23.050        80
23.060        53
23.070        67
23.080        73
23.090        40
23.100        67
23.110        20
23.120        40
23.130        20
23.140        47
23.150        27
23.160        27
23.170        60
23.180        80
23.190        40
23.200        47
23.210        40
23.220        13
23.230        27
23.240        27
23.250        27
23.260        47
23.270        67
23.280        73
23.290        40
23.300        13
23.310        33
23.320        27
23.330        40
23.340        80
23.350        33
23.360        27
23.370        20
23.380        60
23.390        27
23.400        33
23.410        33
23.420        47
23.430        20
23.440       100
23.450        40
23.460        27
23.470        33
23.480        60
23.490        40
23.500        33
23.510        60
23.520        40
23.530        47
23.540        47
23.550        80
23.560        13
23.570        53
23.580        67
23.590        47
23.600        13
23.610        33
23.620        53
23.630        27
23.640        47
23.650        53
23.660        60
23.670        53
23.680        40
23.690        40
23.700        13
23.710        60
23.720        33
23.730        40
23.740        27
23.750        33
23.760        53
23.770        20
23.780        33
23.790        47
23.800        27
23.810        33
23.820        53
23.830        47
23.840        53
23.850        13
23.860        47
23.870        13
23.880        47
23.890        40
23.900        53
23.910        20
23.920        60
23.930        27
23.940        40
23.950        33
23.960        47
23.970        47
23.980        47
23.990        33
24.000        60
24.010        20
24.020        27
24.030        20
24.040        47
24.050        40
24.060        27
24.070        27
24.080         7
24.090        27
24.100        53
24.110        60
24.120        20
24.130        13
24.140        47
24.150        27
24.160        33
24.170        33
24.180        40
24.190        40
24.200        47
24.210        53
24.220        13
24.230        40
24.240        47
24.250        53
24.260        27
24.270        53
24.280        27
24.290        27
24.300        20
24.310        20
24.320        73
24.330        20
24.340        33
24.350        73
24.360        27
24.370        27
24.380        40
24.390        27
24.400        33
24.410        73
24.420        27
24.430        40
24.440        33
24.450        27
24.460        60
24.470        33
24.480        27
24.490         7
24.500        33
24.510        47
24.520        20
24.530        33
24.540        47
24.550        67
24.560        40
24.570        60
24.580        20
24.590        27
24.600         7
24.610        80
24.620        60
24.630        53
24.640        20
24.650        33
24.660        27
24.670        60
24.680        20
24.690        33
24.700        47
24.710        27
24.720        20
24.730        20
24.740        20
24.750        33
24.760        27
24.770        27
24.780        20
24.790        73
24.800        47
24.810         0
24.820        47
24.830        27
24.840        20
24.850        27
24.860        20
24.870        47
24.880        27
24.890        67
24.900        53
24.910        33
24.920        27
24.930        60
24.940        47
24.950        47
24.960        27
24.970        27
24.980        40
24.990        40
25.000        53
25.010        27
25.020        60
25.030        67
25.040        27
25.050        60
25.060        60
25.070        13
25.080        40
25.090        47
25.100        60
25.110        20
25.120        47
25.130        33
25.140         7
25.150        53
25.160        40
25.170        47
25.180        27
25.190        40
25.200        47
25.210        13
25.220        60
25.230        47
25.240        20
25.250        27
25.260        40
25.270        40
25.280        27
25.290        33
25.300        33
25.310        53
25.320        40
25.330        27
25.340        33
25.350        33
25.360        47
25.370        27
25.380        47
25.390        53
25.400        73
25.410        47
25.420        60
25.430        60
25.440        33
25.450        47
25.460        33
25.470        47
25.480        67
25.490        93
25.500       113
25.510        87
25.520        60
25.530       107
25.540        80
25.550       100
25.560       140
25.570       153
25.580       133
25.590       153
25.600       127
25.610       187
25.620        80
25.630       107
25.640       100
25.650       100
25.660        27
25.670        80
25.680        80
25.690        87
25.700        47
25.710        47
25.720        33
25.730        47
25.740        20
25.750        33
25.760        67
25.770        33
25.780        13
25.790        13
25.800        20
25.810        33
25.820        47
25.830        33
25.840        33
25.850        40
25.860        40
25.870        27
25.880        27
25.890        33
25.900        27
25.910        60
25.920        47
25.930        20
25.940        33
25.950        27
25.960         0
25.970        27
25.980       100
25.990        20
26.000        27
26.010        33
26.020        53
26.030        20
26.040        27
26.050        20
26.060        33
26.070        20
26.080        27
26.090        27
26.100        53
26.110        20
26.120        20
26.130        53
26.140        40
26.150        47
26.160        47
26.170        67
26.180        47
26.190        27
26.200        40
26.210        20
26.220        40
26.230        40
26.240        33
26.250        20
26.260        33
26.270        33
26.280        60
26.290        53
26.300        73
26.310        47
26.320        13
26.330        33
26.340         7
26.350        20
26.360        33
26.370         7
26.380        47
26.390        20
26.400        47
26.410        20
26.420        33
26.430        47
26.440        33
26.450        13
26.460        20
26.470        47
26.480        53
26.490        27
26.500        13
26.510        47
26.520        47
26.530        20
26.540        20
26.550        20
26.560        47
26.570        20
26.580        40
26.590        27
26.600        40
26.610        33
26.620        13
26.630        27
26.640        20
26.650        27
26.660        47
26.670        47
26.680        27
26.690        20
26.700         7
26.710        40
26.720        40
26.730        13
26.740        13
26.750        20
26.760        67
26.770        27
26.780         7
26.790        40
26.800        20
26.810        40
26.820        53
26.830         7
26.840        13
26.850        27
26.860        40
26.870        33
26.880        67
26.890        47
26.900        47
26.910        20
26.920        27
26.930        27
26.940        20
26.950        47
26.960        47
26.970        20
26.980        33
26.990        20
27.000        33
27.010        33
27.020        20
27.030        20
27.040        53
27.050        27
27.060        53
27.070        27
27.080        27
27.090        13
27.100        60
27.110        47
27.120        20
27.130        93
27.140        27
27.150        20
27.160        40
27.170         7
27.180        27
27.190        20
27.200        53
27.210        20
27.220        47
27.230        13
27.240        47
27.250        33
27.260        27
27.270        53
27.280        40
27.290        27
27.300        13
27.310        47
27.320        33
27.330        40
27.340         7
27.350         7
27.360        33
27.370        33
27.380        13
27.390        20
27.400        20
27.410        53
27.420        40
27.430        33
27.440        40
27.450        33
27.460        13
27.470        60
27.480        40
27.490        27
27.500        33
27.510        40
27.520         7
27.530        27
27.540        13
27.550        33
27.560        20
27.570        20
27.580        40
27.590        73
27.600        53
27.610        27
27.620        27
27.630        40
27.640        67
27.650        13
27.660        33
27.670        20
27.680        40
27.690        27
27.700        13
27.710        27
27.720        27
27.730        33
27.740        20
27.750        47
27.760        33
27.770        73
27.780        27
27.790        40
27.800        40
27.810         7
27.820        47
27.830        40
27.840         7
27.850        40
27.860        33
27.870        13
27.880        13
27.890        33
27.900        27
27.910        13
27.920        60
27.930        47
27.940        33
27.950        47
27.960        33
27.970        53
27.980        60
27.990        53
28.000        20
28.010        40
28.020        27
28.030        47
28.040        40
28.050        13
28.060        33
28.070        33
28.080        33
28.090        40
28.100        27
28.110        33
28.120        13
28.130        27
28.140        27
28.150        40
28.160        47
28.170        33
28.180        27
28.190         0
28.200        27
28.210        33
28.220        33
28.230        53
28.240         0
28.250        33
28.260        40
28.270        40
28.280        47
28.290        27
28.300        33
28.310        40
28.320        33
28.330         7
28.340        13
28.350        33
28.360        40
28.370        27
28.380        40
28.390        33
28.400        20
28.410        47
28.420        47
28.430        13
28.440        27
28.450        40
28.460        13
28.470        40
28.480         7
28.490        47
28.500        13
28.510        40
28.520        40
28.530        33
28.540        47
28.550        27
28.560        27
28.570        73
28.580        47
28.590        13
28.600        13
28.610        13
28.620        53
28.630        33
28.640        40
28.650        33
28.660        27
28.670        27
28.680        53
28.690        20
28.700        20
28.710        20
28.720         7
28.730        40
28.740        53
28.750        27
28.760        40
28.770        20
28.780        27
28.790        33
28.800        53
28.810         7
28.820         7
28.830        40
28.840        27
28.850        33
28.860        40
28.870        60
28.880        27
28.890        33
28.900        47
28.910        27
28.920        27
28.930        33
28.940        53
28.950        33
28.960        53
28.970        27
28.980        13
28.990        47
29.000        20
29.010        53
29.020        40
29.030        33
29.040        40
29.050        40
29.060        33
29.070        20
29.080        87
29.090        27
29.100        20
29.110        33
29.120        40
29.130        20
29.140        13
29.150        33
29.160        33
29.170        53
29.180        60
29.190        27
29.200        47
29.210        27
29.220        67
29.230        33
29.240        53
29.250        33
29.260        33
29.270        47
29.280        27
29.290        20
29.300        13
29.310        40
29.320        20
29.330        47
29.340        40
29.350        27
29.360        13
29.370        27
29.380        13
29.390        27
29.400        20
29.410        20
29.420        40
29.430        40
29.440        20
29.450        47
29.460        27
29.470        67
29.480        27
29.490         7
29.500        20
29.510        47
29.520         7
29.530         7
29.540        40
29.550        53
29.560        33
29.570        20
29.580        27
29.590        47
29.600        47
29.610        47
29.620        20
29.630        27
29.640        40
29.650         0
29.660        40
29.670        20
29.680        27
29.690        47
29.700         7
29.710        27
29.720        20
29.730        20
29.740         7
29.750        27
29.760        27
29.770         0
29.780         7
29.790         7
29.800        27
29.810        40
29.820        33
29.830        27
29.840        13
29.850         7
29.860        40
29.870         0
29.880        47
29.890        13
29.900        20
29.910        53
29.920        40
29.930        27
29.940        27
29.950        20
29.960        27
29.970        27
29.980        47
29.990        53
30.000        20
30.010        20
30.020        47
30.030        13
30.040        20
30.050         7
30.060        33
30.070        27
30.080        53
30.090        33
30.100        20
30.110        33
30.120        33
30.130        13
30.140        27
30.150        33
30.160        33
30.170        20
30.180        40
30.190        40
30.200        27
30.210         7
30.220        20
30.230        40
30.240        33
30.250        40
30.260        40
30.270        40
30.280        20
30.290        13
30.300        33
30.310        27
30.320        27
30.330        47
30.340        33
30.350        20
30.360        20
30.370        13
30.380         7
30.390        20
30.400        47
30.410        27
30.420        13
30.430        27
30.440        27
30.450        60
30.460        20
30.470        60
30.480         7
30.490        27
30.500         7
30.510        13
30.520        33
30.530        20
30.540         7
30.550        33
30.560        27
30.570        13
30.580        27
30.590        27
30.600        40
30.610        27
30.620        33
30.630        13
30.640        53
30.650        13
30.660        27
30.670        20
30.680        13
30.690        13
30.700        40
30.710        13
30.720        13
30.730         7
30.740         7
30.750        20
30.760        47
30.770        13
30.780        33
30.790        27
30.800        33
30.810        47
30.820        40
30.830        27
30.840        53
30.850        33
30.860        40
30.870        33
30.880        53
30.890        33
30.900        13
30.910        60
30.920        20
30.930        20
30.940        33
30.950        27
30.960         0
30.970        40
30.980        13
30.990        20
31.000        20
31.010        13
31.020        13
31.030        13
31.040        13
31.050        20
31.060        33
31.070        20
31.080         7
31.090        20
31.100        40
31.110        53
31.120        13
31.130        20
31.140        13
31.150        20
31.160        27
31.170         7
31.180        27
31.190        27
31.200        33
31.210        27
31.220        33
31.230        33
31.240        33
31.250        27
31.260        20
31.270        20
31.280        27
31.290        27
31.300        20
31.310        33
31.320        40
31.330        67
31.340        67
31.350        33
31.360        13
31.370        60
31.380        20
31.390        47
31.400        33
31.410        20
31.420        20
31.430        33
31.440        27
31.450        27
31.460        27
31.470        27
31.480        53
31.490        20
31.500        20
31.510        60
31.520        27
31.530         7
31.540        13
31.550        33
31.560        47
31.570        20
31.580        27
31.590        27
31.600        47
31.610        33
31.620        40
31.630        33
31.640        13
31.650        80
31.660        33
31.670        47
31.680        33
31.690         7
31.700        27
31.710        27
31.720        40
31.730        60
31.740        13
31.750        27
31.760        20
31.770        40
31.780        33
31.790        40
31.800         7
31.810        47
31.820        40
31.830        40
31.840        27
31.850        80
31.860        33
31.870        13
31.880        33
31.890        47
31.900        60
31.910        40
31.920        27
31.930        20
31.940        33
31.950        13
31.960        13
31.970        53
31.980        33
31.990        40
32.000        40
32.010        60
32.020        33
32.030         7
32.040        40
32.050        53
32.060        53
32.070        80
32.080        40
32.090        80
32.100        40
32.110        60
32.120        87
32.130        93
32.140       120
32.150        73
32.160       147
32.170       153
32.180       133
32.190        87
32.200       173
32.210       167
32.220       167
32.230       220
32.240       173
32.250       320
32.260       247
32.270       353
32.280       320
32.290       353
32.300       360
32.310       273
32.320       307
32.330       387
32.340       446
32.350       486
32.360       466
32.370       553
32.380       526
32.390       633
32.400       486
32.410       600
32.420       600
32.430       420
32.440       453
32.450       473
32.460       486
32.470       446
32.480       333
32.490       407
32.500       340
32.510       280
32.520       287
32.530       333
32.540       233
32.550       220
32.560       213
32.570       180
32.580       240
32.590       107
32.600       107
32.610       120
32.620        93
32.630       120
32.640        80
32.650        53
32.660       107
32.670       100
32.680        67
32.690        40
32.700        47
32.710        73
32.720        40
32.730        13
32.740        47
32.750        60
32.760        60
32.770        40
32.780        53
32.790        47
32.800        67
32.810        47
32.820        27
32.830        33
32.840        73
32.850        53
32.860        20
32.870        13
32.880        47
32.890        40
32.900        47
32.910        40
32.920        27
32.930        40
32.940        13
32.950        13
32.960        33
32.970        33
32.980        13
32.990        60
33.000        20
33.010        53
33.020        40
33.030        33
33.040        27
33.050        20
33.060        27
33.070        33
33.080        20
33.090        20
33.100        53
33.110        40
33.120        27
33.130        27
33.140        33
33.150        40
33.160        27
33.170        33
33.180        60
33.190        20
33.200        13
33.210        33
33.220        20
33.230        13
33.240        33
33.250        27
33.260        13
33.270        40
33.280        33
33.290        13
33.300        60
33.310        40
33.320        27
33.330        33
33.340         7
33.350        60
33.360        33
33.370        20
33.380        13
33.390        33
33.400        47
33.410        33
33.420        20
33.430        13
33.440        13
33.450         7
33.460        20
33.470        13
33.480        27
33.490        33
33.500        13
33.510        27
33.520         7
33.530        27
33.540        40
33.550        13
33.560        53
33.570        20
33.580         7
33.590        13
33.600        13
33.610        27
33.620        20
33.630        47
33.640        20
33.650        40
33.660        33
33.670        13
33.680        27
33.690        13
33.700        27
33.710        47
33.720        40
33.730         7
33.740        40
33.750         7
33.760        20
33.770        33
33.780        20
33.790         7
33.800        40
33.810        53
33.820        33
33.830        47
33.840        20
33.850        20
33.860        40
33.870        20
33.880        20
33.890        33
33.900        47
33.910        20
33.920        27
33.930        47
33.940        40
33.950        40
33.960        40
33.970        13
33.980        33
33.990        33
34.000        20
34.010        67
34.020        47
34.030        27
34.040        53
34.050        33
34.060        20
34.070        27
34.080        47
34.090        33
34.100        27
34.110         7
34.120        13
34.130        33
34.140        47
34.150        20
34.160        13
34.170        53
34.180        27
34.190        13
34.200        27
34.210        47
34.220        53
34.230        13
34.240        27
34.250        60
34.260         7
34.270        13
34.280        47
34.290        20
34.300        20
34.310        33
34.320        20
34.330        27
34.340         7
34.350        33
34.360        27
34.370        40
34.380        20
34.390        20
34.400         7
34.410        13
34.420         7
34.430        20
34.440        40
34.450        13
34.460         7
34.470        20
34.480        13
34.490        33
34.500        20
34.510        33
34.520        33
34.530         7
34.540        53
34.550        27
34.560        27
34.570        13
34.580        40
34.590        40
34.600        27
34.610        27
34.620        27
34.630        20
34.640        20
34.650         0
34.660        40
34.670         7
34.680        13
34.690        33
34.700        13
34.710        47
34.720        40
34.730        20
34.740         0
34.750        13
34.760        13
34.770        33
34.780        20
34.790        33
34.800        27
34.810        27
34.820        40
34.830        40
34.840        20
34.850        27
34.860        33
34.870        27
34.880        40
34.890        33
34.900        47
34.910        40
34.920        60
34.930        47
34.940        67
34.950        67
34.960        60
34.970        80
34.980       113
34.990        67
35.000       107
35.010        73
35.020        80
35.030       133
35.040        93
35.050       133
35.060        73
35.070       213
35.080       160
35.090       300
35.100       253
35.110       360
35.120       413
35.130       493
35.140       580
35.150       540
35.160       733
35.170       700
35.180       566
35.190       626
35.200       420
35.210       407
35.220       493
35.230       313
35.240       333
35.250       353
35.260       327
35.270       267
35.280       220
35.290       253
35.300        80
35.310       113
35.320        87
35.330        87
35.340        73
35.350        40
35.360        33
35.370        40
35.380        33
35.390        47
35.400        40
35.410        27
35.420        40
35.430        27
35.440        27
35.450        47
35.460        40
35.470        13
35.480        27
35.490        13
35.500        60
35.510        40
35.520        20
35.530        47
35.540        53
35.550        33
35.560        33
35.570        13
35.580        13
35.590        73
35.600         7
35.610        13
35.620        73
35.630        20
35.640        33
35.650        13
35.660        33
35.670        27
35.680        47
35.690        13
35.700        13
35.710        20
35.720        27
35.730        53
35.740        13
35.750        13
35.760        53
35.770        20
35.780        13
35.790        33
35.800        20
35.810        60
35.820        33
35.830        40
35.840        27
35.850        20
35.860        40
35.870        40
35.880        40
35.890        20
35.900        13
35.910        67
35.920         0
35.930        13
35.940         7
35.950        40
35.960        20
35.970        13
35.980        53
35.990        27
36.000        40
36.010        33
36.020         0
36.030        13
36.040        27
36.050        53
36.060        33
36.070        27
36.080        27
36.090         7
36.100        20
36.110        27
36.120        13
36.130        33
36.140        27
36.150        27
36.160        33
36.170        20
36.180        33
36.190        20
36.200        20
36.210         7
36.220        13
36.230        53
36.240        20
36.250        40
36.260        47
36.270        20
36.280         7
36.290        27
36.300        20
36.310        27
36.320        20
36.330        53
36.340        27
36.350        33
36.360        33
36.370        27
36.380        27
36.390        33
36.400        53
36.410        20
36.420         7
36.430        33
36.440        33
36.450        13
36.460        13
36.470        27
36.480        27
36.490        27
36.500        27
36.510        20
36.520        20
36.530        13
36.540        40
36.550        40
36.560        13
36.570        27
36.580        20
36.590        27
36.600        33
36.610        13
36.620        33
36.630        27
36.640        20
36.650        13
36.660        40
36.670        27
36.680        13
36.690        33
36.700        27
36.710        13
36.720        20
36.730        13
36.740         7
36.750        20
36.760        20
36.770         7
36.780        20
36.790        27
36.800        27
36.810        33
36.820        27
36.830        13
36.840        27
36.850        40
36.860         7
36.870        40
36.880        27
36.890        13
36.900        33
36.910        60
36.920        27
36.930        47
36.940        53
36.950        20
36.960         7
36.970        53
36.980        40
36.990        40
37.000        27
37.010        40
37.020        20
37.030        40
37.040        27
37.050        33
37.060        20
37.070        40
37.080        27
37.090        27
37.100        27
37.110        47
37.120        60
37.130        47
37.140        60
37.150        40
37.160        27
37.170        47
37.180         7
37.190        33
37.200        33
37.210        33
37.220        27
37.230        27
37.240         7
37.250        13
37.260        53
37.270        27
37.280        33
37.290        13
37.300        47
37.310        20
37.320         7
37.330        20
37.340        20
37.350        33
37.360         0
37.370        20
37.380        20
37.390        20
37.400        20
37.410        20
37.420        27
37.430         7
37.440        40
37.450        60
37.460        13
37.470        27
37.480        13
37.490        27
37.500        47
37.510        13
37.520        53
37.530        33
37.540        20
37.550         7
37.560        20
37.570        47
37.580        27
37.590        27
37.600        13
37.610        20
37.620        13
37.630        67
37.640        33
37.650         7
37.660        33
37.670        27
37.680        13
37.690        60
37.700        47
37.710        53
37.720        40
37.730        53
37.740        80
37.750        67
37.760        87
37.770        87
37.780       113
37.790        93
37.800       120
37.810        80
37.820       100
37.830        33
37.840        13
37.850        40
37.860        67
37.870        53
37.880        60
37.890        40
37.900       100
37.910        47
37.920        27
37.930        33
37.940        20
37.950        20
37.960        47
37.970        27
37.980        53
37.990        13
38.000        40
38.010         7
38.020        33
38.030        67
38.040        20
38.050         7
38.060        27
38.070        27
38.080        33
38.090        13
38.100        13
38.110        73
38.120        27
38.130        13
38.140        20
38.150        27
38.160         7
38.170        13
38.180         7
38.190        33
38.200         0
38.210        13
38.220        27
38.230         7
38.240        33
38.250        13
38.260         0
38.270        27
38.280        27
38.290        13
38.300        33
38.310        33
38.320        27
38.330        53
38.340        13
38.350        27
38.360        20
38.370        33
38.380         7
38.390        27
38.400        27
38.410         7
38.420         0
38.430        13
38.440         7
38.450         0
38.460        20
38.470        13
38.480        20
38.490        27
38.500        13
38.510        33
38.520        33
38.530        20
38.540        33
38.550        20
38.560        20
38.570        27
38.580        20
38.590        27
38.600        20
38.610         7
38.620        40
38.630        33
38.640        47
38.650        20
38.660        20
38.670        33
38.680        27
38.690         7
38.700        20
38.710        27
38.720         7
38.730        33
38.740        13
38.750        53
38.760        40
38.770         7
38.780         7
38.790        20
38.800        27
38.810        20
38.820        33
38.830        13
38.840        20
38.850         7
38.860        13
38.870        13
38.880        20
38.890        40
38.900        33
38.910        33
38.920        27
38.930        20
38.940        40
38.950        60
38.960        20
38.970        20
38.980        20
38.990         7
39.000        40
39.010         7
39.020        33
39.030         7
39.040        20
39.050        40
39.060        20
39.070        20
39.080        13
39.090         0
39.100        33
39.110        13
39.120        20
39.130        33
39.140        27
39.150         0
39.160        40
39.170        27
39.180         7
39.190        40
39.200         0
39.210        13
39.220        20
39.230        33
39.240         0
39.250        13
39.260        27
39.270        40
39.280        27
39.290        40
39.300        20
39.310        33
39.320        20
39.330        13
39.340        27
39.350        27
39.360        20
39.370        27
39.380        13
39.390        27
39.400         0
39.410        20
39.420         7
39.430        20
39.440         7
39.450        33
39.460        20
39.470        53
39.480        60
39.490        27
39.500        13
39.510        13
39.520        53
39.530        40
39.540        33
39.550         7
39.560        27
39.570        33
39.580        13
39.590        27
39.600        40
39.610        20
39.620        13
39.630        47
39.640        33
39.650        27
39.660        20
39.670        27
39.680        33
39.690        20
39.700        27
39.710         7
39.720        27
39.730        27
39.740        33
39.750        47
39.760        20
39.770        33
39.780        20
39.790         7
39.800        53
39.810        27
39.820        47
39.830        53
39.840        40
39.850        47
39.860        47
39.870        60
39.880        53
39.890        53
39.900        67
39.910        33
39.920        87
39.930        67
39.940        73
39.950       113
39.960       120
39.970        87
39.980       100
39.990       133
40.000        93
40.010        67
40.020        80
40.030       107
40.040        73
40.050        80
40.060       127
40.070        93
40.080        67
40.090        80
40.100        60
40.110        60
40.120        67
40.130        47
40.140        67
40.150        47
40.160        40
40.170        33
40.180        60
40.190        33
40.200        20
40.210        27
40.220        53
40.230        20
40.240        27
40.250         0
40.260        13
40.270        20
40.280        47
40.290        33
40.300        33
40.310        27
40.320        33
40.330        33
40.340        20
40.350        73
40.360         7
40.370        13
40.380        13
40.390        53
40.400        33
40.410        20
40.420        33
40.430        27
40.440        27
40.450        33
40.460        13
40.470        27
40.480        27
40.490        20
40.500        13
40.510        20
40.520         0
40.530        27
40.540        20
40.550        13
40.560        20
40.570        13
40.580        20
40.590        33
40.600        20
40.610        20
40.620        33
40.630        33
40.640        13
40.650        20
40.660        33
40.670        33
40.680        13
40.690        60
40.700        20
40.710        20
40.720        20
40.730        47
40.740        33
40.750        40
40.760        33
40.770         7
40.780        20
40.790         7
40.800        27
40.810        33
40.820        40
40.830        13
40.840        20
40.850        27
40.860        13
40.870        13
40.880        27
40.890        27
40.900        33
40.910        20
40.920        53
40.930        27
40.940        13
40.950        33
40.960        20
40.970        53
40.980        20
40.990        27
41.000        33
41.010        27
41.020        27
41.030        33
41.040         7
41.050        20
41.060        33
41.070        13
41.080        13
41.090        13
41.100        13
41.110         7
41.120         7
41.130        20
41.140        20
41.150        13
41.160        20
41.170        40
41.180        20
41.190        33
41.200        47
41.210        20
41.220        13
41.230        33
41.240        33
41.250         7
41.260         7
41.270        13
41.280        20
41.290        33
41.300        13
41.310        13
41.320        53
41.330        40
41.340        20
41.350         7
41.360        47
41.370        60
41.380        27
41.390        53
41.400        33
41.410        27
41.420        27
41.430        20
41.440        40
41.450        13
41.460        40
41.470        27
41.480        53
41.490        40
41.500        60
41.510        13
41.520        20
41.530        67
41.540        40
41.550       100
41.560       100
41.570        53
41.580        60
41.590        13
41.600        80
41.610        47
41.620       107
41.630        67
41.640       127
41.650        60
41.660        80
41.670       140
41.680       120
41.690       173
41.700        80
41.710        73
41.720        87
41.730        87
41.740       113
41.750       113
41.760        40
41.770        60
41.780        60
41.790       100
41.800        93
41.810        80
41.820        80
41.830        47
41.840        60
41.850        40
41.860        73
41.870        20
41.880        40
41.890        67
41.900        27
41.910        67
41.920        60
41.930        40
41.940        27
41.950        40
41.960        27
41.970        33
41.980        33
41.990        40
42.000        27
42.010        13
42.020        33
42.030        33
42.040        20
42.050        20
42.060        33
42.070        13
42.080        27
42.090        27
42.100        33
42.110        27
42.120        27
42.130        47
42.140         7
42.150        20
42.160        20
42.170        40
42.180        13
42.190        13
42.200        33
42.210        20
42.220        40
42.230        27
42.240        13
42.250        13
42.260        20
42.270        40
42.280        27
42.290         7
42.300        13
42.310        40
42.320         7
42.330        40
42.340        33
42.350        40
42.360        20
42.370        27
42.380        27
42.390        20
42.400         0
42.410        40
42.420        13
42.430        60
42.440        13
42.450        27
42.460        67
42.470        27
42.480        40
42.490         7
42.500        33
42.510        27
42.520         0
42.530        33
42.540         7
42.550        27
42.560        47
42.570        20
42.580        20
42.590         0
42.600        20
42.610        40
42.620        13
42.630        40
42.640        13
42.650        40
42.660        13
42.670        53
42.680        40
42.690        20
42.700        20
42.710        27
42.720        13
42.730        20
42.740        27
42.750        20
42.760        27
42.770        27
42.780        20
42.790        27
42.800         0
42.810        20
42.820        13
42.830        20
42.840        13
42.850         7
42.860        27
42.870        13
42.880        13
42.890        47
42.900        33
42.910        27
42.920        27
42.930        13
42.940        33
42.950        13
42.960        20
42.970        33
42.980        27
42.990        33
43.000        27
43.010         7
43.020        27
43.030        20
43.040        13
43.050        33
43.060        53
43.070        33
43.080        27
43.090        13
43.100        40
43.110        13
43.120        67
43.130        40
43.140        47
43.150        53
43.160        13
43.170        33
43.180        93
43.190        40
43.200        33
43.210        73
43.220        60
43.230        33
43.240        60
43.250        40
43.260        73
43.270        73
43.280       107
43.290       173
43.300       120
43.310       253
43.320       220
43.330       293
43.340       267
43.350       393
43.360       373
43.370       387
43.380       500
43.390       307
43.400       347
43.410       260
43.420       247
43.430       247
43.440       240
43.450       200
43.460       127
43.470       213
43.480       200
43.490       193
43.500       180
43.510       147
43.520        87
43.530        87
43.540        60
43.550        73
43.560        27
43.570        80
43.580        27
43.590        20
43.600        27
43.610        33
43.620        47
43.630        20
43.640        13
43.650        33
43.660        20
43.670        40
43.680        20
43.690         7
43.700        20
43.710        47
43.720        20
43.730         7
43.740        40
43.750        20
43.760        20
43.770        27
43.780        47
43.790        13
43.800         7
43.810        47
43.820        20
43.830        40
43.840        60
43.850        13
43.860        20
43.870        20
43.880        13
43.890        27
43.900        33
43.910        20
43.920        47
43.930        33
43.940        33
43.950        27
43.960        33
43.970        13
43.980        40
43.990        20
44.000        40
44.010        13
44.020         0
44.030        40
44.040        13
44.050        20
44.060        13
44.070        33
44.080        20
44.090        20
44.100         0
44.110        27
44.120        13
44.130        27
44.140        13
44.150        13
44.160        27
44.170        20
44.180        20
44.190        13
44.200         7
44.210        40
44.220         7
44.230        13
44.240        47
44.250        33
44.260        13
44.270        53
44.280        47
44.290        13
44.300        47
44.310        20
44.320        40
44.330        27
44.340        53
44.350        53
44.360        33
44.370        27
44.380        60
44.390        47
44.400        47
44.410        20
44.420        27
44.430        20
44.440        13
44.450        13
44.460        27
44.470        27
44.480        33
44.490        13
44.500        20
44.510        53
44.520        67
44.530        20
44.540        33
44.550         0
44.560        47
44.570        47
44.580        53
44.590        47
44.600        47
44.610        33
44.620        47
44.630        20
44.640        60
44.650        13
44.660        67
44.670        27
44.680        40
44.690        27
44.700        47
44.710        40
44.720        27
44.730        27
44.740        47
44.750        13
44.760        33
44.770        13
44.780        27
44.790        40
44.800        40
44.810        20
44.820        40
44.830        53
44.840        40
44.850        40
44.860        20
44.870        20
44.880        47
44.890        20
44.900        60
44.910        67
44.920        13
44.930        40
44.940        53
44.950        40
44.960        47
44.970        67
44.980        47
44.990        33
45.000        33
45.010        27
45.020        27
45.030        80
45.040        53
45.050        47
45.060        33
45.070        20
45.080        40
45.090        53
45.100        40
45.110        47
45.120        47
45.130        67
45.140        47
45.150        40
45.160        47
45.170        27
45.180        60
45.190        27
45.200        67
45.210        73
45.220        47
45.230        40
45.240        53
45.250        47
45.260        47
45.270        27
45.280        60
45.290        60
45.300        33
45.310        47
45.320        73
45.330        60
45.340        60
45.350        40
45.360        60
45.370        87
45.380        27
45.390        40
45.400        20
45.410        67
45.420        60
45.430        67
45.440        73
45.450        67
45.460        87
45.470        60
45.480        40
45.490        40
45.500        53
45.510        27
45.520        53
45.530        67
45.540        87
45.550        73
45.560        93
45.570        73
45.580        60
45.590        87
45.600        60
45.610        47
45.620       100
45.630        40
45.640       100
45.650        87
45.660       107
45.670        87
45.680       100
45.690       147
45.700       120
45.710        80
45.720        80
45.730       100
45.740       100
45.750       133
45.760        87
45.770       120
45.780       113
45.790       120
45.800       147
45.810       147
45.820       153
45.830       160
45.840       147
45.850       173
45.860       153
45.870       207
45.880       200
45.890       193
45.900       187
45.910       253
45.920       247
45.930       233
45.940       233
45.950       280
45.960       320
45.970       300
45.980       293
45.990       320
46.000       340
46.010       360
46.020       353
46.030       420
46.040       407
46.050       526
46.060       513
46.070       520
46.080       500
46.090       686
46.100       613
46.110       533
46.120       640
46.130       780
46.140       786
46.150       813
46.160       973
46.170       920
46.180      1040
46.190      1146
46.200      1000
46.210      1160
46.220      1240
46.230      1166
46.240      1080
46.250      1226
46.260      1506
46.270      1313
46.280      1446
46.290      1553
46.300      1719
46.310      1813
46.320      1933
46.330      1826
46.340      2033
46.350      1806
46.360      1826
46.370      2099
46.380      1613
46.390      1759
46.400      1986
46.410      1946
46.420      1819
46.430      1686
46.440      1613
46.450      1933
46.460      1673
46.470      1506
46.480      1713
46.490      1659
46.500      1419
46.510      1513
46.520      1433
46.530      1459
46.540      1353
46.550      1213
46.560      1020
46.570      1140
46.580       980
46.590       900
46.600       940
46.610       853
46.620       720
46.630       693
46.640       693
46.650       660
46.660       693
46.670       540
46.680       420
46.690       540
46.700       373
46.710       453
46.720       446
46.730       486
46.740       387
46.750       373
46.760       380
46.770       320
46.780       420
46.790       320
46.800       313
46.810       200
46.820       293
46.830       193
46.840       207
46.850       213
46.860       133
46.870       180
46.880       193
46.890       140
46.900       120
46.910       200
46.920       113
46.930       160
46.940       153
46.950       153
46.960       133
46.970       147
46.980       140
46.990       147
47.000       153
47.010       127
47.020       133
47.030       147
47.040       100
47.050        73
47.060        73
47.070       107
47.080        87
47.090       107
47.100        73
47.110        87
47.120       100
47.130        80
47.140        93
47.150       100
47.160        93
47.170        60
47.180        67
47.190        60
47.200        87
47.210        87
47.220       100
47.230        87
47.240        40
47.250        47
47.260        80
47.270       107
47.280        80
47.290        67
47.300        73
47.310        80
47.320        33
47.330        67
47.340        93
47.350        67
47.360        60
47.370        87
47.380        60
47.390        87
47.400        73
47.410        47
47.420        73
47.430        20
47.440        40
47.450        47
47.460        60
47.470        20
47.480        47
47.490        67
47.500        27
47.510        33
47.520        13
47.530        27
47.540        40
47.550        47
47.560        53
47.570        60
47.580        33
47.590        40
47.600        13
47.610        53
47.620        27
47.630        47
47.640        40
47.650        40
47.660        33
47.670        53
47.680        40
47.690        60
47.700        27
47.710        80
47.720        40
47.730        27
47.740        53
47.750        60
47.760        47
47.770        40
47.780        60
47.790        20
47.800        27
47.810        73
47.820        40
47.830        33
47.840        60
47.850        40
47.860        13
47.870        13
47.880        20
47.890        33
47.900        60
47.910         7
47.920        47
47.930        33
47.940        33
47.950        33
47.960        33
47.970        33
47.980        40
47.990        27
48.000        53
48.010        20
48.020        33
48.030        53
48.040        27
48.050        33
48.060        53
48.070        33
48.080        33
48.090        40
48.100        33
48.110        27
48.120        60
48.130        33
48.140        53
48.150        47
48.160         7
48.170        40
48.180        33
48.190        13
48.200        47
48.210        53
48.220        27
48.230        33
48.240        40
48.250        13
48.260        27
48.270         7
48.280        20
48.290        20
48.300        27
48.310        53
48.320        33
48.330        13
48.340        13
48.350        33
48.360        20
48.370        40
48.380        27
48.390        13
48.400        40
48.410         7
48.420        53
48.430        27
48.440        27
48.450        40
48.460         7
48.470        53
48.480        47
48.490        40
48.500        20
48.510        33
48.520        33
48.530        13
48.540        20
48.550        47
48.560        20
48.570        33
48.580        47
48.590        47
48.600        33
48.610        20
48.620        27
48.630        47
48.640        33
48.650        40
48.660        27
48.670        33
48.680        40
48.690        13
48.700        33
48.710        20
48.720        27
48.730        53
48.740        33
48.750         0
48.760        40
48.770        33
48.780         7
48.790        53
48.800        13
48.810        13
48.820        20
48.830        33
48.840        33
48.850        13
48.860        33
48.870        20
48.880        13
48.890        20
48.900        33
48.910        33
48.920        13
48.930        47
48.940        13
48.950         7
48.960        33
48.970        40
48.980        13
48.990        60
49.000        20
49.010        47
49.020        20
49.030         7
49.040        20
49.050        13
49.060        20
49.070        33
49.080        33
49.090        60
49.100        20
49.110        27
49.120        20
49.130        13
49.140        40
49.150        33
49.160        67
49.170         7
49.180        47
49.190        27
49.200        40
49.210        47
49.220        13
49.230        20
49.240        40
49.250        27
49.260        13
49.270        47
49.280        47
49.290        27
49.300         7
49.310        33
49.320        13
49.330        40
49.340         7
49.350        13
49.360        60
49.370        20
49.380         7
49.390        40
49.400        20
49.410        13
49.420        27
49.430         0
49.440        20
49.450        60
49.460        20
49.470        33
49.480        20
49.490        20
49.500        13
49.510        40
49.520        20
49.530        13
49.540        20
49.550         7
49.560        13
49.570        33
49.580        13
49.590        20
49.600        13
49.610         7
49.620        40
49.630        20
49.640         7
49.650         0
49.660        20
49.670        13
49.680        20
49.690        40
49.700        33
49.710        27
49.720        40
49.730        33
49.740         0
49.750        13
49.760        53
49.770        40
49.780        27
49.790        33
49.800        33
49.810        40
49.820         7
49.830        20
49.840         7
49.850        33
49.860        27
49.870        20
49.880        27
49.890        13
49.900        13
49.910        20
49.920        27
49.930        27
49.940        40
49.950        33
49.960        40
49.970        40
49.980        13
49.990        47
50.000        27
50.010        20
50.020         7
50.030        27
50.040        20
50.050        73
50.060        27
50.070        27
50.080        27
50.090        40
50.100        27
50.110        13
50.120        67
50.130        27
50.140        20
50.150        33
50.160        33
50.170        27
50.180        13
50.190        47
50.200        40
50.210        13
50.220        13
50.230        13
50.240        13
50.250        33
50.260        40
50.270        33
50.280        33
50.290        27
50.300        33
50.310        13
50.320        33
50.330         0
50.340        27
50.350         7
50.360        33
50.370        20
50.380        33
50.390         7
50.400        33
50.410        33
50.420        20
50.430        20
50.440        13
50.450        27
50.460        47
50.470        53
50.480         0
50.490        20
50.500        27
50.510        13
50.520        20
50.530        40
50.540        13
50.550        53
50.560        20
50.570        27
50.580        20
50.590        13
50.600         7
50.610         7
50.620        33
50.630        33
50.640        20
50.650        13
50.660        20
50.670        20
50.680         7
50.690        40
50.700        13
50.710        13
50.720        40
50.730        27
50.740        33
50.750        27
50.760         7
50.770        13
50.780        40
50.790        27
50.800        33
50.810         7
50.820        20
50.830        40
50.840        20
50.850        33
50.860        13
50.870        47
50.880        27
50.890         7
50.900        47
50.910        13
50.920        40
50.930        27
50.940        33
50.950        27
50.960        27
50.970        47
50.980        13
50.990        60
51.000        33
51.010        27
51.020        13
51.030        20
51.040        27
51.050        13
51.060        47
51.070        13
51.080        20
51.090        33
51.100        13
51.110        20
51.120        27
51.130        40
51.140        33
51.150        13
51.160        27
51.170        27
51.180        27
51.190        33
51.200        27
51.210        20
51.220         0
51.230        20
51.240        13
51.250        13
51.260        27
51.270        80
51.280        20
51.290        13
51.300        27
51.310        20
51.320        27
51.330        20
51.340        20
51.350        20
51.360        20
51.370        33
51.380        20
51.390        13
51.400        20
51.410        33
51.420        13
51.430        20
51.440        47
51.450        40
51.460        13
51.470        33
51.480        27
51.490        13
51.500        33
51.510        13
51.520        27
51.530        47
51.540        27
51.550        53
51.560        47
51.570        20
51.580        27
51.590        27
51.600        27
51.610        13
51.620        47
51.630        40
51.640        27
51.650        33
51.660         7
51.670        33
51.680        47
51.690        20
51.700        33
51.710        33
51.720        47
51.730        27
51.740        40
51.750        20
51.760        53
51.770         7
51.780        13
51.790         0
51.800        27
51.810        20
51.820        60
51.830         7
51.840        40
51.850        20
51.860        20
51.870        20
51.880        20
51.890        27
51.900        27
51.910        13
51.920        13
51.930        20
51.940        13
51.950        13
51.960        20
51.970        13
51.980        47
51.990        53
52.000        20
52.010        53
52.020        20
52.030         7
52.040        13
52.050        27
52.060        33
52.070        27
52.080        27
52.090         7
52.100        33
52.110        20
52.120        13
52.130        13
52.140        27
52.150        20
52.160         0
52.170        27
52.180        20
52.190        33
52.200        27
52.210         0
52.220        20
52.230        47
52.240        20
52.250        13
52.260        40
52.270        20
52.280        20
52.290        13
52.300        13
52.310        60
52.320        20
52.330        20
52.340        40
52.350        40
52.360        27
52.370        47
52.380        27
52.390        27
52.400        40
52.410        40
52.420        53
52.430        80
52.440        60
52.450        67
52.460        93
52.470        60
52.480        60
52.490       140
52.500        87
52.510       147
52.520       167
52.530       280
52.540       426
52.550       413
52.560       460
52.570       720
52.580       573
52.590       486
52.600       420
52.610       313
52.620       233
52.630       153
52.640       140
52.650       133
52.660       160
52.670       140
52.680       260
52.690       293
52.700       307
52.710       273
52.720       400
52.730       200
52.740       240
52.750       147
52.760       127
52.770       100
52.780       100
52.790        60
52.800        27
52.810        13
52.820        33
52.830        67
52.840        53
52.850        20
52.860        20
52.870        33
52.880        13
52.890        40
52.900        40
52.910        27
52.920        27
52.930        40
52.940        27
52.950        20
52.960        13
52.970        20
52.980        40
52.990         7
53.000        40
53.010        13
53.020        27
53.030        27
53.040        33
53.050        33
53.060        47
53.070        33
53.080         7
53.090        67
53.100         7
53.110        20
53.120        60
53.130        20
53.140        13
53.150        47
53.160        20
53.170        33
53.180        33
53.190        13
53.200        33
53.210        27
53.220        33
53.230        13
53.240        47
53.250         7
53.260        27
53.270        40
53.280        13
53.290         7
53.300        33
53.310         7
53.320         7
53.330        20
53.340        13
53.350         7
53.360        20
53.370        13
53.380        20
53.390        40
53.400         0
53.410        20
53.420        13
53.430        27
53.440        13
53.450        13
53.460        20
53.470        20
53.480        13
53.490         7
53.500        33
53.510        27
53.520        27
53.530         7
53.540        20
53.550        27
53.560        13
53.570        27
53.580        27
53.590        27
53.600        20
53.610         7
53.620        33
53.630        47
53.640        47
53.650        40
53.660         7
53.670        27
53.680        13
53.690         7
53.700        13
53.710         0
53.720        33
53.730        20
53.740        40
53.750        13
53.760         7
53.770         0
53.780        27
53.790        20
53.800        20
53.810        27
53.820        27
53.830        40
53.840        13
53.850        27
53.860         0
53.870        13
53.880        20
53.890        27
53.900        33
53.910        27
53.920         0
53.930        13
53.940        13
53.950        27
53.960        47
53.970        33
53.980         7
53.990        27
54.000         0
54.010        20
54.020        60
54.030        13
54.040        20
54.050        33
54.060        20
54.070        27
54.080        27
54.090        13
54.100        13
54.110         7
54.120        13
54.130         7
54.140        20
54.150        27
54.160        27
54.170        20
54.180         0
54.190        27
54.200         7
54.210        20
54.220        13
54.230        33
54.240        27
54.250        13
54.260        27
54.270        40
54.280        20
54.290        40
54.300        13
54.310        13
54.320         0
54.330         7
54.340        20
54.350        20
54.360        27
54.370        27
54.380        13
54.390        33
54.400        20
54.410        27
54.420         7
54.430        33
54.440        13
54.450        13
54.460        60
54.470        13
54.480        20
54.490        27
54.500        20
54.510        27
54.520        47
54.530        33
54.540        20
54.550        20
54.560        27
54.570        40
54.580        20
54.590        47
54.600         7
54.610        47
54.620        20
54.630        13
54.640         7
54.650        40
54.660        20
54.670         7
54.680        13
54.690         7
54.700        20
54.710        20
54.720        13
54.730        27
54.740        27
54.750        13
54.760        20
54.770        47
54.780        27
54.790        27
54.800        27
54.810        13
54.820         7
54.830         7
54.840        40
54.850        33
54.860        27
54.870        20
54.880        27
54.890        27
54.900        27
54.910        13
54.920         7
54.930        13
54.940        13
54.950         7
54.960         0
54.970        13
54.980        13
54.990        20
55.000         7
55.010        13
55.020         7
55.030        20
55.040        20
55.050        27
55.060         0
55.070        13
55.080        27
55.090        33
55.100        20
55.110        40
55.120        13
55.130        33
55.140        13
55.150        27
55.160         7
55.170        13
55.180         7
55.190        20
55.200        27
55.210        20
55.220        13
55.230        20
55.240        20
55.250        40
55.260        27
55.270         7
55.280        13
55.290         0
55.300        33
55.310        20
55.320         0
55.330        20
55.340        13
55.350         0
55.360         0
55.370        13
55.380        40
55.390        13
55.400        27
55.410        27
55.420         7
55.430        13
55.440        20
55.450        13
55.460        27
55.470        20
55.480         7
55.490        20
55.500        20
55.510        20
55.520        33
55.530         7
55.540        33
55.550         7
55.560        33
55.570        27
55.580        13
55.590        20
55.600        20
55.610        27
55.620         0
55.630        13
55.640        33
55.650        27
55.660        33
55.670        53
55.680        27
55.690        20
55.700        20
55.710        20
55.720        20
55.730        20
55.740        13
55.750        20
55.760         7
55.770         7
55.780        33
55.790         0
55.800         7
55.810        27
55.820        40
55.830        33
55.840        27
55.850        13
55.860        67
55.870        27
55.880        27
55.890        20
55.900        27
55.910        27
55.920        20
55.930        27
55.940        13
55.950        13
55.960         0
55.970        13
55.980        20
55.990        27
56.000        20
56.010        60
56.020        13
56.030         7
56.040        13
56.050         7
56.060        13
56.070        13
56.080         7
56.090        40
56.100        27
56.110         0
56.120        20
56.130        20
56.140        33
56.150        33
56.160        20
56.170        33
56.180         7
56.190        20
56.200        27
56.210         7
56.220        27
56.230        13
56.240        27
56.250         0
56.260        27
56.270         0
56.280        13
56.290        33
56.300        33
56.310        13
56.320        27
56.330        20
56.340        20
56.350        13
56.360        47
56.370        13
56.380        20
56.390        13
56.400        20
56.410         7
56.420        13
56.430        27
56.440        27
56.450        27
56.460         7
56.470         7
56.480        33
56.490        33
56.500         7
56.510         7
56.520        40
56.530         7
56.540        27
56.550        13
56.560         7
56.570         7
56.580        13
56.590        60
56.600        27
56.610        20
56.620        27
56.630        27
56.640        13
56.650         0
56.660        13
56.670         7
56.680        13
56.690        20
56.700        20
56.710        33
56.720        20
56.730         7
56.740        33
56.750         7
56.760        33
56.770         7
56.780        33
56.790        13
56.800        20
56.810        13
56.820        27
56.830         7
56.840        13
56.850         7
56.860        33
56.870        13
56.880        40
56.890        33
56.900        20
56.910        20
56.920        27
56.930         7
56.940        33
56.950        40
56.960         0
56.970        13
56.980        53
56.990        27
57.000        33
57.010        20
57.020        27
57.030        33
57.040        20
57.050        20
57.060        20
57.070         7
57.080        13
57.090        27
57.100        40
57.110        20
57.120        33
57.130        13
57.140        40
57.150        13
57.160         7
57.170        13
57.180        33
57.190        13
57.200        13
57.210        40
57.220        33
57.230        40
57.240        27
57.250        20
57.260        27
57.270        60
57.280        27
57.290        47
57.300        60
57.310        53
57.320        67
57.330        40
57.340        40
57.350        53
57.360        47
57.370       100
57.380        93
57.390        80
57.400       100
57.410       147
57.420       167
57.430       227
57.440       220
57.450       293
57.460       287
57.470       433
57.480       453
57.490       680
57.500       733
57.510       806
57.520       666
57.530       526
57.540       606
57.550       580
57.560       327
57.570       393
57.580       353
57.590       193
57.600       220
57.610       227
57.620       207
57.630       253
57.640       300
57.650       307
57.660       433
57.670       333
57.680       387
57.690       280
57.700       260
57.710       260
57.720       153
57.730       153
57.740        87
57.750        80
57.760       133
57.770        73
57.780       107
57.790        47
57.800        40
57.810        80
57.820        53
57.830        40
57.840        40
57.850        80
57.860        60
57.870        47
57.880        53
57.890        40
57.900        40
57.910        73
57.920        27
57.930        27
57.940        27
57.950        20
57.960        27
57.970        60
57.980         7
57.990        27
58.000        27
58.010        27
58.020        27
58.030        47
58.040         7
58.050        53
58.060         7
58.070        20
58.080        13
58.090        27
58.100        33
58.110         7
58.120         0
58.130        47
58.140        40
58.150        13
58.160        13
58.170        13
58.180        27
58.190        33
58.200        20
58.210        33
58.220        33
58.230        13
58.240        20
58.250        33
58.260        13
58.270        13
58.280        20
58.290        20
58.300         7
58.310        40
58.320        20
58.330        13
58.340         0
58.350        13
58.360        33
58.370        40
58.380        20
58.390        13
58.400        13
58.410        20
58.420         7
58.430        40
58.440         7
58.450         7
58.460        13
58.470         7
58.480        20
58.490         7
58.500        27
58.510        13
58.520        27
58.530        13
58.540         0
58.550         0
58.560        13
58.570        13
58.580        27
58.590        20
58.600        13
58.610        20
58.620        47
58.630        27
58.640        13
58.650         7
58.660        27
58.670        13
58.680         7
58.690        13
58.700        13
58.710         7
58.720        27
58.730        13
58.740        13
58.750        13
58.760        33
58.770        20
58.780         7
58.790        13
58.800        13
58.810        13
58.820        20
58.830        27
58.840        33
58.850        33
58.860        20
58.870         0
58.880        47
58.890         0
58.900         7
58.910        20
58.920        27
58.930        13
58.940        20
58.950        13
58.960         0
58.970        27
58.980         0
58.990        33
59.000        20
59.010         7
59.020        20
59.030        33
59.040         7
59.050        27
59.060         0
59.070         0
59.080        13
59.090         0
59.100         0
59.110        33
59.120        27
59.130        13
59.140        27
59.150        13
59.160        20
59.170        47
59.180        13
59.190        33
59.200         7
59.210        13
59.220        20
59.230        20
59.240        20
59.250        40
59.260        27
59.270        13
59.280         0
59.290        27
59.300        47
59.310        27
59.320        47
59.330        20
59.340        27
59.350        27
59.360        13
59.370        13
59.380         7
59.390        20
59.400        27
59.410        20
59.420         7
59.430        13
59.440        20
59.450        20
59.460         0
59.470        20
59.480        20
59.490        13
59.500        33
59.510        27
59.520        33
59.530        20
59.540         7
59.550         0
59.560         0
59.570        27
59.580         7
59.590        20
59.600        27
59.610        33
59.620        13
59.630        13
59.640        40
59.650        20
59.660        33
59.670        13
59.680        20
59.690        13
59.700        67
59.710        33
59.720         7
59.730        47
59.740        13
59.750         7
59.760        27
59.770        47
59.780        27
59.790        40
59.800        27
59.810        20
59.820        13
59.830        20
59.840        27
59.850         7
59.860        20
59.870        13
59.880        27
59.890         0
59.900        20
59.910        47
59.920        27
59.930        27
59.940         7
59.950        27
59.960        33
59.970        27
59.980         7
59.990         7
60.000         7
