20.000        53
20.010        53
20.020        33
20.030        60
20.040        33
20.050        40
20.060        93
20.070        80
20.080        67
20.090        53
20.100        20
20.110        20
20.120        93
20.130        47
20.140        80
20.150        40
20.160        53
20.170        67
20.180        60
20.190        47
20.200        60
20.210        13
20.220        33
20.230        40
20.240        60
20.250        93
20.260        47
20.270        53
20.280        13
20.290        87
20.300        20
20.310        60
20.320        80
20.330        67
20.340        33
20.350        40
20.360        60
20.370        40
20.380        60
20.390        53
20.400       113
20.410        60
20.420        60
20.430        27
20.440        47
20.450        67
20.460        40
20.470        93
20.480        60
20.490        67
20.500        60
20.510        47
20.520        40
20.530        60
20.540       100
20.550        27
20.560        73
20.570        33
20.580        53
20.590        33
20.600        40
20.610        33
20.620        87
20.630        60
20.640        47
20.650        60
20.660        53
20.670        27
20.680        33
20.690        20
20.700        47
20.710        73
20.720        27
20.730        73
20.740        27
20.750        20
20.760        67
20.770        40
20.780        53
20.790        27
20.800        80
20.810        60
20.820        33
20.830        60
20.840        87
20.850        33
20.860        47
20.870        47
20.880        47
20.890        33
20.900        40
20.910        47
20.920        40
20.930        67
20.940        67
20.950        40
20.960        27
20.970        40
20.980        67
20.990        27
21.000        33
21.010        40
21.020        67
21.030        67
21.040        47
21.050        53
21.060        67
21.070        33
21.080        53
21.090        33
21.100        40
21.110        67
21.120        80
21.130        13
21.140        93
21.150        73
21.160        40
21.170        67
21.180       133
21.190        40
21.200        47
21.210        53
21.220        73
21.230        47
21.240        27
21.250        33
21.260        33
21.270        33
21.280        73
21.290        40
21.300        47
21.310        33
21.320        80
21.330        33
21.340        47
21.350        33
21.360        60
21.370        67
21.380        47
21.390        13
21.400        73
21.410        73
21.420        33
21.430        40
21.440        47
21.450        40
21.460        47
21.470        27
21.480        27
21.490        40
21.500        40
21.510        73
21.520        33
21.530        53
21.540        53
21.550        47
21.560        47
21.570        40
21.580        20
21.590        27
21.600        40
21.610        80
21.620        40
21.630        27
21.640        53
21.650        60
21.660        40
21.670        27
21.680        40
21.690        27
21.700        47
21.710        20
21.720        33
21.730        53
21.740        40
21.750        13
21.760        27
21.770        53
21.780        67
21.790        27
21.800        20
21.810        47
21.820        33
21.830        47
21.840        13
21.850        27
21.860        40
21.870        20
21.880        47
21.890        47
21.900        40
21.910        53
21.920        47
21.930        87
21.940        47
21.950        33
21.960        40
21.970        47
21.980        20
21.990        13
22.000        87
22.010        60
22.020        20
22.030        47
22.040        27
22.050        67
22.060        40
22.070        53
22.080        67
22.090        53
22.100        47
22.110        67
22.120        33
22.130        47
22.140        67
22.150        40
22.160        67
22.170        33
22.180        53
22.190        67
22.200        53
22.210        47
22.220        27
22.230        33
22.240        53
22.250        47
22.260        60
22.270        47
22.280        73
22.290        53
22.300        53
22.310        33
22.320        53
22.330        47
22.340        27
22.350        20
22.360        47
22.370        67
22.380        67
22.390        60
22.400        27
22.410        60
22.420        40
22.430        80
22.440        80
22.450        67
22.460        20
22.470        40
22.480        60
22.490        47
22.500        40
22.510        67
22.520        40
22.530        20
22.540        60
22.550        27
22.560        33
22.570        40
22.580        33
22.590        40
22.600       100
22.610        27
22.620        47
22.630        47
22.640        80
22.650        33
22.660        67
22.670        27
22.680        60
22.690        47
22.700        60
22.710        40
22.720        53
22.730        40
22.740        40
22.750        53
22.760        60
22.770        47
22.780        27
22.790        40
22.800        27
22.810        47
22.820        47
22.830        53
22.840        53
22.850        40
22.860        73
22.870        60
22.880         7
22.890        60
22.900        40
22.910        33
22.920        40
22.930        33
22.940        47
22.950        33
22.960        67
22.970        67
22.980        67
22.990        27
23.000        53
23.010        40
23.020        40
23.030        47
23.040        40
23.050        33
23.060        80
23.070        40
23.080        73
23.090        53
23.100        33
23.110        40
23.120        40
23.130        33
23.140        53
23.150        53
23.160        27
23.170        73
23.180        53
23.190        40
23.200        27
23.210        80
23.220        73
23.230        33
23.240        53
23.250        73
23.260        47
23.270        20
23.280        27
23.290        33
23.300        33
23.310        40
23.320        40
23.330        40
23.340        27
23.350        33
23.360        27
23.370        47
23.380        13
23.390        33
23.400        27
23.410        33
23.420        67
23.430        20
23.440        13
23.450        20
23.460        33
23.470        33
23.480        47
23.490        27
23.500        33
23.510        13
23.520        33
23.530        13
23.540        27
23.550        27
23.560        13
23.570        40
23.580        40
23.590        47
23.600        47
23.610        27
23.620        13
23.630        33
23.640        60
23.650        27
23.660        47
23.670        47
23.680        13
23.690        33
23.700        33
23.710        60
23.720        20
23.730        53
23.740        80
23.750         7
23.760        47
23.770        47
23.780        40
23.790        60
23.800        47
23.810        13
23.820        40
23.830        27
23.840        60
23.850        73
23.860        47
23.870        33
23.880        60
23.890        47
23.900        47
23.910        40
23.920        40
23.930        33
23.940        40
23.950        53
23.960        47
23.970        13
23.980        40
23.990        40
24.000        27
24.010        13
24.020        33
24.030        40
24.040        47
24.050        40
24.060        87
24.070        13
24.080        53
24.090        67
24.100        47
24.110        27
24.120        53
24.130        27
24.140        13
24.150        67
24.160        53
24.170        27
24.180        33
24.190        60
24.200        53
24.210        60
24.220        33
24.230        40
24.240        47
24.250        33
24.260        20
24.270        47
24.280        13
24.290        40
24.300        20
24.310        47
24.320         0
24.330        27
24.340        40
24.350        47
24.360        33
24.370        40
24.380        53
24.390        27
24.400        27
24.410        47
24.420        47
24.430        33
24.440        40
24.450        33
24.460        53
24.470        47
24.480        40
24.490        40
24.500        47
24.510         7
24.520        47
24.530        13
24.540        33
24.550        33
24.560        53
24.570        60
24.580        40
24.590        53
24.600        27
24.610        47
24.620        47
24.630        27
24.640        67
24.650        40
24.660        27
24.670        60
24.680        47
24.690        20
24.700        67
24.710        20
24.720        53
24.730        67
24.740        27
24.750        40
24.760        40
24.770        20
24.780        33
24.790        20
24.800        47
24.810        47
24.820        47
24.830        47
24.840        47
24.850        33
24.860        27
24.870        33
24.880        13
24.890        47
24.900        40
24.910        40
24.920        27
24.930        27
24.940        53
24.950        40
24.960        27
24.970        40
24.980        40
24.990        40
25.000        40
25.010        33
25.020        20
25.030        27
25.040        27
25.050        53
25.060        53
25.070        20
25.080        20
25.090        47
25.100        40
25.110        40
25.120        27
25.130        73
25.140        33
25.150        27
25.160        67
25.170        53
25.180        40
25.190        40
25.200        40
25.210        33
25.220        13
25.230        40
25.240        33
25.250        33
25.260        27
25.270        33
25.280        53
25.290        53
25.300        53
25.310        47
25.320        40
25.330        80
25.340        60
25.350        27
25.360        87
25.370        47
25.380        73
25.390        73
25.400        53
25.410        53
25.420        47
25.430        33
25.440        60
25.450        93
25.460        93
25.470        67
25.480       120
25.490       127
25.500        93
25.510       100
25.520        87
25.530       140
25.540       107
25.550       187
25.560       133
25.570       200
25.580       207
25.590       207
25.600       293
25.610       353
25.620       247
25.630       247
25.640       187
25.650       133
25.660       227
25.670       173
25.680       193
25.690       107
25.700        80
25.710        80
25.720       107
25.730        47
25.740        20
25.750        13
25.760        27
25.770        47
25.780        20
25.790        53
25.800        47
25.810        47
25.820        80
25.830        67
25.840        40
25.850        40
25.860        27
25.870        27
25.880        33
25.890        20
25.900        33
25.910        20
25.920        47
25.930        60
25.940        20
25.950        40
25.960        47
25.970        20
25.980        33
25.990        60
26.000        20
26.010        27
26.020        33
26.030        40
26.040        33
26.050        53
26.060        47
26.070        27
26.080        27
26.090        40
26.100        33
26.110        33
26.120        47
26.130        13
26.140        27
26.150        27
26.160        27
26.170        33
26.180        27
26.190        27
26.200         7
26.210         7
26.220        20
26.230        13
26.240        40
26.250        33
26.260        47
26.270         7
26.280        33
26.290        33
26.300        20
26.310        40
26.320        33
26.330        33
26.340        53
26.350        27
26.360         7
26.370        20
26.380        60
26.390        20
26.400        53
26.410        27
26.420        27
26.430        20
26.440        40
26.450        27
26.460        20
26.470        40
26.480        13
26.490        47
26.500         7
26.510        20
26.520        53
26.530        40
26.540        47
26.550        47
26.560        47
26.570        27
26.580        20
26.590        33
26.600        27
26.610        80
26.620        20
26.630        33
26.640        60
26.650        53
26.660        13
26.670        20
26.680        33
26.690        53
26.700        80
26.710        47
26.720        53
26.730        33
26.740        67
26.750        40
26.760        47
26.770        47
26.780        13
26.790        60
26.800        33
26.810        13
26.820        20
26.830        47
26.840        47
26.850        40
26.860        40
26.870        20
26.880        33
26.890        67
26.900        27
26.910        33
26.920        47
26.930        27
26.940         0
26.950        33
26.960        27
26.970        27
26.980        20
26.990        27
27.000        20
27.010        33
27.020        27
27.030        27
27.040        27
27.050        47
27.060        20
27.070        27
27.080        33
27.090        93
27.100        13
27.110        20
27.120        40
27.130        20
27.140        20
27.150         7
27.160        67
27.170         0
27.180        53
27.190        33
27.200        33
27.210        20
27.220        27
27.230        33
27.240        33
27.250        53
27.260        13
27.270        60
27.280        53
27.290        27
27.300        53
27.310        27
27.320        20
27.330        33
27.340        20
27.350        20
27.360        40
27.370        33
27.380        53
27.390         0
27.400        33
27.410        47
27.420        40
27.430        33
27.440        27
27.450        27
27.460        33
27.470        27
27.480        20
27.490        27
27.500        33
27.510        40
27.520        47
27.530        47
27.540        47
27.550         7
27.560        33
27.570         7
27.580        47
27.590        20
27.600        60
27.610        20
27.620        40
27.630        53
27.640        13
27.650        33
27.660        27
27.670        20
27.680        20
27.690        13
27.700        47
27.710         7
27.720        27
27.730         7
27.740        20
27.750        33
27.760        13
27.770        33
27.780        40
27.790        53
27.800        40
27.810        20
27.820        13
27.830        13
27.840        27
27.850        20
27.860        20
27.870        20
27.880        27
27.890        47
27.900        47
27.910        33
27.920        20
27.930        47
27.940        40
27.950        47
27.960        40
27.970        27
27.980        53
27.990        27
28.000        33
28.010        20
28.020        20
28.030        40
28.040        40
28.050        47
28.060        33
28.070        53
28.080        13
28.090        73
28.100        20
28.110        67
28.120        47
28.130        13
28.140        20
28.150        33
28.160        80
28.170        33
28.180        40
28.190        47
28.200        27
28.210        13
28.220        33
28.230        47
28.240        13
28.250        47
28.260        33
28.270        27
28.280        20
28.290        33
28.300        53
28.310        20
28.320        27
28.330        47
28.340        20
28.350        33
28.360        27
28.370        40
28.380        20
28.390        20
28.400        33
28.410        27
28.420        27
28.430        20
28.440        33
28.450        60
28.460        33
28.470        40
28.480        53
28.490        33
28.500        33
28.510        27
28.520        40
28.530        27
28.540        20
28.550        13
28.560         0
28.570        13
28.580        13
28.590        33
28.600        27
28.610        53
28.620         7
28.630        20
28.640        27
28.650        27
28.660        33
28.670        13
28.680        27
28.690        47
28.700        13
28.710        33
28.720        40
28.730        27
28.740        27
28.750        53
28.760        67
28.770        60
28.780        53
28.790        27
28.800         7
28.810        27
28.820        13
28.830        27
28.840        20
28.850        33
28.860        33
28.870        47
28.880        13
28.890        33
28.900        40
28.910        33
28.920        27
28.930        47
28.940        33
28.950        27
28.960        13
28.970        13
28.980        40
28.990        13
29.000        33
29.010        33
29.020        27
29.030        47
29.040        33
29.050        27
29.060        20
29.070        40
29.080         7
29.090        33
29.100        27
29.110        27
29.120        33
29.130        33
29.140        53
29.150        33
29.160        13
29.170        53
29.180        33
29.190        33
29.200        33
29.210        47
29.220        40
29.230        13
29.240        47
29.250        40
29.260        20
29.270        27
29.280        60
29.290        40
29.300        27
29.310        20
29.320        27
29.330         7
29.340        13
29.350        27
29.360        33
29.370        53
29.380        20
29.390        27
29.400        20
29.410        67
29.420        33
29.430        47
29.440         7
29.450        40
29.460        53
29.470         7
29.480        47
29.490        27
29.500        40
29.510        33
29.520        13
29.530        47
29.540        27
29.550        47
29.560        47
29.570        27
29.580         0
29.590        13
29.600        13
29.610        33
29.620        47
29.630        33
29.640        13
29.650        53
29.660        33
29.670        27
29.680        13
29.690        27
29.700        60
29.710        33
29.720        33
29.730        27
29.740        20
29.750        33
29.760        13
29.770        33
29.780        93
29.790        33
29.800        20
29.810        13
29.820        20
29.830        33
29.840        33
29.850        13
29.860        27
29.870        33
29.880        20
29.890        20
29.900        33
29.910        40
29.920        40
29.930        27
29.940        27
29.950        40
29.960        40
29.970        40
29.980        27
29.990        27
30.000        40
30.010        27
30.020        47
30.030        33
30.040        13
30.050        33
30.060        40
30.070        60
30.080        27
30.090        27
30.100        27
30.110        27
30.120        27
30.130        33
30.140        40
30.150        27
30.160        53
30.170        13
30.180        20
30.190        40
30.200        27
30.210        13
30.220        13
30.230        40
30.240        60
30.250        20
30.260        60
30.270        40
30.280        13
30.290        20
30.300        47
30.310        47
30.320        53
30.330        27
30.340        47
30.350        33
30.360        33
30.370        40
30.380        40
30.390        27
30.400        40
30.410        27
30.420        20
30.430        27
30.440        40
30.450        20
30.460        33
30.470        33
30.480        67
30.490        13
30.500        33
30.510        33
30.520        20
30.530        60
30.540        33
30.550        20
30.560        47
30.570        53
30.580        53
30.590        20
30.600        33
30.610        60
30.620        13
30.630         7
30.640        20
30.650        27
30.660        53
30.670        67
30.680        27
30.690        40
30.700        33
30.710        20
30.720         0
30.730        20
30.740        47
30.750        27
30.760        40
30.770        27
30.780        20
30.790        27
30.800        20
30.810        27
30.820        33
30.830        20
30.840        47
30.850        27
30.860        27
30.870        33
30.880        13
30.890        40
30.900        27
30.910        33
30.920         7
30.930        40
30.940        40
30.950        47
30.960        40
30.970        40
30.980        73
30.990        53
31.000        47
31.010        60
31.020        27
31.030        20
31.040        13
31.050        33
31.060        53
31.070        53
31.080        33
31.090        27
31.100        47
31.110        73
31.120        20
31.130        33
31.140        27
31.150        53
31.160        53
31.170        47
31.180        20
31.190        27
31.200        47
31.210        33
31.220        27
31.230        67
31.240        53
31.250        60
31.260        27
31.270        53
31.280        53
31.290        40
31.300        33
31.310        67
31.320        40
31.330        47
31.340        60
31.350        47
31.360        60
31.370        20
31.380        47
31.390        53
31.400        67
31.410        53
31.420        27
31.430        60
31.440        40
31.450        40
31.460        47
31.470        53
31.480        87
31.490        20
31.500        47
31.510        73
31.520        47
31.530        53
31.540        40
31.550        33
31.560        33
31.570        73
31.580        47
31.590        73
31.600        47
31.610        27
31.620        87
31.630        53
31.640        67
31.650        60
31.660        47
31.670        53
31.680        60
31.690        33
31.700        47
31.710        73
31.720        47
31.730       140
31.740        67
31.750        87
31.760        80
31.770       100
31.780        60
31.790        47
31.800        53
31.810       133
31.820       113
31.830        73
31.840        47
31.850       100
31.860       133
31.870        40
31.880        93
31.890       107
31.900        80
31.910       127
31.920       140
31.930       133
31.940       107
31.950       147
31.960        60
31.970       107
31.980       153
31.990       187
32.000        80
32.010       167
32.020       147
32.030       180
32.040       187
32.050       133
32.060       267
32.070       227
32.080       193
32.090       233
32.100       260
32.110       233
32.120       247
32.130       320
32.140       180
32.150       233
32.160       273
32.170       347
32.180       280
32.190       287
32.200       300
32.210       347
32.220       307
32.230       313
32.240       313
32.250       340
32.260       333
32.270       320
32.280       380
32.290       307
32.300       407
32.310       333
32.320       373
32.330       307
32.340       327
32.350       340
32.360       373
32.370       353
32.380       240
32.390       240
32.400       253
32.410       227
32.420       247
32.430       280
32.440       287
32.450       267
32.460       220
32.470       187
32.480       227
32.490       167
32.500       200
32.510       153
32.520       167
32.530       173
32.540       180
32.550       160
32.560       113
32.570       107
32.580       113
32.590       167
32.600       160
32.610       160
32.620       147
32.630        73
32.640        93
32.650       133
32.660       127
32.670        73
32.680       127
32.690        93
32.700        60
32.710        87
32.720       120
32.730        80
32.740       140
32.750        73
32.760        67
32.770        93
32.780        67
32.790        93
32.800        53
32.810        87
32.820        80
32.830        93
32.840        60
32.850        53
32.860        33
32.870        53
32.880       113
32.890        73
32.900       120
32.910        40
32.920        87
32.930        73
32.940        40
32.950        53
32.960        93
32.970        20
32.980        53
32.990        40
33.000        27
33.010        27
33.020        60
33.030        60
33.040        47
33.050        60
33.060        47
33.070        47
33.080        40
33.090        67
33.100        93
33.110        53
33.120        33
33.130        47
33.140        33
33.150        33
33.160        27
33.170        53
33.180        40
33.190        47
33.200        67
33.210        33
33.220        13
33.230        27
33.240        53
33.250        67
33.260        73
33.270        53
33.280        53
33.290       100
33.300        40
33.310        67
33.320        47
33.330        27
33.340        27
33.350        47
33.360        27
33.370        27
33.380        13
33.390        53
33.400        33
33.410        47
33.420        40
33.430        73
33.440        27
33.450        40
33.460        33
33.470        20
33.480        33
33.490        47
33.500        33
33.510        27
33.520        53
33.530        40
33.540        60
33.550        33
33.560        47
33.570        60
33.580        33
33.590        20
33.600        27
33.610         7
33.620        40
33.630        20
33.640        40
33.650        20
33.660        53
33.670        40
33.680        33
33.690        13
33.700        20
33.710        33
33.720        27
33.730        27
33.740        67
33.750        27
33.760        73
33.770        47
33.780        33
33.790        53
33.800        20
33.810        20
33.820        53
33.830        27
33.840        27
33.850        60
33.860        47
33.870        33
33.880        20
33.890        13
33.900        20
33.910        33
33.920        47
33.930        33
33.940        20
33.950        40
33.960        53
33.970        40
33.980        40
33.990        80
34.000        20
34.010        67
34.020        20
34.030         7
34.040        13
34.050        40
34.060        33
34.070        47
34.080        33
34.090        20
34.100        33
34.110        33
34.120        60
34.130        13
34.140        27
34.150        27
34.160        27
34.170        33
34.180        13
34.190        40
34.200        33
34.210        60
34.220        40
34.230        13
34.240        20
34.250         7
34.260        40
34.270        33
34.280        20
34.290        20
34.300        33
34.310        40
34.320        27
34.330        33
34.340         7
34.350        13
34.360         0
34.370        40
34.380         7
34.390        33
34.400        60
34.410        27
34.420         0
34.430        47
34.440        33
34.450        33
34.460        20
34.470        40
34.480        20
34.490        20
34.500        27
34.510        87
34.520        20
34.530        47
34.540        27
34.550         7
34.560        47
34.570         7
34.580        33
34.590        33
34.600        40
34.610        33
34.620        20
34.630        33
34.640        33
34.650        13
34.660        47
34.670        27
34.680        20
34.690        40
34.700        33
34.710        40
34.720        27
34.730        27
34.740        27
34.750        67
34.760        27
34.770        33
34.780        40
34.790        47
34.800        33
34.810        20
34.820        40
34.830        40
34.840        27
34.850        60
34.860        53
34.870        40
34.880        73
34.890        87
34.900       113
34.910        60
34.920        73
34.930       113
34.940        80
34.950        80
34.960       100
34.970        73
34.980        87
34.990        60
35.000        67
35.010       100
35.020        73
35.030        40
35.040        80
35.050        80
35.060       113
35.070        67
35.080       133
35.090       220
35.100       167
35.110       247
35.120       273
35.130       380
35.140       446
35.150       520
35.160       686
35.170       620
35.180       620
35.190       640
35.200       573
35.210       433
35.220       300
35.230       320
35.240       347
35.250       347
35.260       393
35.270       347
35.280       233
35.290       280
35.300       167
35.310       140
35.320        80
35.330        40
35.340        60
35.350        33
35.360        73
35.370        27
35.380        47
35.390        40
35.400        33
35.410        33
35.420        40
35.430        53
35.440        40
35.450        73
35.460        20
35.470        27
35.480        33
35.490        20
35.500        33
35.510        47
35.520        33
35.530        53
35.540         7
35.550         0
35.560        27
35.570        27
35.580        33
35.590        27
35.600        60
35.610        27
35.620        13
35.630         7
35.640        27
35.650        20
35.660        13
35.670        13
35.680        33
35.690        20
35.700        33
35.710        27
35.720        13
35.730        20
35.740        27
35.750        40
35.760        47
35.770        13
35.780        27
35.790        60
35.800        13
35.810         7
35.820        20
35.830        60
35.840        40
35.850        13
35.860         7
35.870        33
35.880        13
35.890        33
35.900         7
35.910        20
35.920         0
35.930        13
35.940         7
35.950        40
35.960        13
35.970        20
35.980         0
35.990        40
36.000        13
36.010        27
36.020        33
36.030        33
36.040        33
36.050        33
36.060        40
36.070        20
36.080        20
36.090        33
36.100        20
36.110        33
36.120        20
36.130        20
36.140        20
36.150        40
36.160        27
36.170        20
36.180        27
36.190         7
36.200        27
36.210        13
36.220        27
36.230        33
36.240        33
36.250        27
36.260        20
36.270        20
36.280        40
36.290        47
36.300        33
36.310         7
36.320        20
36.330        20
36.340        13
36.350        20
36.360        40
36.370        33
36.380        20
36.390        27
36.400        20
36.410        40
36.420        27
36.430        20
36.440        33
36.450        13
36.460        20
36.470        53
36.480        20
36.490        20
36.500        27
36.510        13
36.520         7
36.530         7
36.540        40
36.550        20
36.560         7
36.570        40
36.580        20
36.590        27
36.600        27
36.610        33
36.620         7
36.630        67
36.640        13
36.650        33
36.660         7
36.670        20
36.680        73
36.690        20
36.700         7
36.710        27
36.720        40
36.730        27
36.740        53
36.750        33
36.760        27
36.770        20
36.780        33
36.790        27
36.800        27
36.810        13
36.820        20
36.830        20
36.840        13
36.850        27
36.860        33
36.870        33
36.880        20
36.890        20
36.900        33
36.910        13
36.920         0
36.930        20
36.940        27
36.950        27
36.960        60
36.970        27
36.980        53
36.990        27
37.000        47
37.010        47
37.020        33
37.030         0
37.040        40
37.050        27
37.060        27
37.070        33
37.080         7
37.090        27
37.100        13
37.110        20
37.120        33
37.130        20
37.140        13
37.150        40
37.160        20
37.170        20
37.180        20
37.190        20
37.200        33
37.210        27
37.220        33
37.230        20
37.240        20
37.250        27
37.260        20
37.270        33
37.280        20
37.290        13
37.300        13
37.310        40
37.320        13
37.330        13
37.340        40
37.350        27
37.360        20
37.370        13
37.380        27
37.390         7
37.400        20
37.410        33
37.420         7
37.430        13
37.440        33
37.450        60
37.460        33
37.470        20
37.480        27
37.490        20
37.500        33
37.510        20
37.520        13
37.530        33
37.540        47
37.550        27
37.560         7
37.570        47
37.580        20
37.590        53
37.600        27
37.610        40
37.620        20
37.630        53
37.640        27
37.650        20
37.660        27
37.670        53
37.680        20
37.690        33
37.700        20
37.710        33
37.720        33
37.730        13
37.740        20
37.750        40
37.760        47
37.770        33
37.780        93
37.790        60
37.800        53
37.810        60
37.820        87
37.830        87
37.840        33
37.850        33
37.860        40
37.870        33
37.880        60
37.890        67
37.900        33
37.910        73
37.920        33
37.930        53
37.940        40
37.950        60
37.960        13
37.970        27
37.980        20
37.990        13
38.000         7
38.010        33
38.020        53
38.030        13
38.040        20
38.050         7
38.060        33
38.070        13
38.080        13
38.090        47
38.100         7
38.110        27
38.120        13
38.130        27
38.140        20
38.150         0
38.160         7
38.170        27
38.180        27
38.190        47
38.200        53
38.210         0
38.220        20
38.230        40
38.240        13
38.250         7
38.260        40
38.270        20
38.280         7
38.290        27
38.300        13
38.310        33
38.320        20
38.330        33
38.340        27
38.350        20
38.360        20
38.370        20
38.380        20
38.390        73
38.400        27
38.410        27
38.420        27
38.430        33
38.440        40
38.450        47
38.460        20
38.470         7
38.480        13
38.490         7
38.500        20
38.510        13
38.520        20
38.530        27
38.540        13
38.550         7
38.560        27
38.570        27
38.580        27
38.590        20
38.600        33
38.610        20
38.620         0
38.630         7
38.640        27
38.650        27
38.660        20
38.670        13
38.680        20
38.690        27
38.700        33
38.710        20
38.720        20
38.730        13
38.740        33
38.750         7
38.760        27
38.770        27
38.780        20
38.790        20
38.800        20
38.810        33
38.820         7
38.830         7
38.840        20
38.850         7
38.860        13
38.870         7
38.880        20
38.890        27
38.900        20
38.910        20
38.920         7
38.930        27
38.940        27
38.950        13
38.960        20
38.970        27
38.980        20
38.990        33
39.000        47
39.010        47
39.020        27
39.030        27
39.040        40
39.050         7
39.060        13
39.070        27
39.080        20
39.090        20
39.100        13
39.110        13
39.120         7
39.130        13
39.140        40
39.150        20
39.160        27
39.170        27
39.180        13
39.190        20
39.200        13
39.210        20
39.220         7
39.230        20
39.240         7
39.250        27
39.260        33
39.270        33
39.280        20
39.290        33
39.300         7
39.310        33
39.320        13
39.330         7
39.340         7
39.350        13
39.360        33
39.370        13
39.380        33
39.390        27
39.400        33
39.410        53
39.420        33
39.430        40
39.440        27
39.450        40
39.460        13
39.470        20
39.480        33
39.490        47
39.500        47
39.510        27
39.520        20
39.530        20
39.540        27
39.550        47
39.560        20
39.570        20
39.580        20
39.590        27
39.600        13
39.610        20
39.620        27
39.630        27
39.640        33
39.650        27
39.660        13
39.670        47
39.680        40
39.690        40
39.700        20
39.710        33
39.720        20
39.730        27
39.740        40
39.750        33
39.760         7
39.770        20
39.780        40
39.790        47
39.800        33
39.810        27
39.820        33
39.830        33
39.840        67
39.850        40
39.860        40
39.870        67
39.880        67
39.890        80
39.900        80
39.910        40
39.920        73
39.930        73
39.940        47
39.950        60
39.960        67
39.970        67
39.980       100
39.990        67
40.000       127
40.010        33
40.020        33
40.030        60
40.040        53
40.050        53
40.060       100
40.070        53
40.080        67
40.090        93
40.100        67
40.110        60
40.120        33
40.130        73
40.140        53
40.150        33
40.160        27
40.170        13
40.180        33
40.190        40
40.200        40
40.210        33
40.220        20
40.230        13
40.240        27
40.250        20
40.260         7
40.270        20
40.280        47
40.290         7
40.300         7
40.310        33
40.320        20
40.330         7
40.340        20
40.350        13
40.360        13
40.370        20
40.380        20
40.390        13
40.400        13
40.410        20
40.420        27
40.430        40
40.440        33
40.450        13
40.460        20
40.470        27
40.480        60
40.490        33
40.500        13
40.510         7
40.520        13
40.530        33
40.540        13
40.550        33
40.560        20
40.570         7
40.580        40
40.590         7
40.600         7
40.610         0
40.620        20
40.630        33
40.640        40
40.650         7
40.660        13
40.670         7
40.680         7
40.690        27
40.700        27
40.710        27
40.720        20
40.730        13
40.740        53
40.750        13
40.760         0
40.770         0
40.780        20
40.790        20
40.800        13
40.810        27
40.820        33
40.830        27
40.840         0
40.850        27
40.860        13
40.870        47
40.880         7
40.890        20
40.900        20
40.910         7
40.920        73
40.930        33
40.940        33
40.950        33
40.960        33
40.970        13
40.980        40
40.990        20
41.000        27
41.010         0
41.020        40
41.030        20
41.040        20
41.050        13
41.060        40
41.070        33
41.080        20
41.090         0
41.100        40
41.110        27
41.120        27
41.130        20
41.140        27
41.150        33
41.160        27
41.170        27
41.180        33
41.190         7
41.200        27
41.210        33
41.220        13
41.230        33
41.240        47
41.250         7
41.260        20
41.270        20
41.280        27
41.290        27
41.300        13
41.310        13
41.320        13
41.330        13
41.340        60
41.350        20
41.360         7
41.370        13
41.380        33
41.390        27
41.400         7
41.410        27
41.420        33
41.430         7
41.440         7
41.450        40
41.460        13
41.470        27
41.480        13
41.490        27
41.500        33
41.510        27
41.520        20
41.530        20
41.540        27
41.550        27
41.560        33
41.570        40
41.580        33
41.590        33
41.600        40
41.610        53
41.620        53
41.630        27
41.640        20
41.650       100
41.660       113
41.670        80
41.680        93
41.690       160
41.700       173
41.710       213
41.720       153
41.730        80
41.740       140
41.750       100
41.760        67
41.770       100
41.780        73
41.790       107
41.800        93
41.810        60
41.820        87
41.830        73
41.840        33
41.850        67
41.860        80
41.870        27
41.880        33
41.890        33
41.900        20
41.910        53
41.920        20
41.930        13
41.940        20
41.950        13
41.960        27
41.970        47
41.980        33
41.990        33
42.000        13
42.010        13
42.020        13
42.030         7
42.040        13
42.050        27
42.060        20
42.070        27
42.080        20
42.090        33
42.100        33
42.110        27
42.120         7
42.130        20
42.140        27
42.150        20
42.160        20
42.170         7
42.180         7
42.190        47
42.200        13
42.210        27
42.220        13
42.230        33
42.240        13
42.250        20
42.260         0
42.270        20
42.280        20
42.290        27
42.300         0
42.310        27
42.320        20
42.330        47
42.340         0
42.350        20
42.360        13
42.370        33
42.380         7
42.390        20
42.400        20
42.410        20
42.420        20
42.430         7
42.440        27
42.450        27
42.460        40
42.470        20
42.480        13
42.490        33
42.500        20
42.510         7
42.520        13
42.530        13
42.540        47
42.550        20
42.560        13
42.570         7
42.580        20
42.590         7
42.600        13
42.610        20
42.620        13
42.630        20
42.640         7
42.650        20
42.660        20
42.670        27
42.680        27
42.690        20
42.700        13
42.710        13
42.720        27
42.730        20
42.740        27
42.750        20
42.760        20
42.770        13
42.780        33
42.790        20
42.800        27
42.810        20
42.820        33
42.830         7
42.840        13
42.850        27
42.860         0
42.870        27
42.880        13
42.890        20
42.900         0
42.910        33
42.920        40
42.930        20
42.940         0
42.950         7
42.960        13
42.970        53
42.980        27
42.990        20
43.000        27
43.010        20
43.020         7
43.030        13
43.040        33
43.050        13
43.060        27
43.070         7
43.080        27
43.090        13
43.100        27
43.110        20
43.120         0
43.130        33
43.140        53
43.150        33
43.160         7
43.170        47
43.180        67
43.190        87
43.200        33
43.210        53
43.220        40
43.230        67
43.240        73
43.250        87
43.260        87
43.270       113
43.280       153
43.290       227
43.300       260
43.310       353
43.320       293
43.330       320
43.340       300
43.350       280
43.360       307
43.370       247
43.380       260
43.390       340
43.400       340
43.410       327
43.420       307
43.430       347
43.440       227
43.450       287
43.460       153
43.470       213
43.480       160
43.490       153
43.500       153
43.510       113
43.520       147
43.530       220
43.540       100
43.550        73
43.560        53
43.570        33
43.580        20
43.590        27
43.600        33
43.610        20
43.620        20
43.630         7
43.640        13
43.650        20
43.660        27
43.670        13
43.680        27
43.690        13
43.700        20
43.710        13
43.720        47
43.730        13
43.740        13
43.750        33
43.760        40
43.770        40
43.780        13
43.790        13
43.800         7
43.810        27
43.820         7
43.830        13
43.840        33
43.850        27
43.860         0
43.870        27
43.880        33
43.890        27
43.900        33
43.910        27
43.920         0
43.930        13
43.940         7
43.950        20
43.960        20
43.970         0
43.980        13
43.990         7
44.000        13
44.010         7
44.020        20
44.030         7
44.040        20
44.050        20
44.060        20
44.070        13
44.080        27
44.090        33
44.100        33
44.110        13
44.120        13
44.130        33
44.140         0
44.150        13
44.160        13
44.170        13
44.180         0
44.190        40
44.200        27
44.210        13
44.220        33
44.230        13
44.240        13
44.250        13
44.260        13
44.270        27
44.280         7
44.290        13
44.300        27
44.310        27
44.320        20
44.330        20
44.340        20
44.350        13
44.360         7
44.370        13
44.380        20
44.390        40
44.400        27
44.410         0
44.420         7
44.430        27
44.440        13
44.450        27
44.460         7
44.470         7
44.480        13
44.490        33
44.500        27
44.510         7
44.520        20
44.530        27
44.540        33
44.550        33
44.560         7
44.570         7
44.580        20
44.590        13
44.600        13
44.610        27
44.620        13
44.630        20
44.640        33
44.650        13
44.660        13
44.670         7
44.680        13
44.690        20
44.700        27
44.710        13
44.720         7
44.730        27
44.740         0
44.750        20
44.760         7
44.770        20
44.780         0
44.790        33
44.800        20
44.810        20
44.820        13
44.830        20
44.840         7
44.850        27
44.860        20
44.870        20
44.880        20
44.890        47
44.900        13
44.910        13
44.920        67
44.930        20
44.940         7
44.950         7
44.960        20
44.970        40
44.980        27
44.990        40
45.000        13
45.010        27
45.020        47
45.030         7
45.040         0
45.050        27
45.060         7
45.070        13
45.080        20
45.090        13
45.100         7
45.110         7
45.120        33
45.130        27
45.140        27
45.150        20
45.160        13
45.170         7
45.180        20
45.190        13
45.200        20
45.210        20
45.220        20
45.230        27
45.240        13
45.250        20
45.260        27
45.270        40
45.280        27
45.290        33
45.300        33
45.310        33
45.320        27
45.330        13
45.340        33
45.350        20
45.360        33
45.370        27
45.380        20
45.390         7
45.400        20
45.410        27
45.420        20
45.430        27
45.440        13
45.450        27
45.460        27
45.470         7
45.480        20
45.490        33
45.500        33
45.510         7
45.520        20
45.530        33
45.540        13
45.550        20
45.560         7
45.570        27
45.580        40
45.590        33
45.600        27
45.610        33
45.620        20
45.630        33
45.640        20
45.650        33
45.660        20
45.670        27
45.680        20
45.690        33
45.700        27
45.710        47
45.720        27
45.730        13
45.740        40
45.750        60
45.760        20
45.770        40
45.780        27
45.790        27
45.800        27
45.810        20
45.820        33
45.830        27
45.840        27
45.850        33
45.860        33
45.870        27
45.880        40
45.890        60
45.900        60
45.910        80
45.920        73
45.930        60
45.940       100
45.950        87
45.960        27
45.970        60
45.980        87
45.990        47
46.000        87
46.010        53
46.020       127
46.030        47
46.040        80
46.050        47
46.060        60
46.070        73
46.080        67
46.090        60
46.100        60
46.110       100
46.120        67
46.130       107
46.140        53
46.150       107
46.160       127
46.170        87
46.180       107
46.190       133
46.200        87
46.210        60
46.220        80
46.230        87
46.240        93
46.250        80
46.260        73
46.270        87
46.280        87
46.290       107
46.300        93
46.310       113
46.320        67
46.330       120
46.340        80
46.350        60
46.360        80
46.370        73
46.380       100
46.390        53
46.400        67
46.410        60
46.420       100
46.430        40
46.440        33
46.450        67
46.460       100
46.470        53
46.480        67
46.490        67
46.500        47
46.510        80
46.520        20
46.530        47
46.540        47
46.550        53
46.560        47
46.570        27
46.580        67
46.590        87
46.600        40
46.610        53
46.620        40
46.630        33
46.640        40
46.650        20
46.660        53
46.670        33
46.680        40
46.690        53
46.700        33
46.710        67
46.720        40
46.730        60
46.740        20
46.750        40
46.760        53
46.770        47
46.780        53
46.790        27
46.800        73
46.810        40
46.820        27
46.830        60
46.840        33
46.850        27
46.860        27
46.870        47
46.880        47
46.890        47
46.900        33
46.910        13
46.920         7
46.930         7
46.940        13
46.950        20
46.960        27
46.970        27
46.980        20
46.990        60
47.000        13
47.010         7
47.020        27
47.030        67
47.040        13
47.050        13
47.060        20
47.070        13
47.080        33
47.090        20
47.100        27
47.110        13
47.120        13
47.130        40
47.140        27
47.150        20
47.160        20
47.170        40
47.180        13
47.190        40
47.200        20
47.210        13
47.220        20
47.230        27
47.240        27
47.250        33
47.260         0
47.270        20
47.280         7
47.290        47
47.300        13
47.310        47
47.320        27
47.330        20
47.340         7
47.350        13
47.360        40
47.370        27
47.380        13
47.390        13
47.400        13
47.410        27
47.420        33
47.430        13
47.440         7
47.450        27
47.460         0
47.470        20
47.480        20
47.490        40
47.500        20
47.510         0
47.520        20
47.530        20
47.540        20
47.550        13
47.560        27
47.570        20
47.580         7
47.590        33
47.600        20
47.610        20
47.620        33
47.630         7
47.640        13
47.650         7
47.660        27
47.670        13
47.680         0
47.690        13
47.700        13
47.710        13
47.720        33
47.730        20
47.740        20
47.750        27
47.760        20
47.770        33
47.780        27
47.790         0
47.800        13
47.810        13
47.820        40
47.830        13
47.840        13
47.850        13
47.860        20
47.870         7
47.880        40
47.890        20
47.900        27
47.910        20
47.920        13
47.930        20
47.940         0
47.950        40
47.960        13
47.970        40
47.980        13
47.990        13
48.000        20
48.010        27
48.020         7
48.030         7
48.040        27
48.050        13
48.060        27
48.070         7
48.080        13
48.090        20
48.100        27
48.110         7
48.120        13
48.130        20
48.140        20
48.150         7
48.160        47
48.170        20
48.180        27
48.190         7
48.200         0
48.210        20
48.220        13
48.230        20
48.240        13
48.250        20
48.260        13
48.270         7
48.280        27
48.290        20
48.300         7
48.310        20
48.320        27
48.330         7
48.340         7
48.350        20
48.360        13
48.370         7
48.380        13
48.390        13
48.400         0
48.410         7
48.420         7
48.430        27
48.440        20
48.450         7
48.460        20
48.470        20
48.480        40
48.490        20
48.500         7
48.510        33
48.520        13
48.530        20
48.540        13
48.550        20
48.560         7
48.570        13
48.580        20
48.590        13
48.600         7
48.610         7
48.620        20
48.630        20
48.640        13
48.650        13
48.660        20
48.670        40
48.680        20
48.690         7
48.700         7
48.710        20
48.720        20
48.730        27
48.740        27
48.750        47
48.760         7
48.770         7
48.780        13
48.790        13
48.800         7
48.810        27
48.820        13
48.830        13
48.840         7
48.850        13
48.860        20
48.870         0
48.880        33
48.890        13
48.900         7
48.910         0
48.920        20
48.930        13
48.940         7
48.950         7
48.960         7
48.970         0
48.980        27
48.990        13
49.000        27
49.010        20
49.020        33
49.030        20
49.040        27
49.050        13
49.060         7
49.070        20
49.080        13
49.090         0
49.100        20
49.110        13
49.120        33
49.130        13
49.140        13
49.150         7
49.160        13
49.170        20
49.180        13
49.190        13
49.200        13
49.210         7
49.220        13
49.230        20
49.240        20
49.250        33
49.260        20
49.270        13
49.280        40
49.290        13
49.300         7
49.310        13
49.320        13
49.330         7
49.340        33
49.350        20
49.360        27
49.370         0
49.380         7
49.390        13
49.400        20
49.410        20
49.420        20
49.430        20
49.440         7
49.450         7
49.460        20
49.470         7
49.480         0
49.490         0
49.500        20
49.510        40
49.520        33
49.530        20
49.540         0
49.550        33
49.560        13
49.570         7
49.580        33
49.590        27
49.600        20
49.610        20
49.620        13
49.630        20
49.640        27
49.650         7
49.660        13
49.670        13
49.680        33
49.690        20
49.700        20
49.710        13
49.720        20
49.730         0
49.740         7
49.750        13
49.760        13
49.770         0
49.780        13
49.790        20
49.800         0
49.810         7
49.820        27
49.830         7
49.840         7
49.850         7
49.860         7
49.870         7
49.880        20
49.890        33
49.900        27
49.910        20
49.920        13
49.930        20
49.940        13
49.950        33
49.960        20
49.970        20
49.980        13
49.990        20
50.000        13
50.010        20
50.020        13
50.030        27
50.040        27
50.050         7
50.060        20
50.070         0
50.080         7
50.090        33
50.100        20
50.110        13
50.120        20
50.130        13
50.140        33
50.150         7
50.160         0
50.170        27
50.180         7
50.190         7
50.200         0
50.210         7
50.220         7
50.230        20
50.240        13
50.250         7
50.260        20
50.270        33
50.280        33
50.290         7
50.300        13
50.310        13
50.320         7
50.330        20
50.340         7
50.350        13
50.360         0
50.370        13
50.380        13
50.390         7
50.400        20
50.410         7
50.420        13
50.430         7
50.440        20
50.450         0
50.460         7
50.470        27
50.480        27
50.490         7
50.500         7
50.510        13
50.520        13
50.530        13
50.540         7
50.550        27
50.560        33
50.570         7
50.580        27
50.590        20
50.600        27
50.610         7
50.620        20
50.630         7
50.640         7
50.650         7
50.660        13
50.670        20
50.680        27
50.690        20
50.700        20
50.710        33
50.720        27
50.730        33
50.740         7
50.750        20
50.760        13
50.770         0
50.780        13
50.790        13
50.800        13
50.810         0
50.820        20
50.830        20
50.840        27
50.850        20
50.860        13
50.870        27
50.880         0
50.890        13
50.900        13
50.910        33
50.920         7
50.930        13
50.940        13
50.950         0
50.960        13
50.970         7
50.980        40
50.990        13
51.000        20
51.010        20
51.020        13
51.030         0
51.040         7
51.050        20
51.060         7
51.070        13
51.080         7
51.090         7
51.100        20
51.110        13
51.120        13
51.130        13
51.140        13
51.150        13
51.160        20
51.170         7
51.180         0
51.190        13
51.200        20
51.210        27
51.220        20
51.230        27
51.240         0
51.250         0
51.260        40
51.270         0
51.280         0
51.290         0
51.300        20
51.310         0
51.320        20
51.330        20
51.340        27
51.350        27
51.360         0
51.370         7
51.380        27
51.390         7
51.400        20
51.410         7
51.420        20
51.430        20
51.440        13
51.450        33
51.460         0
51.470         7
51.480         7
51.490         0
51.500        40
51.510        33
51.520        47
51.530        13
51.540         7
51.550        13
51.560         7
51.570        13
51.580        27
51.590         0
51.600        13
51.610         7
51.620         7
51.630        27
51.640         0
51.650         7
51.660         7
51.670        47
51.680         7
51.690        13
51.700        20
51.710        13
51.720        27
51.730         7
51.740        20
51.750         0
51.760        20
51.770        13
51.780        13
51.790         0
51.800        27
51.810         0
51.820        20
51.830        27
51.840        33
51.850        20
51.860         7
51.870        13
51.880        13
51.890        20
51.900        20
51.910        33
51.920         0
51.930         7
51.940        20
51.950        13
51.960        13
51.970        13
51.980         7
51.990        27
52.000         7
52.010        20
52.020         7
52.030        13
52.040         0
52.050        13
52.060        13
52.070         7
52.080         7
52.090        20
52.100        13
52.110        20
52.120        27
52.130        13
52.140        13
52.150        20
52.160        13
52.170        20
52.180        13
52.190        27
52.200         7
52.210        13
52.220         7
52.230        13
52.240        20
52.250        20
52.260        13
52.270        20
52.280         0
52.290        20
52.300        13
52.310        20
52.320        13
52.330        13
52.340        33
52.350        20
52.360        33
52.370        27
52.380        33
52.390        33
52.400        27
52.410        27
52.420         0
52.430        13
52.440        13
52.450        40
52.460        20
52.470        20
52.480        27
52.490        20
52.500        13
52.510        40
52.520        40
52.530        47
52.540        47
52.550       120
52.560       173
52.570       200
52.580       307
52.590       240
52.600       193
52.610       180
52.620       240
52.630       167
52.640       113
52.650       100
52.660        53
52.670        33
52.680        80
52.690        60
52.700       140
52.710        93
52.720       153
52.730       113
52.740       107
52.750       193
52.760        80
52.770        87
52.780        80
52.790        20
52.800        40
52.810        27
52.820        33
52.830        33
52.840        13
52.850        20
52.860        33
52.870         7
52.880        27
52.890        33
52.900        13
52.910        13
52.920        13
52.930         7
52.940        20
52.950         7
52.960         7
52.970        40
52.980        33
52.990        33
53.000        20
53.010        20
53.020        13
53.030        13
53.040         0
53.050        20
53.060        20
53.070        20
53.080         7
53.090        13
53.100         7
53.110        47
53.120        13
53.130         7
53.140         7
53.150         7
53.160        13
53.170         7
53.180        20
53.190        20
53.200        20
53.210        33
53.220        20
53.230        27
53.240        20
53.250        13
53.260        13
53.270         7
53.280         7
53.290        13
53.300         7
53.310         7
53.320        33
53.330         7
53.340        13
53.350        27
53.360        13
53.370         7
53.380         7
53.390        13
53.400        20
53.410         7
53.420         7
53.430        13
53.440         0
53.450        47
53.460        13
53.470         7
53.480         7
53.490         7
53.500         0
53.510        27
53.520        13
53.530        20
53.540         0
53.550         0
53.560        13
53.570        13
53.580        40
53.590        27
53.600         0
53.610        13
53.620         7
53.630         7
53.640        13
53.650         7
53.660        20
53.670         7
53.680        27
53.690        20
53.700        27
53.710         7
53.720        13
53.730        13
53.740         7
53.750        13
53.760        13
53.770        47
53.780        20
53.790        13
53.800        27
53.810         7
53.820         0
53.830        20
53.840         7
53.850        13
53.860        13
53.870        20
53.880        27
53.890        13
53.900        20
53.910        20
53.920        20
53.930         7
53.940        27
53.950        13
53.960        27
53.970        13
53.980        13
53.990        13
54.000        33
54.010        13
54.020        27
54.030        13
54.040        13
54.050         0
54.060        13
54.070         0
54.080        13
54.090        27
54.100         7
54.110         0
54.120         7
54.130         0
54.140         0
54.150        27
54.160         0
54.170         7
54.180         7
54.190        20
54.200        27
54.210        33
54.220        13
54.230        20
54.240        20
54.250        20
54.260         0
54.270        13
54.280        27
54.290         7
54.300        13
54.310        27
54.320        20
54.330        13
54.340        33
54.350        13
54.360        20
54.370        13
54.380        27
54.390         7
54.400         7
54.410         7
54.420         0
54.430        20
54.440         0
54.450         7
54.460         7
54.470        13
54.480        33
54.490         0
54.500        13
54.510        13
54.520         7
54.530        20
54.540        27
54.550         7
54.560        20
54.570        13
54.580         7
54.590         7
54.600        20
54.610        13
54.620        27
54.630        20
54.640         0
54.650        27
54.660        20
54.670        27
54.680         7
54.690        20
54.700        13
54.710         7
54.720        20
54.730        13
54.740        13
54.750        13
54.760        13
54.770        20
54.780        13
54.790        13
54.800         0
54.810        13
54.820        13
54.830        20
54.840        13
54.850        33
54.860         7
54.870        13
54.880         7
54.890        20
54.900         7
54.910        13
54.920        20
54.930         7
54.940        20
54.950         7
54.960        27
54.970         7
54.980         7
54.990         7
55.000         7
55.010         7
55.020        20
55.030        33
55.040        13
55.050         7
55.060        27
55.070        13
55.080         7
55.090        13
55.100         7
55.110        20
55.120        33
55.130        13
55.140         7
55.150        20
55.160         7
55.170         7
55.180        13
55.190         7
55.200         7
55.210         7
55.220        20
55.230        20
55.240        20
55.250         7
55.260        20
55.270         0
55.280        27
55.290        20
55.300         7
55.310        13
55.320         0
55.330        13
55.340         7
55.350         0
55.360        13
55.370        13
55.380        27
55.390         7
55.400         7
55.410        47
55.420        20
55.430        20
55.440         7
55.450        27
55.460        13
55.470        27
55.480         7
55.490         7
55.500         7
55.510         7
55.520        27
55.530        20
55.540        33
55.550        13
55.560         7
55.570        20
55.580        13
55.590        13
55.600        20
55.610        13
55.620         7
55.630         7
55.640         7
55.650         0
55.660        13
55.670         7
55.680         0
55.690        20
55.700        27
55.710         0
55.720        20
55.730        20
55.740        20
55.750        13
55.760        20
55.770        13
55.780         0
55.790         0
55.800        13
55.810        33
55.820        13
55.830        13
55.840        27
55.850        13
55.860         7
55.870         7
55.880         0
55.890        13
55.900         7
55.910         7
55.920        20
55.930        33
55.940        13
55.950        13
55.960        13
55.970        13
55.980        27
55.990        13
56.000        27
56.010        13
56.020        13
56.030        20
56.040        20
56.050         0
56.060        47
56.070         0
56.080         7
56.090        13
56.100         0
56.110        20
56.120        27
56.130        20
56.140         0
56.150        27
56.160         7
56.170        13
56.180        13
56.190        13
56.200         7
56.210         7
56.220        33
56.230         7
56.240        13
56.250         7
56.260        13
56.270        13
56.280         7
56.290         7
56.300         7
56.310        13
56.320        13
56.330        13
56.340        13
56.350         7
56.360        33
56.370        20
56.380        13
56.390        13
56.400        20
56.410        20
56.420        13
56.430         0
56.440        20
56.450        20
56.460        27
56.470        20
56.480         7
56.490        13
56.500        20
56.510         7
56.520        20
56.530         0
56.540         7
56.550         7
56.560         0
56.570        13
56.580        20
56.590         7
56.600         0
56.610         7
56.620        13
56.630        13
56.640        13
56.650        33
56.660        13
56.670        13
56.680         0
56.690        13
56.700        20
56.710        13
56.720        13
56.730        20
56.740         0
56.750         7
56.760        20
56.770        40
56.780        13
56.790        13
56.800         7
56.810        27
56.820        13
56.830        40
56.840         0
56.850        20
56.860        27
56.870        13
56.880        33
56.890         7
56.900        27
56.910        20
56.920        27
56.930        33
56.940        20
56.950        27
56.960        20
56.970        13
56.980        27
56.990        13
57.000        27
57.010        33
57.020        20
57.030        33
57.040        13
57.050        13
57.060        20
57.070        20
57.080         0
57.090         7
57.100        20
57.110         7
57.120         7
57.130        13
57.140        40
57.150        13
57.160        27
57.170        20
57.180        33
57.190        40
57.200        33
57.210        20
57.220        33
57.230        27
57.240        67
57.250        33
57.260        40
57.270        27
57.280        53
57.290        20
57.300        33
57.310        60
57.320        33
57.330        60
57.340        20
57.350        60
57.360        27
57.370        87
57.380        60
57.390        80
57.400        53
57.410        60
57.420       120
57.430       133
57.440        87
57.450       173
57.460       160
57.470        93
57.480       167
57.490       167
57.500       320
57.510       360
57.520       313
57.530       433
57.540       373
57.550       353
57.560       260
57.570       260
57.580       153
57.590       153
57.600        73
57.610       107
57.620        87
57.630        93
57.640       120
57.650       133
57.660       173
57.670       140
57.680       173
57.690       187
57.700       173
57.710       240
57.720       107
57.730       107
57.740       113
57.750       107
57.760        27
57.770        60
57.780        53
57.790         7
57.800        33
57.810        27
57.820        60
57.830        40
57.840        53
57.850        53
57.860        33
57.870        20
57.880         7
57.890        40
57.900        20
57.910         0
57.920        40
57.930        27
57.940        33
57.950        47
57.960        13
57.970        20
57.980        20
57.990        27
58.000        33
58.010        27
58.020        13
58.030        13
58.040        33
58.050        27
58.060        13
58.070         7
58.080        20
58.090        20
58.100        27
58.110        33
58.120        20
58.130         7
58.140        33
58.150        20
58.160        40
58.170        13
58.180         7
58.190         7
58.200        13
58.210         7
58.220        13
58.230         7
58.240        53
58.250        13
58.260         7
58.270         7
58.280         7
58.290        33
58.300        20
58.310        20
58.320        27
58.330        13
58.340        13
58.350        20
58.360         7
58.370        27
58.380        33
58.390        13
58.400        20
58.410         7
58.420        20
58.430        13
58.440         7
58.450        20
58.460        13
58.470        13
58.480        13
58.490         7
58.500        60
58.510        13
58.520        27
58.530        40
58.540        13
58.550        20
58.560        20
58.570         7
58.580        13
58.590        20
58.600        13
58.610         0
58.620        13
58.630         0
58.640        20
58.650         7
58.660         0
58.670        20
58.680        20
58.690         7
58.700        20
58.710        13
58.720        13
58.730        20
58.740         0
58.750        13
58.760        13
58.770         7
58.780        13
58.790        13
58.800         7
58.810         7
58.820         7
58.830        13
58.840         7
58.850        33
58.860         7
58.870         0
58.880        27
58.890        27
58.900        13
58.910         0
58.920        33
58.930        33
58.940        27
58.950         7
58.960        13
58.970        27
58.980         0
58.990        20
59.000        13
59.010        20
59.020        13
59.030        20
59.040        13
59.050        20
59.060        13
59.070         7
59.080         0
59.090        20
59.100        20
59.110        20
59.120        27
59.130        27
59.140         7
59.150         7
59.160        20
59.170        20
59.180        20
59.190        33
59.200         7
59.210         7
59.220         7
59.230        40
59.240         0
59.250        20
59.260         0
59.270         7
59.280        13
59.290        20
59.300        33
59.310        20
59.320        27
59.330        13
59.340        20
59.350        13
59.360        40
59.370        20
59.380        40
59.390         7
59.400         0
59.410        20
59.420         7
59.430        13
59.440        20
59.450        33
59.460        13
59.470         7
59.480        33
59.490        27
59.500        20
59.510        13
59.520        13
59.530         7
59.540         7
59.550        20
59.560        13
59.570        20
59.580        13
59.590        13
59.600         0
59.610        20
59.620         7
59.630        27
59.640         7
59.650         7
59.660        20
59.670        20
59.680         0
59.690        13
59.700        33
59.710        13
59.720        20
59.730        20
59.740         7
59.750        13
59.760        13
59.770         7
59.780        20
59.790        20
59.800        20
59.810        40
59.820         0
59.830        27
59.840        13
59.850        27
59.860        13
59.870        20
59.880         0
59.890        33
59.900        27
59.910        20
59.920        13
59.930        20
59.940        13
59.950         7
59.960        20
59.970         7
59.980         7
59.990        20
60.000         7
