20.000        47
20.010        53
20.020        33
20.030        53
20.040        60
20.050        40
20.060        40
20.070        93
20.080        73
20.090        60
20.100        53
20.110        60
20.120        47
20.130        40
20.140        60
20.150        53
20.160        53
20.170        27
20.180        47
20.190        60
20.200        53
20.210        20
20.220        47
20.230        67
20.240        40
20.250        27
20.260        67
20.270        47
20.280        53
20.290        47
20.300        27
20.310        87
20.320        53
20.330        60
20.340        53
20.350        87
20.360        33
20.370        67
20.380        47
20.390        33
20.400        27
20.410        47
20.420        73
20.430        33
20.440        73
20.450        40
20.460        47
20.470        53
20.480        33
20.490        47
20.500        40
20.510        40
20.520        20
20.530        47
20.540        67
20.550        60
20.560        40
20.570        73
20.580        33
20.590        33
20.600        67
20.610        27
20.620        40
20.630        27
20.640        93
20.650        20
20.660        67
20.670        47
20.680        53
20.690        40
20.700        40
20.710        47
20.720        13
20.730        47
20.740        67
20.750        47
20.760        33
20.770        73
20.780        67
20.790        47
20.800        60
20.810        33
20.820        33
20.830        87
20.840        60
20.850        47
20.860        53
20.870        60
20.880        40
20.890        67
20.900        40
20.910        13
20.920        67
20.930        33
20.940        33
20.950        80
20.960        33
20.970        20
20.980        47
20.990        40
21.000        53
21.010        73
21.020        33
21.030        67
21.040        53
21.050        47
21.060        53
21.070        40
21.080        33
21.090        33
21.100        60
21.110        53
21.120        53
21.130        67
21.140        47
21.150        60
21.160        87
21.170        40
21.180        20
21.190        20
21.200        27
21.210        13
21.220        53
21.230        60
21.240        47
21.250        47
21.260        33
21.270        40
21.280        33
21.290        47
21.300        27
21.310        47
21.320        47
21.330        47
21.340        20
21.350        60
21.360        47
21.370        47
21.380        47
21.390        87
21.400        67
21.410        60
21.420        67
21.430        47
21.440        40
21.450        47
21.460        47
21.470        47
21.480        27
21.490        53
21.500        53
21.510        60
21.520        67
21.530        33
21.540        67
21.550        40
21.560        67
21.570        73
21.580        27
21.590        60
21.600        60
21.610        27
21.620        40
21.630        33
21.640        73
21.650        80
21.660        33
21.670        47
21.680        20
21.690        33
21.700        40
21.710        27
21.720        53
21.730        67
21.740        40
21.750        67
21.760        40
21.770        47
21.780        73
21.790        53
21.800        53
21.810        87
21.820        27
21.830        60
21.840        20
21.850        33
21.860        53
21.870        27
21.880        27
21.890        80
21.900        47
21.910        73
21.920        40
21.930        67
21.940        40
21.950        53
21.960        33
21.970        53
21.980        13
21.990        33
22.000        20
22.010        60
22.020        27
22.030        27
22.040        67
22.050        53
22.060        47
22.070        53
22.080        53
22.090        47
22.100        67
22.110        27
22.120        33
22.130        40
22.140        67
22.150        47
22.160        47
22.170        33
22.180        67
22.190        33
22.200        40
22.210        47
22.220        67
22.230        20
22.240        80
22.250        47
22.260        27
22.270        40
22.280        53
22.290        33
22.300        53
22.310        53
22.320        47
22.330        40
22.340        40
22.350         7
22.360        47
22.370        73
22.380        40
22.390        60
22.400        13
22.410        47
22.420        13
22.430        40
22.440        73
22.450        93
22.460        47
22.470        87
22.480        60
22.490       100
22.500        67
22.510        67
22.520        73
22.530        73
22.540        73
22.550        93
22.560       100
22.570        87
22.580        87
22.590       127
22.600       153
22.610       167
22.620       167
22.630       207
22.640       273
22.650       233
22.660       320
22.670       327
22.680       300
22.690       426
22.700       526
22.710       480
22.720       640
22.730       626
22.740       726
22.750       813
22.760       733
22.770       820
22.780       726
22.790       720
22.800       620
22.810       566
22.820       500
22.830       360
22.840       340
22.850       247
22.860       233
22.870       173
22.880       187
22.890       107
22.900        93
22.910       100
22.920        67
22.930        80
22.940        73
22.950        40
22.960        67
22.970        73
22.980        73
22.990        73
23.000        53
23.010        67
23.020        27
23.030        47
23.040        53
23.050       100
23.060        40
23.070        40
23.080        47
23.090        27
23.100        67
23.110        67
23.120        47
23.130        47
23.140        47
23.150        27
23.160        27
23.170        80
23.180        40
23.190        33
23.200        80
23.210        33
23.220        47
23.230        67
23.240        33
23.250        47
23.260        40
23.270        47
23.280        60
23.290        60
23.300        53
23.310        40
23.320        47
23.330        40
23.340        27
23.350        47
23.360        40
23.370        33
23.380        73
23.390        53
23.400        67
23.410        60
23.420        53
23.430        33
23.440        47
23.450        40
23.460        80
23.470        87
23.480        60
23.490        60
23.500        47
23.510        47
23.520        47
23.530        20
23.540        20
23.550        40
23.560        47
23.570        47
23.580        60
23.590        47
23.600        33
23.610        67
23.620        60
23.630         7
23.640        60
23.650        27
23.660        40
23.670        67
23.680        60
23.690        47
23.700        67
23.710        53
23.720        27
23.730        80
23.740        40
23.750        67
23.760        47
23.770        67
23.780        47
23.790        40
23.800        40
23.810        20
23.820        60
23.830        47
23.840        73
23.850        47
23.860        53
23.870        53
23.880        47
23.890        40
23.900        20
23.910        20
23.920        53
23.930        13
23.940        40
23.950        60
23.960        47
23.970        33
23.980        33
23.990        20
24.000        53
24.010        33
24.020        27
24.030        53
24.040        47
24.050        47
24.060        47
24.070        67
24.080        27
24.090        60
24.100        33
24.110        40
24.120        40
24.130        60
24.140        73
24.150        27
24.160        47
24.170        40
24.180        33
24.190        47
24.200        80
24.210        67
24.220        40
24.230        27
24.240        40
24.250        53
24.260        40
24.270        27
24.280        47
24.290        20
24.300        27
24.310        73
24.320        53
24.330        40
24.340        27
24.350        67
24.360        40
24.370        33
24.380        47
24.390        27
24.400        33
24.410        33
24.420        27
24.430        67
24.440        27
24.450        40
24.460        33
24.470        47
24.480        53
24.490        33
24.500        60
24.510        13
24.520        53
24.530        40
24.540         7
24.550        13
24.560        60
24.570        47
24.580        47
24.590        53
24.600        27
24.610        27
24.620        53
24.630        67
24.640        33
24.650        27
24.660        33
24.670        73
24.680        20
24.690        40
24.700        67
24.710        27
24.720        13
24.730        80
24.740        47
24.750        40
24.760        40
24.770        53
24.780        73
24.790        60
24.800        20
24.810        67
24.820        40
24.830        67
24.840        60
24.850        53
24.860        87
24.870        20
24.880        40
24.890        40
24.900        40
24.910        27
24.920        80
24.930        40
24.940        40
24.950        47
24.960        40
24.970        67
24.980        33
24.990        33
25.000        33
25.010        67
25.020        27
25.030        67
25.040        20
25.050        47
25.060        47
25.070        20
25.080        20
25.090        27
25.100        20
25.110        60
25.120        27
25.130        40
25.140        40
25.150        53
25.160        53
25.170        53
25.180        27
25.190        73
25.200        47
25.210        60
25.220        53
25.230        53
25.240        33
25.250        80
25.260        60
25.270        40
25.280        53
25.290        73
25.300        13
25.310        53
25.320        13
25.330        40
25.340        73
25.350        27
25.360        27
25.370        47
25.380        20
25.390        60
25.400        20
25.410        47
25.420        40
25.430        80
25.440        53
25.450        73
25.460        33
25.470        40
25.480        53
25.490        53
25.500       100
25.510        73
25.520       107
25.530        93
25.540       107
25.550       120
25.560       127
25.570        93
25.580        93
25.590        93
25.600       167
25.610        87
25.620       133
25.630        40
25.640        80
25.650        27
25.660        33
25.670        47
25.680        27
25.690        47
25.700        53
25.710        33
25.720        67
25.730        13
25.740        40
25.750        60
25.760        47
25.770        40
25.780        40
25.790        60
25.800        13
25.810        27
25.820        47
25.830        20
25.840        33
25.850        67
25.860        47
25.870        60
25.880        40
25.890        27
25.900        47
25.910        40
25.920        47
25.930        33
25.940        67
25.950        27
25.960        47
25.970        53
25.980        53
25.990        40
26.000        33
26.010        40
26.020        47
26.030        27
26.040        13
26.050        60
26.060        33
26.070        20
26.080        40
26.090        40
26.100         7
26.110        40
26.120        47
26.130        53
26.140        33
26.150        20
26.160        40
26.170        73
26.180        33
26.190        40
26.200        20
26.210        27
26.220        53
26.230        33
26.240        33
26.250        13
26.260        53
26.270        33
26.280        40
26.290        47
26.300        33
26.310        27
26.320        27
26.330        20
26.340        93
26.350        33
26.360        33
26.370        67
26.380        47
26.390        27
26.400        40
26.410        47
26.420        20
26.430        60
26.440        53
26.450        27
26.460        40
26.470        53
26.480        40
26.490        60
26.500        33
26.510        33
26.520        33
26.530        27
26.540        40
26.550        40
26.560        20
26.570        67
26.580        20
26.590        20
26.600        33
26.610        53
26.620        40
26.630        33
26.640        47
26.650        27
26.660        27
26.670        53
26.680        20
26.690        33
26.700        60
26.710        27
26.720        40
26.730        40
26.740        33
26.750        40
26.760        33
26.770        60
26.780        20
26.790        20
26.800        33
26.810        40
26.820        27
26.830        13
26.840        27
26.850        13
26.860        20
26.870        13
26.880        40
26.890        27
26.900        47
26.910        80
26.920        40
26.930        33
26.940        80
26.950        13
26.960        53
26.970        33
26.980        33
26.990        60
27.000        27
27.010        40
27.020        60
27.030        47
27.040         0
27.050        40
27.060        13
27.070        27
27.080        40
27.090        53
27.100        20
27.110        47
27.120        47
27.130        13
27.140        33
27.150        53
27.160        47
27.170         0
27.180        47
27.190        33
27.200        60
27.210        33
27.220        33
27.230        33
27.240        20
27.250        33
27.260        40
27.270        67
27.280        80
27.290        53
27.300        47
27.310        27
27.320        40
27.330        53
27.340        33
27.350        20
27.360        40
27.370        20
27.380        60
27.390        27
27.400        27
27.410        60
27.420        73
27.430        33
27.440        27
27.450        33
27.460        27
27.470        27
27.480        40
27.490        27
27.500        27
27.510        80
27.520        20
27.530        20
27.540        13
27.550        13
27.560        27
27.570        40
27.580        27
27.590        47
27.600        33
27.610        53
27.620        53
27.630        67
27.640        40
27.650        40
27.660        27
27.670        27
27.680        47
27.690        67
27.700        40
27.710        27
27.720        47
27.730        20
27.740        13
27.750        27
27.760        33
27.770        20
27.780        53
27.790        33
27.800        53
27.810        33
27.820        20
27.830        33
27.840        40
27.850        13
27.860        33
27.870        40
27.880        47
27.890        67
27.900        53
27.910        80
27.920        47
27.930        20
27.940        47
27.950        47
27.960        27
27.970        27
27.980        47
27.990        53
28.000        33
28.010        47
28.020        47
28.030        27
28.040         7
28.050        27
28.060        40
28.070        40
28.080        27
28.090        13
28.100        27
28.110        20
28.120        47
28.130        33
28.140        27
28.150        27
28.160        20
28.170        27
28.180        27
28.190        27
28.200        27
28.210        20
28.220        47
28.230        87
28.240        13
28.250        27
28.260        20
28.270        40
28.280        33
28.290        27
28.300        40
28.310        27
28.320         7
28.330        80
28.340        27
28.350        60
28.360         0
28.370        27
28.380        47
28.390        53
28.400        53
28.410        33
28.420        53
28.430        27
28.440        27
28.450        47
28.460        33
28.470         7
28.480        13
28.490        13
28.500        40
28.510        33
28.520        40
28.530       107
28.540        40
28.550        33
28.560        40
28.570        47
28.580        33
28.590        20
28.600        27
28.610        33
28.620        13
28.630        33
28.640        47
28.650        27
28.660        33
28.670        53
28.680        27
28.690        60
28.700        13
28.710        27
28.720        20
28.730        47
28.740         7
28.750        27
28.760        47
28.770        67
28.780        47
28.790        40
28.800        27
28.810        27
28.820        20
28.830        27
28.840        47
28.850        67
28.860        53
28.870        40
28.880        33
28.890        40
28.900        40
28.910        20
28.920        27
28.930        40
28.940        20
28.950        33
28.960        47
28.970        33
28.980        27
28.990        47
29.000         7
29.010        27
29.020        67
29.030        47
29.040        33
29.050        47
29.060        33
29.070        33
29.080        53
29.090        53
29.100        13
29.110        60
29.120        33
29.130        47
29.140        33
29.150        33
29.160        53
29.170        47
29.180        40
29.190        13
29.200        33
29.210        53
29.220         7
29.230        40
29.240        53
29.250        13
29.260        33
29.270        80
29.280        20
29.290        40
29.300        20
29.310        40
29.320        13
29.330         7
29.340        13
29.350        20
29.360        60
29.370        40
29.380        47
29.390        40
29.400        33
29.410        53
29.420        60
29.430        53
29.440         7
29.450        20
29.460        33
29.470        33
29.480        20
29.490        33
29.500        20
29.510        60
29.520        40
29.530        33
29.540        27
29.550        53
29.560        13
29.570        40
29.580        60
29.590        27
29.600        20
29.610        53
29.620        33
29.630        40
29.640        33
29.650        60
29.660        13
29.670        40
29.680        20
29.690         7
29.700        33
29.710        47
29.720        27
29.730        20
29.740        27
29.750        47
29.760        33
29.770        47
29.780        53
29.790        47
29.800        20
29.810        33
29.820        33
29.830        27
29.840        40
29.850        13
29.860        13
29.870        33
29.880        27
29.890        53
29.900        53
29.910        40
29.920        40
29.930        27
29.940        33
29.950        33
29.960        13
29.970        27
29.980        27
29.990        40
30.000        73
30.010        40
30.020        20
30.030        47
30.040        27
30.050        33
30.060        20
30.070        40
30.080        20
30.090        27
30.100        60
30.110        20
30.120        27
30.130        20
30.140        27
30.150        27
30.160        27
30.170         7
30.180        60
30.190        33
30.200        33
30.210        33
30.220        60
30.230        47
30.240        13
30.250         7
30.260        20
30.270        40
30.280        33
30.290        67
30.300        47
30.310         7
30.320        13
30.330        40
30.340        40
30.350        13
30.360        33
30.370        67
30.380        27
30.390        40
30.400        67
30.410        20
30.420        27
30.430        20
30.440        13
30.450        27
30.460        47
30.470        33
30.480        33
30.490        20
30.500        33
30.510        40
30.520        47
30.530        27
30.540        33
30.550        13
30.560        20
30.570        33
30.580        13
30.590        33
30.600        40
30.610        13
30.620        40
30.630        67
30.640        27
30.650        53
30.660        27
30.670        33
30.680        13
30.690        47
30.700        13
30.710        53
30.720        40
30.730        20
30.740        33
30.750        53
30.760        33
30.770        20
30.780        20
30.790        40
30.800        33
30.810        27
30.820        27
30.830        33
30.840        47
30.850        13
30.860        20
30.870        27
30.880        33
30.890        27
30.900        33
30.910        27
30.920        47
30.930         7
30.940        27
30.950        20
30.960        40
30.970        20
30.980        40
30.990        47
31.000        27
31.010        33
31.020        40
31.030        53
31.040        20
31.050        13
31.060        27
31.070         7
31.080        40
31.090        13
31.100        47
31.110        20
31.120        33
31.130        47
31.140        40
31.150        80
31.160        33
31.170        33
31.180        47
31.190        20
31.200        13
31.210        60
31.220        20
31.230        33
31.240        33
31.250        47
31.260        20
31.270        27
31.280        40
31.290        20
31.300         0
31.310        53
31.320        53
31.330        73
31.340        13
31.350        20
31.360        33
31.370        40
31.380        67
31.390        53
31.400        47
31.410        27
31.420        27
31.430        33
31.440        40
31.450        33
31.460        27
31.470        13
31.480        27
31.490        27
31.500        33
31.510        13
31.520        20
31.530        40
31.540        13
31.550        20
31.560        27
31.570        47
31.580        60
31.590        20
31.600        33
31.610        20
31.620        20
31.630        33
31.640        27
31.650        20
31.660        27
31.670        33
31.680        13
31.690        33
31.700        27
31.710        40
31.720        53
31.730         7
31.740        20
31.750        13
31.760        27
31.770         0
31.780        13
31.790        33
31.800        33
31.810        47
31.820        27
31.830        33
31.840        53
31.850        67
31.860        27
31.870        13
31.880        20
31.890        20
31.900        27
31.910        33
31.920        20
31.930        40
31.940        20
31.950        20
31.960        20
31.970        20
31.980        47
31.990         7
32.000        27
32.010        27
32.020        40
32.030         7
32.040        27
32.050        47
32.060        27
32.070        27
32.080        27
32.090        53
32.100        40
32.110        27
32.120        40
32.130        33
32.140        27
32.150        60
32.160        47
32.170        40
32.180        47
32.190        33
32.200        60
32.210        33
32.220        47
32.230        73
32.240        80
32.250       100
32.260        80
32.270        87
32.280        93
32.290       107
32.300        93
32.310       100
32.320       120
32.330       147
32.340       133
32.350       200
32.360       213
32.370       273
32.380       267
32.390       307
32.400       293
32.410       340
32.420       400
32.430       440
32.440       473
32.450       400
32.460       460
32.470       460
32.480       440
32.490       413
32.500       446
32.510       353
32.520       307
32.530       293
32.540       273
32.550       293
32.560       207
32.570       193
32.580       153
32.590       133
32.600       127
32.610       140
32.620        67
32.630        60
32.640        60
32.650        87
32.660        67
32.670        33
32.680        13
32.690        33
32.700        20
32.710        47
32.720        53
32.730        33
32.740        53
32.750        20
32.760        13
32.770        40
32.780        33
32.790        33
32.800        27
32.810        20
32.820        33
32.830        27
32.840        20
32.850        40
32.860        20
32.870        47
32.880        33
32.890        27
32.900        20
32.910         7
32.920        33
32.930        33
32.940        20
32.950        33
32.960        27
32.970        27
32.980        13
32.990         7
33.000         7
33.010        47
33.020        47
33.030        33
33.040        47
33.050        40
33.060        20
33.070         7
33.080        47
33.090        60
33.100         7
33.110         7
33.120        20
33.130        40
33.140        40
33.150        47
33.160        13
33.170        33
33.180         7
33.190        20
33.200        27
33.210        40
33.220        40
33.230        13
33.240        40
33.250        53
33.260        33
33.270        20
33.280        20
33.290        20
33.300        20
33.310        47
33.320        33
33.330        33
33.340        27
33.350        33
33.360        40
33.370        13
33.380        13
33.390        53
33.400        20
33.410        27
33.420        20
33.430        47
33.440         0
33.450        27
33.460        33
33.470        40
33.480        27
33.490        47
33.500        13
33.510        27
33.520        13
33.530        13
33.540        33
33.550        40
33.560        53
33.570        20
33.580        20
33.590        13
33.600        33
33.610        20
33.620        33
33.630        53
33.640        27
33.650        20
33.660        27
33.670        13
33.680        20
33.690        47
33.700        33
33.710        20
33.720        40
33.730        20
33.740        27
33.750        33
33.760        27
33.770        27
33.780        27
33.790        33
33.800        20
33.810        33
33.820        13
33.830         7
33.840        47
33.850        47
33.860        27
33.870        40
33.880         0
33.890        47
33.900         0
33.910        33
33.920        13
33.930        13
33.940        27
33.950        47
33.960        33
33.970        20
33.980         7
33.990        53
34.000        33
34.010        20
34.020         7
34.030        33
34.040        27
34.050        47
34.060        53
34.070        27
34.080        27
34.090        20
34.100        47
34.110        27
34.120        27
34.130        47
34.140        33
34.150        27
34.160        40
34.170        20
34.180        33
34.190        27
34.200        20
34.210        47
34.220        13
34.230        33
34.240        47
34.250        13
34.260        47
34.270        13
34.280         7
34.290        20
34.300        40
34.310        33
34.320        40
34.330        20
34.340        33
34.350        60
34.360        47
34.370        33
34.380        20
34.390        13
34.400        27
34.410        13
34.420        27
34.430        13
34.440        47
34.450        33
34.460        53
34.470        33
34.480        47
34.490        13
34.500        33
34.510        33
34.520        13
34.530        73
34.540        27
34.550        33
34.560         7
34.570        27
34.580        27
34.590        27
34.600         7
34.610        20
34.620        20
34.630        40
34.640        27
34.650        13
34.660        47
34.670        47
34.680        47
34.690        13
34.700        47
34.710        20
34.720         7
34.730        33
34.740        13
34.750        53
34.760        27
34.770        20
34.780        20
34.790         7
34.800        33
34.810        33
34.820        20
34.830        27
34.840        27
34.850        13
34.860        47
34.870        47
34.880        67
34.890        40
34.900        20
34.910        33
34.920        33
34.930        27
34.940        47
34.950        67
34.960        53
34.970        67
34.980        47
34.990        67
35.000        73
35.010        67
35.020        40
35.030        80
35.040        67
35.050        67
35.060        93
35.070        33
35.080        67
35.090       113
35.100       107
35.110       113
35.120       193
35.130       247
35.140       240
35.150       320
35.160       307
35.170       207
35.180       313
35.190       193
35.200       133
35.210       167
35.220       160
35.230       227
35.240       180
35.250       120
35.260       113
35.270       107
35.280        80
35.290        87
35.300        47
35.310        33
35.320        40
35.330        33
35.340        20
35.350        27
35.360        53
35.370        20
35.380        33
35.390        20
35.400        40
35.410        40
35.420        40
35.430        87
35.440         7
35.450         7
35.460         7
35.470        40
35.480        20
35.490        27
35.500        33
35.510        20
35.520        20
35.530        13
35.540        20
35.550        27
35.560        33
35.570        20
35.580        20
35.590         7
35.600        40
35.610        33
35.620        33
35.630        40
35.640        13
35.650        27
35.660         7
35.670         0
35.680        27
35.690        13
35.700        27
35.710        20
35.720        27
35.730        13
35.740        27
35.750        20
35.760        33
35.770         7
35.780        20
35.790         7
35.800         7
35.810        20
35.820        20
35.830        67
35.840        20
35.850         7
35.860        47
35.870        27
35.880        33
35.890        27
35.900        27
35.910        27
35.920        20
35.930        53
35.940        27
35.950        20
35.960        20
35.970        20
35.980        13
35.990        20
36.000        27
36.010        33
36.020         7
36.030        60
36.040        33
36.050        20
36.060        33
36.070        27
36.080        13
36.090        13
36.100        20
36.110         7
36.120         0
36.130        20
36.140        20
36.150        13
36.160        27
36.170        27
36.180         7
36.190        33
36.200        13
36.210        20
36.220        20
36.230        20
36.240        47
36.250         0
36.260        27
36.270        20
36.280        60
36.290        20
36.300         7
36.310        20
36.320        27
36.330        67
36.340        60
36.350        13
36.360        20
36.370        20
36.380        47
36.390        27
36.400        20
36.410        20
36.420        33
36.430        13
36.440        33
36.450        13
36.460        13
36.470         7
36.480        40
36.490        33
36.500        20
36.510        80
36.520        40
36.530         7
36.540        13
36.550        13
36.560         7
36.570         7
36.580        27
36.590        40
36.600        33
36.610        27
36.620        27
36.630        40
36.640         7
36.650        27
36.660        27
36.670        33
36.680        20
36.690         7
36.700        20
36.710        20
36.720        13
36.730        33
36.740        40
36.750        27
36.760        33
36.770        27
36.780        27
36.790        20
36.800         0
36.810        13
36.820        13
36.830        27
36.840        33
36.850        33
36.860        33
36.870        27
36.880        27
36.890         7
36.900        47
36.910         7
36.920        27
36.930        20
36.940         7
36.950        33
36.960        33
36.970        20
36.980        33
36.990         7
37.000        40
37.010        13
37.020        20
37.030        27
37.040        27
37.050         7
37.060        33
37.070        13
37.080        53
37.090        13
37.100         7
37.110        13
37.120        40
37.130        27
37.140        13
37.150         7
37.160        27
37.170         7
37.180         7
37.190        33
37.200        27
37.210        13
37.220        20
37.230        27
37.240        40
37.250        20
37.260        27
37.270        40
37.280        20
37.290        20
37.300        13
37.310         0
37.320        13
37.330        27
37.340        33
37.350        33
37.360        27
37.370        20
37.380         7
37.390        33
37.400        40
37.410        47
37.420         7
37.430        20
37.440        20
37.450        20
37.460        20
37.470        60
37.480        27
37.490        33
37.500        40
37.510        13
37.520        47
37.530        20
37.540        33
37.550        40
37.560        40
37.570        33
37.580        47
37.590        40
37.600        40
37.610        27
37.620        33
37.630        13
37.640        47
37.650        33
37.660        33
37.670        27
37.680        40
37.690        40
37.700        33
37.710        47
37.720        60
37.730        40
37.740        20
37.750       107
37.760        67
37.770        40
37.780        67
37.790        53
37.800        60
37.810        27
37.820        40
37.830        67
37.840        40
37.850        53
37.860        47
37.870        53
37.880        53
37.890        40
37.900        53
37.910        47
37.920        67
37.930        33
37.940        27
37.950        20
37.960         7
37.970        13
37.980        20
37.990        33
38.000        47
38.010         7
38.020        13
38.030        13
38.040         7
38.050        33
38.060        20
38.070        53
38.080         7
38.090        40
38.100         7
38.110        13
38.120        27
38.130        20
38.140         0
38.150         7
38.160         7
38.170        33
38.180        27
38.190        27
38.200        33
38.210        40
38.220        33
38.230        27
38.240         7
38.250        13
38.260        20
38.270        40
38.280        53
38.290        27
38.300        20
38.310        20
38.320        13
38.330        40
38.340        40
38.350        13
38.360        33
38.370        53
38.380        13
38.390         7
38.400        20
38.410         7
38.420        20
38.430        20
38.440         7
38.450        13
38.460        13
38.470        27
38.480        27
38.490         0
38.500        20
38.510         7
38.520        27
38.530        33
38.540        33
38.550        27
38.560        20
38.570        20
38.580        13
38.590        13
38.600        13
38.610        27
38.620        47
38.630        40
38.640        33
38.650        13
38.660        27
38.670        27
38.680        27
38.690        27
38.700        33
38.710        20
38.720        53
38.730        27
38.740        20
38.750        27
38.760        33
38.770        20
38.780         7
38.790        40
38.800        13
38.810         7
38.820        33
38.830        20
38.840        27
38.850        27
38.860        20
38.870        53
38.880        27
38.890         0
38.900        20
38.910        27
38.920        27
38.930        33
38.940         7
38.950        47
38.960        27
38.970         7
38.980        20
38.990         7
39.000        13
39.010        20
39.020        20
39.030        27
39.040        27
39.050        40
39.060        20
39.070        13
39.080        33
39.090        20
39.100        27
39.110        40
39.120        20
39.130        13
39.140        20
39.150        40
39.160        33
39.170        33
39.180        40
39.190         7
39.200         7
39.210        13
39.220        20
39.230        40
39.240        40
39.250        40
39.260        20
39.270         7
39.280         7
39.290         0
39.300         7
39.310        20
39.320        13
39.330        27
39.340         7
39.350        20
39.360        33
39.370        33
39.380        27
39.390        20
39.400        33
39.410         7
39.420        20
39.430        20
39.440        53
39.450        20
39.460        40
39.470        33
39.480        33
39.490        20
39.500        33
39.510        33
39.520        13
39.530        27
39.540        27
39.550        33
39.560        13
39.570        20
39.580        13
39.590        27
39.600        33
39.610         0
39.620         7
39.630        13
39.640        33
39.650         7
39.660        20
39.670        13
39.680        20
39.690        27
39.700        20
39.710        13
39.720        27
39.730         7
39.740        60
39.750        27
39.760        13
39.770        20
39.780        40
39.790        20
39.800        53
39.810        27
39.820        40
39.830        53
39.840        33
39.850        33
39.860        47
39.870        33
39.880        33
39.890        40
39.900        60
39.910        47
39.920        73
39.930       113
39.940        40
39.950       100
39.960       113
39.970       113
39.980       140
39.990       120
40.000       173
40.010       160
40.020       193
40.030       140
40.040       107
40.050       200
40.060       253
40.070       180
40.080       220
40.090       147
40.100       160
40.110       160
40.120       100
40.130       147
40.140       133
40.150       140
40.160       113
40.170        93
40.180       113
40.190       127
40.200        80
40.210        93
40.220        73
40.230        53
40.240        47
40.250        27
40.260        53
40.270        47
40.280        20
40.290        27
40.300        27
40.310        47
40.320        13
40.330        20
40.340        20
40.350        27
40.360        40
40.370         7
40.380        33
40.390        40
40.400        27
40.410         7
40.420        20
40.430        20
40.440        33
40.450        53
40.460        20
40.470        20
40.480        13
40.490        20
40.500        13
40.510        20
40.520        40
40.530        60
40.540        20
40.550        27
40.560         7
40.570        20
40.580        33
40.590         7
40.600        40
40.610        40
40.620        47
40.630        13
40.640        27
40.650         7
40.660        27
40.670        20
40.680        13
40.690         7
40.700        20
40.710        27
40.720        20
40.730        20
40.740        13
40.750        47
40.760         0
40.770         7
40.780        27
40.790        13
40.800        33
40.810        53
40.820        13
40.830        20
40.840        40
40.850        33
40.860        27
40.870        47
40.880        40
40.890        13
40.900        40
40.910        27
40.920        20
40.930        33
40.940        27
40.950        20
40.960        20
40.970        27
40.980        33
40.990         7
41.000        20
41.010         7
41.020        20
41.030        13
41.040        33
41.050        47
41.060        20
41.070        13
41.080         0
41.090        27
41.100        27
41.110         0
41.120        27
41.130         7
41.140        33
41.150         7
41.160        20
41.170        53
41.180         7
41.190        20
41.200        33
41.210        27
41.220        33
41.230        27
41.240        20
41.250        13
41.260        47
41.270        27
41.280        27
41.290        13
41.300        33
41.310        27
41.320        67
41.330        13
41.340        13
41.350        33
41.360        20
41.370        33
41.380        27
41.390        13
41.400         7
41.410        40
41.420        27
41.430        20
41.440        13
41.450        47
41.460        47
41.470        20
41.480         7
41.490        20
41.500        53
41.510        40
41.520        20
41.530        47
41.540        47
41.550        67
41.560        33
41.570        53
41.580        40
41.590        47
41.600        40
41.610        80
41.620        47
41.630        60
41.640        60
41.650        87
41.660        80
41.670        80
41.680        93
41.690       120
41.700        93
41.710       100
41.720        80
41.730        47
41.740        73
41.750        27
41.760        53
41.770        60
41.780        53
41.790       113
41.800        53
41.810        67
41.820        87
41.830        67
41.840       100
41.850        47
41.860       100
41.870        73
41.880        67
41.890       107
41.900        67
41.910        53
41.920        33
41.930        40
41.940        47
41.950        67
41.960        73
41.970        13
41.980        47
41.990        27
42.000        27
42.010        20
42.020        13
42.030        20
42.040        40
42.050         0
42.060        33
42.070        33
42.080        20
42.090        33
42.100        13
42.110        27
42.120        73
42.130        60
42.140        40
42.150         7
42.160        40
42.170        20
42.180        40
42.190         0
42.200        20
42.210        27
42.220        33
42.230        73
42.240        20
42.250        13
42.260        13
42.270        20
42.280        27
42.290         7
42.300         7
42.310        20
42.320        47
42.330        27
42.340        40
42.350        33
42.360         7
42.370        27
42.380        13
42.390        33
42.400        47
42.410        13
42.420        33
42.430         0
42.440        13
42.450        13
42.460        47
42.470         7
42.480        13
42.490        13
42.500        27
42.510        13
42.520        20
42.530         0
42.540        27
42.550        27
42.560        53
42.570        40
42.580         7
42.590        20
42.600        27
42.610        27
42.620        20
42.630        20
42.640        33
42.650        27
42.660        33
42.670        20
42.680        20
42.690        27
42.700        33
42.710        20
42.720        40
42.730        47
42.740         7
42.750        13
42.760        20
42.770        47
42.780        13
42.790        27
42.800        13
42.810        20
42.820        13
42.830        20
42.840        13
42.850        27
42.860         7
42.870        20
42.880        13
42.890        13
42.900        27
42.910         7
42.920        33
42.930        33
42.940        13
42.950        20
42.960        33
42.970        13
42.980        33
42.990         7
43.000        27
43.010         7
43.020        27
43.030        20
43.040        60
43.050        27
43.060        40
43.070        40
43.080        40
43.090        20
43.100        20
43.110        20
43.120        40
43.130        13
43.140        47
43.150        53
43.160        33
43.170        40
43.180        33
43.190        13
43.200        87
43.210         7
43.220         7
43.230        40
43.240        67
43.250        33
43.260        27
43.270        40
43.280        40
43.290        47
43.300        73
43.310        80
43.320        20
43.330        73
43.340        93
43.350       147
43.360        93
43.370       120
43.380       180
43.390       120
43.400       107
43.410        73
43.420        40
43.430        67
43.440        80
43.450        87
43.460        47
43.470        73
43.480        87
43.490        67
43.500        67
43.510        60
43.520        73
43.530        60
43.540        67
43.550        60
43.560        33
43.570        53
43.580        27
43.590        20
43.600        33
43.610         7
43.620        47
43.630        40
43.640        13
43.650        27
43.660        20
43.670        33
43.680        27
43.690         7
43.700        33
43.710        53
43.720        20
43.730        53
43.740        13
43.750        20
43.760        40
43.770        13
43.780        13
43.790        20
43.800        53
43.810        20
43.820        40
43.830        20
43.840        33
43.850        27
43.860         7
43.870        20
43.880        40
43.890        13
43.900        13
43.910        27
43.920        13
43.930        20
43.940         7
43.950        27
43.960        20
43.970        27
43.980        33
43.990        47
44.000        20
44.010         7
44.020        27
44.030        20
44.040        13
44.050        20
44.060        13
44.070        27
44.080         7
44.090        40
44.100        47
44.110        27
44.120        27
44.130        20
44.140         7
44.150        53
44.160        20
44.170        20
44.180        20
44.190        13
44.200        20
44.210        33
44.220        40
44.230        13
44.240        33
44.250        40
44.260         7
44.270        27
44.280         0
44.290         0
44.300        40
44.310        40
44.320        20
44.330        40
44.340        20
44.350        40
44.360        27
44.370        33
44.380        20
44.390        20
44.400        27
44.410        47
44.420        20
44.430        13
44.440        27
44.450        27
44.460         7
44.470        20
44.480        20
44.490        47
44.500        27
44.510         7
44.520        20
44.530        33
44.540        33
44.550        20
44.560         7
44.570        47
44.580        33
44.590         7
44.600        33
44.610        27
44.620        27
44.630        13
44.640         7
44.650        33
44.660         7
44.670        20
44.680        20
44.690        40
44.700        40
44.710        13
44.720        20
44.730        27
44.740        47
44.750        27
44.760        53
44.770        13
44.780        47
44.790        33
44.800        13
44.810        33
44.820        20
44.830        13
44.840         0
44.850         7
44.860        20
44.870        27
44.880        60
44.890        40
44.900        47
44.910        40
44.920        53
44.930        27
44.940        33
44.950        33
44.960        33
44.970        60
44.980        33
44.990        40
45.000        33
45.010        53
45.020        47
45.030        67
45.040        67
45.050        40
45.060        53
45.070        60
45.080        53
45.090        33
45.100        53
45.110        53
45.120        60
45.130        87
45.140        33
45.150        27
45.160        47
45.170        13
45.180        27
45.190        27
45.200        47
45.210        73
45.220        47
45.230        27
45.240        40
45.250        67
45.260        20
45.270        27
45.280        60
45.290        67
45.300        20
45.310        53
45.320        33
45.330        40
45.340        47
45.350        27
45.360        53
45.370        40
45.380        53
45.390        67
45.400        33
45.410        87
45.420        27
45.430        40
45.440        73
45.450        40
45.460        40
45.470        47
45.480        27
45.490        33
45.500        47
45.510        53
45.520        40
45.530        60
45.540        53
45.550        80
45.560        47
45.570        67
45.580        33
45.590        20
45.600        80
45.610        47
45.620        60
45.630        47
45.640        87
45.650        80
45.660        33
45.670        60
45.680        53
45.690        47
45.700        73
45.710        73
45.720        33
45.730        73
45.740        33
45.750        80
45.760        40
45.770        67
45.780        40
45.790        67
45.800        60
45.810        60
45.820        60
45.830        73
45.840        80
45.850        53
45.860        53
45.870        87
45.880        47
45.890        80
45.900        53
45.910        53
45.920        80
45.930        80
45.940        93
45.950        80
45.960        67
45.970        67
45.980        80
45.990        53
46.000        60
46.010        80
46.020       107
46.030        87
46.040        67
46.050        73
46.060        93
46.070       113
46.080        87
46.090        80
46.100        80
46.110       127
46.120        80
46.130       107
46.140        60
46.150       147
46.160       127
46.170       100
46.180       113
46.190       173
46.200       133
46.210       193
46.220       200
46.230       233
46.240       293
46.250       307
46.260       300
46.270       247
46.280       307
46.290       333
46.300       373
46.310       407
46.320       466
46.330       546
46.340       546
46.350       706
46.360       720
46.370       700
46.380       966
46.390      1040
46.400      1413
46.410      1259
46.420      1606
46.430      1826
46.440      1986
46.450      2452
46.460      2945
46.470      3412
46.480      3679
46.490      4358
46.500      4658
46.510      4765
46.520      5678
46.530      5911
46.540      6031
46.550      6757
46.560      6911
46.570      7057
46.580      7410
46.590      6924
46.600      7090
46.610      7657
46.620      6544
46.630      6331
46.640      6244
46.650      5924
46.660      5325
46.670      5125
46.680      4765
46.690      4858
46.700      4212
46.710      4045
46.720      3765
46.730      3472
46.740      3259
46.750      2912
46.760      2426
46.770      2226
46.780      1933
46.790      1679
46.800      1379
46.810      1279
46.820       873
46.830       820
46.840       840
46.850       613
46.860       666
46.870       513
46.880       347
46.890       506
46.900       293
46.910       453
46.920       273
46.930       207
46.940       253
46.950       327
46.960       273
46.970       220
46.980       220
46.990       173
47.000       147
47.010       200
47.020       120
47.030       213
47.040       213
47.050       147
47.060       140
47.070       127
47.080       127
47.090       147
47.100        87
47.110       120
47.120       200
47.130       107
47.140       107
47.150       113
47.160        80
47.170       107
47.180        53
47.190       107
47.200        93
47.210       107
47.220       113
47.230        93
47.240       140
47.250        93
47.260        80
47.270        53
47.280       107
47.290        93
47.300       153
47.310       160
47.320        80
47.330        47
47.340        53
47.350       100
47.360        67
47.370        53
47.380        67
47.390       113
47.400        53
47.410        80
47.420        93
47.430       100
47.440        67
47.450        60
47.460        53
47.470        87
47.480        67
47.490        80
47.500        53
47.510        80
47.520        80
47.530        80
47.540        47
47.550        53
47.560        40
47.570        53
47.580        27
47.590        13
47.600        20
47.610        13
47.620        60
47.630        80
47.640        73
47.650        40
47.660        53
47.670        73
47.680        47
47.690        53
47.700        73
47.710        27
47.720        53
47.730        47
47.740        53
47.750        53
47.760        40
47.770        60
47.780        53
47.790        60
47.800        73
47.810        33
47.820        40
47.830        13
47.840        33
47.850        27
47.860        60
47.870       100
47.880        47
47.890        60
47.900        60
47.910        93
47.920        40
47.930        53
47.940        87
47.950        53
47.960        53
47.970        47
47.980        73
47.990        40
48.000        40
48.010        60
48.020        27
48.030        53
48.040        60
48.050        20
48.060        60
48.070        40
48.080        53
48.090        40
48.100        27
48.110        87
48.120        33
48.130        40
48.140        33
48.150        60
48.160        40
48.170        27
48.180        33
48.190        80
48.200        67
48.210        67
48.220        13
48.230        53
48.240        53
48.250        27
48.260        33
48.270        27
48.280        47
48.290        33
48.300        27
48.310        60
48.320        60
48.330        40
48.340        33
48.350        40
48.360        20
48.370        33
48.380        53
48.390        40
48.400        40
48.410        20
48.420        27
48.430        47
48.440        60
48.450        27
48.460        33
48.470        13
48.480        60
48.490        47
48.500        53
48.510        27
48.520        33
48.530        67
48.540        40
48.550        60
48.560        47
48.570        33
48.580        40
48.590        53
48.600        40
48.610        20
48.620        40
48.630        20
48.640        67
48.650        67
48.660        27
48.670        33
48.680        40
48.690        20
48.700        60
48.710        47
48.720        27
48.730        13
48.740        73
48.750        20
48.760        20
48.770        93
48.780        40
48.790        40
48.800        40
48.810        33
48.820        40
48.830        27
48.840        53
48.850        20
48.860        53
48.870        53
48.880        60
48.890        40
48.900        60
48.910        47
48.920        27
48.930        73
48.940         7
48.950        60
48.960        27
48.970        60
48.980        33
48.990        27
49.000        27
49.010        33
49.020        20
49.030        47
49.040        40
49.050        33
49.060        33
49.070        47
49.080        20
49.090        27
49.100        60
49.110        33
49.120        47
49.130        27
49.140        20
49.150        33
49.160        20
49.170        33
49.180        40
49.190        27
49.200        13
49.210        33
49.220        13
49.230        20
49.240        33
49.250        53
49.260        20
49.270        27
49.280        73
49.290        67
49.300        27
49.310        47
49.320        87
49.330        27
49.340        20
49.350        20
49.360        53
49.370        13
49.380        13
49.390        20
49.400        40
49.410        13
49.420         7
49.430        47
49.440        13
49.450        27
49.460        20
49.470        33
49.480        27
49.490        27
49.500        40
49.510        33
49.520        20
49.530        40
49.540        27
49.550        47
49.560        40
49.570        33
49.580        33
49.590        33
49.600        20
49.610        67
49.620         7
49.630        40
49.640        27
49.650        27
49.660        27
49.670        13
49.680        40
49.690        20
49.700        20
49.710        27
49.720        33
49.730        20
49.740        47
49.750        20
49.760        20
49.770        47
49.780        20
49.790        27
49.800        47
49.810        13
49.820        67
49.830        33
49.840        47
49.850        53
49.860        33
49.870        20
49.880        33
49.890        20
49.900        40
49.910        13
49.920        27
49.930         7
49.940        20
49.950        40
49.960        33
49.970        13
49.980        13
49.990        13
50.000        40
50.010        33
50.020        27
50.030        27
50.040        47
50.050        20
50.060        40
50.070         7
50.080        27
50.090        33
50.100        40
50.110        33
50.120        20
50.130        33
50.140        27
50.150        20
50.160        33
50.170        20
50.180        27
50.190        40
50.200        13
50.210        13
50.220        27
50.230        13
50.240        20
50.250        20
50.260         7
50.270        27
50.280        13
50.290        13
50.300        13
50.310        13
50.320        67
50.330        33
50.340        47
50.350        27
50.360        20
50.370        20
50.380        20
50.390         7
50.400        27
50.410        27
50.420        20
50.430        33
50.440        20
50.450        47
50.460        40
50.470        27
50.480        40
50.490        27
50.500        27
50.510        33
50.520        53
50.530        20
50.540        13
50.550        20
50.560        33
50.570        27
50.580        40
50.590         7
50.600        20
50.610        20
50.620        40
50.630        33
50.640         7
50.650         7
50.660        40
50.670        27
50.680         7
50.690        27
50.700        53
50.710        33
50.720        33
50.730        27
50.740        27
50.750        27
50.760        27
50.770        40
50.780        40
50.790        47
50.800        20
50.810        13
50.820         7
50.830        60
50.840        33
50.850        40
50.860        27
50.870        20
50.880        13
50.890        40
50.900        47
50.910        33
50.920        33
50.930        13
50.940        47
50.950        13
50.960        33
50.970        27
50.980        33
50.990        13
51.000        20
51.010        40
51.020         7
51.030         7
51.040        20
51.050        40
51.060        40
51.070        53
51.080        20
51.090        27
51.100        20
51.110         7
51.120        20
51.130        40
51.140        20
51.150        13
51.160        13
51.170        60
51.180        27
51.190        20
51.200        40
51.210        27
51.220        33
51.230        20
51.240        20
51.250        13
51.260        13
51.270        13
51.280        53
51.290        27
51.300        40
51.310        33
51.320        67
51.330        33
51.340        33
51.350        13
51.360        20
51.370        13
51.380        20
51.390        53
51.400        33
51.410        27
51.420        40
51.430        20
51.440        20
51.450        13
51.460        13
51.470        53
51.480        20
51.490        47
51.500        47
51.510        53
51.520         7
51.530        27
51.540        20
51.550        60
51.560        20
51.570        53
51.580        13
51.590        27
51.600        40
51.610        47
51.620        40
51.630        27
51.640        47
51.650        20
51.660        13
51.670        47
51.680        33
51.690        13
51.700         7
51.710        20
51.720        20
51.730        13
51.740        33
51.750        20
51.760        73
51.770        20
51.780        33
51.790        13
51.800        33
51.810        33
51.820        33
51.830        60
51.840        20
51.850        20
51.860         7
51.870        20
51.880        20
51.890        33
51.900        40
51.910        13
51.920        27
51.930        20
51.940        20
51.950        40
51.960        53
51.970        27
51.980        27
51.990        33
52.000         0
52.010        20
52.020        33
52.030        40
52.040        27
52.050        20
52.060        13
52.070        27
52.080        13
52.090         7
52.100        27
52.110        20
52.120        27
52.130        27
52.140        53
52.150        20
52.160        20
52.170        27
52.180        47
52.190        40
52.200        33
52.210        27
52.220        33
52.230         7
52.240        13
52.250         0
52.260        47
52.270        53
52.280        27
52.290        20
52.300        47
52.310        20
52.320        13
52.330        27
52.340        33
52.350        20
52.360        27
52.370        33
52.380        20
52.390        40
52.400        27
52.410        33
52.420        13
52.430        33
52.440        40
52.450        20
52.460        53
52.470        67
52.480        67
52.490        47
52.500       100
52.510        80
52.520       120
52.530       153
52.540        87
52.550        87
52.560       100
52.570        53
52.580        53
52.590        27
52.600        47
52.610        60
52.620        53
52.630        73
52.640        73
52.650        67
52.660        60
52.670        73
52.680        87
52.690       100
52.700        87
52.710        33
52.720        27
52.730        47
52.740        47
52.750        40
52.760        47
52.770        47
52.780        27
52.790         7
52.800        33
52.810        40
52.820         0
52.830        13
52.840        27
52.850        33
52.860        33
52.870        20
52.880        20
52.890        33
52.900        13
52.910        20
52.920         0
52.930        20
52.940        20
52.950        13
52.960        20
52.970        27
52.980        27
52.990        27
53.000        27
53.010        27
53.020        53
53.030        27
53.040        20
53.050        27
53.060        20
53.070        27
53.080        20
53.090        33
53.100        40
53.110        27
53.120        47
53.130         7
53.140         0
53.150        33
53.160        20
53.170        13
53.180         7
53.190        20
53.200        33
53.210        20
53.220        13
53.230        13
53.240        40
53.250        13
53.260        13
53.270        13
53.280         0
53.290        33
53.300        13
53.310        20
53.320        20
53.330        20
53.340         7
53.350        27
53.360        20
53.370        40
53.380        40
53.390        27
53.400        13
53.410        40
53.420        13
53.430        20
53.440        27
53.450        20
53.460        20
53.470        27
53.480        20
53.490        20
53.500        20
53.510        13
53.520        27
53.530        53
53.540         7
53.550        33
53.560        33
53.570         7
53.580        13
53.590        20
53.600        27
53.610        33
53.620        13
53.630        20
53.640        20
53.650        13
53.660         0
53.670        13
53.680        47
53.690        20
53.700        13
53.710        20
53.720        20
53.730        40
53.740        27
53.750        20
53.760        13
53.770        40
53.780        13
53.790        13
53.800         0
53.810         7
53.820        13
53.830        47
53.840         7
53.850        27
53.860        27
53.870        20
53.880        33
53.890        33
53.900        33
53.910        27
53.920        53
53.930        13
53.940        20
53.950        27
53.960        27
53.970         7
53.980        13
53.990         7
54.000         7
54.010        47
54.020         0
54.030        20
54.040        33
54.050        27
54.060        20
54.070        13
54.080         7
54.090        27
54.100         7
54.110        13
54.120        13
54.130        27
54.140         0
54.150        20
54.160        33
54.170        13
54.180        13
54.190        20
54.200        13
54.210        20
54.220        13
54.230        13
54.240        27
54.250         0
54.260        20
54.270         7
54.280         7
54.290        13
54.300        27
54.310        13
54.320        27
54.330        27
54.340        27
54.350        20
54.360         7
54.370        27
54.380        20
54.390        13
54.400        20
54.410        27
54.420        13
54.430        53
54.440        13
54.450        47
54.460        27
54.470        60
54.480        27
54.490        60
54.500        47
54.510         7
54.520         0
54.530         7
54.540        20
54.550        20
54.560        13
54.570        20
54.580        27
54.590        53
54.600        13
54.610        13
54.620        20
54.630        13
54.640        40
54.650        47
54.660        27
54.670        33
54.680        20
54.690        40
54.700        33
54.710        27
54.720        13
54.730        13
54.740        20
54.750        33
54.760        27
54.770        33
54.780        20
54.790        20
54.800        40
54.810        13
54.820        20
54.830        13
54.840        33
54.850        13
54.860        33
54.870         7
54.880        27
54.890        27
54.900        20
54.910        13
54.920        13
54.930        20
54.940        13
54.950        33
54.960        27
54.970        33
54.980        33
54.990         0
55.000        20
55.010        33
55.020        13
55.030        13
55.040        33
55.050        27
55.060        20
55.070        20
55.080        20
55.090        27
55.100        27
55.110        47
55.120        33
55.130         7
55.140         7
55.150        20
55.160        33
55.170        20
55.180        27
55.190        13
55.200        47
55.210        33
55.220        40
55.230        20
55.240         7
55.250        20
55.260        20
55.270        20
55.280        27
55.290        13
55.300        33
55.310        13
55.320        20
55.330        40
55.340        20
55.350        27
55.360         7
55.370        13
55.380        27
55.390        20
55.400        13
55.410        47
55.420        20
55.430        47
55.440        13
55.450        27
55.460        13
55.470        20
55.480        20
55.490        20
55.500        13
55.510        33
55.520        27
55.530        13
55.540        33
55.550        13
55.560        20
55.570        33
55.580        27
55.590        27
55.600        13
55.610        13
55.620        27
55.630        27
55.640        13
55.650        33
55.660        13
55.670        13
55.680        20
55.690        20
55.700        33
55.710        27
55.720        47
55.730        13
55.740        20
55.750        40
55.760        20
55.770        40
55.780        27
55.790        13
55.800         7
55.810         7
55.820        33
55.830        67
55.840        13
55.850         7
55.860        13
55.870         7
55.880        20
55.890        20
55.900        33
55.910        27
55.920        47
55.930        20
55.940         7
55.950        33
55.960        27
55.970        27
55.980        20
55.990        20
56.000        13
56.010        13
56.020        40
56.030        40
56.040         7
56.050        33
56.060        27
56.070        20
56.080        20
56.090        33
56.100        33
56.110         7
56.120        40
56.130        13
56.140         7
56.150        20
56.160         7
56.170        73
56.180        33
56.190        33
56.200         7
56.210        13
56.220        20
56.230        20
56.240        40
56.250        20
56.260        20
56.270        27
56.280        20
56.290        33
56.300        27
56.310        27
56.320        13
56.330        27
56.340        20
56.350        13
56.360        47
56.370        13
56.380         7
56.390        13
56.400        27
56.410        40
56.420         7
56.430         0
56.440        33
56.450        33
56.460         0
56.470        27
56.480        20
56.490         7
56.500        13
56.510        33
56.520         7
56.530        13
56.540        27
56.550        40
56.560        13
56.570        33
56.580        33
56.590        27
56.600        13
56.610        20
56.620        13
56.630        27
56.640        20
56.650        13
56.660        13
56.670        20
56.680        13
56.690        27
56.700        20
56.710        40
56.720        33
56.730         7
56.740         7
56.750        27
56.760        27
56.770        40
56.780        27
56.790        33
56.800        20
56.810        20
56.820        20
56.830        20
56.840        13
56.850        33
56.860        40
56.870         7
56.880         0
56.890        40
56.900        13
56.910         0
56.920        13
56.930        13
56.940         0
56.950        13
56.960        27
56.970        27
56.980        27
56.990        20
57.000        47
57.010        20
57.020        27
57.030         7
57.040        33
57.050        33
57.060         7
57.070        13
57.080        13
57.090        13
57.100        20
57.110        27
57.120        20
57.130        20
57.140        27
57.150        20
57.160        40
57.170        40
57.180        27
57.190        47
57.200        20
57.210         7
57.220        27
57.230         7
57.240        27
57.250        33
57.260        40
57.270        13
57.280        60
57.290        47
57.300        20
57.310        33
57.320        40
57.330        40
57.340        53
57.350        20
57.360        40
57.370        27
57.380        93
57.390        27
57.400        27
57.410        73
57.420        80
57.430        93
57.440       153
57.450       200
57.460       287
57.470       367
57.480       413
57.490       380
57.500       646
57.510       620
57.520       700
57.530       826
57.540       786
57.550       786
57.560       733
57.570       580
57.580       486
57.590       280
57.600       227
57.610       227
57.620       220
57.630       280
57.640       173
57.650       227
57.660       320
57.670       360
57.680       400
57.690       413
57.700       367
57.710       380
57.720       327
57.730       287
57.740       173
57.750        93
57.760        93
57.770        93
57.780        73
57.790        40
57.800        33
57.810        67
57.820        33
57.830        13
57.840        47
57.850        73
57.860        67
57.870        40
57.880        53
57.890        20
57.900        33
57.910        27
57.920        40
57.930        60
57.940        53
57.950        67
57.960        47
57.970        60
57.980        33
57.990        27
58.000        27
58.010        33
58.020        33
58.030        33
58.040        40
58.050        20
58.060        40
58.070        33
58.080        33
58.090        47
58.100        13
58.110        33
58.120        33
58.130        20
58.140        20
58.150        33
58.160        13
58.170        20
58.180        20
58.190        27
58.200        33
58.210        13
58.220        20
58.230        20
58.240        20
58.250        13
58.260        40
58.270        13
58.280        20
58.290        20
58.300         7
58.310        27
58.320        13
58.330        27
58.340        20
58.350        27
58.360        13
58.370        27
58.380        33
58.390        27
58.400         0
58.410        13
58.420         7
58.430        20
58.440        13
58.450        13
58.460        20
58.470        13
58.480        20
58.490         7
58.500        20
58.510        60
58.520         7
58.530        27
58.540        20
58.550        20
58.560         7
58.570        40
58.580         7
58.590        13
58.600        40
58.610         7
58.620        20
58.630         7
58.640        20
58.650         7
58.660        27
58.670        33
58.680        33
58.690         7
58.700        20
58.710         7
58.720        27
58.730        13
58.740        20
58.750         0
58.760        20
58.770        47
58.780        20
58.790         7
58.800         7
58.810         0
58.820         7
58.830        20
58.840         7
58.850        27
58.860        33
58.870        13
58.880        20
58.890        13
58.900        33
58.910         7
58.920         7
58.930        13
58.940        13
58.950         7
58.960        27
58.970        20
58.980        33
58.990         7
59.000        27
59.010        20
59.020         0
59.030        27
59.040         7
59.050         7
59.060         7
59.070        13
59.080         0
59.090        13
59.100        33
59.110        20
59.120        27
59.130        13
59.140         0
59.150        13
59.160        27
59.170        20
59.180        13
59.190        20
59.200         7
59.210        13
59.220         0
59.230         7
59.240         0
59.250         7
59.260        13
59.270        27
59.280        20
59.290         7
59.300        13
59.310        33
59.320        13
59.330         7
59.340        20
59.350         7
59.360        20
59.370        33
59.380        33
59.390        13
59.400        27
59.410         0
59.420        33
59.430        27
59.440        13
59.450        13
59.460        20
59.470        13
59.480        33
59.490        33
59.500        13
59.510         7
59.520        13
59.530        13
59.540        13
59.550        27
59.560        20
59.570        20
59.580        20
59.590        13
59.600        27
59.610         7
59.620        40
59.630        20
59.640         0
59.650        20
59.660        13
59.670        27
59.680        27
59.690        13
59.700        40
59.710         7
59.720        20
59.730         0
59.740        20
59.750        27
59.760        40
59.770        27
59.780        20
59.790        13
59.800        27
59.810        13
59.820        20
59.830        27
59.840         7
59.850        13
59.860         7
59.870        20
59.880         7
59.890         7
59.900         7
59.910        13
59.920        13
59.930         0
59.940        27
59.950        27
59.960        20
59.970         7
59.980        27
59.990        20
60.000        20
