20.000        27
20.010        27
20.020        53
20.030        20
20.040        73
20.050        40
20.060        87
20.070        47
20.080        53
20.090        67
20.100        47
20.110        53
20.120        40
20.130        87
20.140        80
20.150        40
20.160        40
20.170         7
20.180        53
20.190        40
20.200         7
20.210        33
20.220        40
20.230        27
20.240        80
20.250        67
20.260        13
20.270        67
20.280        60
20.290        67
20.300        33
20.310        53
20.320        87
20.330        40
20.340        60
20.350        67
20.360        33
20.370        27
20.380        87
20.390        47
20.400        47
20.410        40
20.420        40
20.430        40
20.440        53
20.450        67
20.460        27
20.470        40
20.480        33
20.490        53
20.500        60
20.510        47
20.520        40
20.530        60
20.540        13
20.550        33
20.560        73
20.570        80
20.580        67
20.590        47
20.600        20
20.610        47
20.620        27
20.630        47
20.640        60
20.650        13
20.660        33
20.670        40
20.680        67
20.690        93
20.700        33
20.710        40
20.720        40
20.730        47
20.740        73
20.750        60
20.760        53
20.770        40
20.780        60
20.790        40
20.800        47
20.810        60
20.820        20
20.830        67
20.840        33
20.850        47
20.860        33
20.870        67
20.880        27
20.890        20
20.900        13
20.910        47
20.920        80
20.930        53
20.940        47
20.950        47
20.960        33
20.970        13
20.980        73
20.990        53
21.000        53
21.010        40
21.020        47
21.030        73
21.040        47
21.050        47
21.060        33
21.070        47
21.080        40
21.090        20
21.100        33
21.110        47
21.120        60
21.130        33
21.140        60
21.150        67
21.160        60
21.170        47
21.180        33
21.190        20
21.200        27
21.210        47
21.220        40
21.230        40
21.240        27
21.250        40
21.260        80
21.270        33
21.280        67
21.290        53
21.300        47
21.310        27
21.320        33
21.330        53
21.340        80
21.350        60
21.360         0
21.370        13
21.380        40
21.390        93
21.400        53
21.410        33
21.420        27
21.430        27
21.440        40
21.450        33
21.460        40
21.470        67
21.480        20
21.490        40
21.500        33
21.510        13
21.520        40
21.530        20
21.540        80
21.550        20
21.560        40
21.570        47
21.580        13
21.590        47
21.600        33
21.610        13
21.620        27
21.630        27
21.640        47
21.650        40
21.660        27
21.670        40
21.680        33
21.690        60
21.700        33
21.710        40
21.720        33
21.730        33
21.740        67
21.750        47
21.760        27
21.770         0
21.780        33
21.790        47
21.800        20
21.810        27
21.820        27
21.830        27
21.840        27
21.850        20
21.860        27
21.870        33
21.880        40
21.890        27
21.900        40
21.910        20
21.920        53
21.930        27
21.940        60
21.950        40
21.960        40
21.970        67
21.980        47
21.990        40
22.000        80
22.010        13
22.020        20
22.030        27
22.040        33
22.050        27
22.060        40
22.070         7
22.080        40
22.090        40
22.100        53
22.110        53
22.120        53
22.130        20
22.140        33
22.150        40
22.160        40
22.170        33
22.180        27
22.190        47
22.200        53
22.210        67
22.220        27
22.230        27
22.240        47
22.250        53
22.260        40
22.270        53
22.280        53
22.290        67
22.300        60
22.310        47
22.320        20
22.330        27
22.340        27
22.350        53
22.360        20
22.370        27
22.380        33
22.390        33
22.400        33
22.410        40
22.420        47
22.430        27
22.440        33
22.450        40
22.460        33
22.470        27
22.480        53
22.490        27
22.500        27
22.510        67
22.520        60
22.530        40
22.540        47
22.550        47
22.560        27
22.570        53
22.580        80
22.590       100
22.600        80
22.610        73
22.620        67
22.630        80
22.640        87
22.650        87
22.660       113
22.670       120
22.680       120
22.690       120
22.700       160
22.710        93
22.720       127
22.730        80
22.740       107
22.750        80
22.760       100
22.770        93
22.780        67
22.790        73
22.800        80
22.810        13
22.820        73
22.830        87
22.840       100
22.850        67
22.860        40
22.870        67
22.880        33
22.890        40
22.900        53
22.910        47
22.920        33
22.930        53
22.940        53
22.950        47
22.960        20
22.970        20
22.980        53
22.990        33
23.000        47
23.010        13
23.020         7
23.030        67
23.040        47
23.050        40
23.060        33
23.070        13
23.080        53
23.090        47
23.100        53
23.110        47
23.120        27
23.130        33
23.140         7
23.150        27
23.160        40
23.170        53
23.180        13
23.190        33
23.200        27
23.210        53
23.220        47
23.230        47
23.240        27
23.250        27
23.260        27
23.270        27
23.280        47
23.290        33
23.300        13
23.310        33
23.320        47
23.330        27
23.340        13
23.350        47
23.360        33
23.370        67
23.380        27
23.390        33
23.400        13
23.410        27
23.420        40
23.430        33
23.440        40
23.450        47
23.460        47
23.470        20
23.480        33
23.490        20
23.500        40
23.510        47
23.520        47
23.530        27
23.540         7
23.550        13
23.560        47
23.570        20
23.580        13
23.590        53
23.600        40
23.610        27
23.620        40
23.630        67
23.640        67
23.650        40
23.660        20
23.670        27
23.680        33
23.690        33
23.700        13
23.710        40
23.720        47
23.730        53
23.740        67
23.750        60
23.760        13
23.770        13
23.780        27
23.790        40
23.800        40
23.810        53
23.820        33
23.830        47
23.840        33
23.850        20
23.860        40
23.870        53
23.880        20
23.890        47
23.900        27
23.910        67
23.920        27
23.930        33
23.940        20
23.950        33
23.960        47
23.970        27
23.980        53
23.990        40
24.000        20
24.010        27
24.020        13
24.030        33
24.040        27
24.050        27
24.060        20
24.070        40
24.080        40
24.090        53
24.100        40
24.110        40
24.120        33
24.130        33
24.140        27
24.150        80
24.160        20
24.170         7
24.180        20
24.190        47
24.200        20
24.210        47
24.220        27
24.230        20
24.240        13
24.250        27
24.260        40
24.270        13
24.280        40
24.290        53
24.300        13
24.310        40
24.320        27
24.330        47
24.340        47
24.350        47
24.360         7
24.370        33
24.380        40
24.390        40
24.400        33
24.410        40
24.420        13
24.430        53
24.440        40
24.450        27
24.460        20
24.470        20
24.480        27
24.490        27
24.500        60
24.510        27
24.520        20
24.530        40
24.540        27
24.550        47
24.560        13
24.570        47
24.580        13
24.590        33
24.600        67
24.610        33
24.620        20
24.630        40
24.640        27
24.650        53
24.660        47
24.670        13
24.680        40
24.690       100
24.700        13
24.710        40
24.720        33
24.730        13
24.740        33
24.750        20
24.760        27
24.770        47
24.780        33
24.790        80
24.800        60
24.810         7
24.820        53
24.830        20
24.840        27
24.850        13
24.860        60
24.870        67
24.880        40
24.890        47
24.900        20
24.910        47
24.920        33
24.930        13
24.940        13
24.950        47
24.960        27
24.970        47
24.980        33
24.990        20
25.000        20
25.010        33
25.020        40
25.030        60
25.040        20
25.050        40
25.060        33
25.070        47
25.080        27
25.090        53
25.100        33
25.110        60
25.120        13
25.130        53
25.140        20
25.150        53
25.160        33
25.170        53
25.180        20
25.190         7
25.200        40
25.210        47
25.220        27
25.230        13
25.240        47
25.250        13
25.260        20
25.270        47
25.280        40
25.290        20
25.300        60
25.310        27
25.320        27
25.330        60
25.340        33
25.350        33
25.360        27
25.370        33
25.380        20
25.390        27
25.400        20
25.410        47
25.420        33
25.430        40
25.440        33
25.450         0
25.460        40
25.470         7
25.480        13
25.490        33
25.500        40
25.510         7
25.520        60
25.530        40
25.540        27
25.550         7
25.560        33
25.570        33
25.580        47
25.590        13
25.600        73
25.610        47
25.620         7
25.630        33
25.640        40
25.650        33
25.660        33
25.670        33
25.680        67
25.690        27
25.700        27
25.710        53
25.720        40
25.730        40
25.740        33
25.750        33
25.760        33
25.770        20
25.780         7
25.790        33
25.800        40
25.810        67
25.820        20
25.830        20
25.840        33
25.850         7
25.860        40
25.870        53
25.880        47
25.890         7
25.900        20
25.910        60
25.920        60
25.930        60
25.940        13
25.950        53
25.960        27
25.970        20
25.980        33
25.990        20
26.000        47
26.010        20
26.020        13
26.030        33
26.040        20
26.050        27
26.060        13
26.070        33
26.080        13
26.090        13
26.100        13
26.110        67
26.120        53
26.130        47
26.140        27
26.150        20
26.160        53
26.170        53
26.180        40
26.190        47
26.200        40
26.210        47
26.220        47
26.230        40
26.240        27
26.250        20
26.260        40
26.270        53
26.280        13
26.290        33
26.300        27
26.310        13
26.320        40
26.330        80
26.340        47
26.350        27
26.360        33
26.370        13
26.380        33
26.390        67
26.400        53
26.410        33
26.420        13
26.430        13
26.440        47
26.450        20
26.460        33
26.470        60
26.480        47
26.490        47
26.500        27
26.510        33
26.520        13
26.530        40
26.540        40
26.550        40
26.560        20
26.570        20
26.580        33
26.590        27
26.600        27
26.610        20
26.620        47
26.630         7
26.640        20
26.650        13
26.660        40
26.670        27
26.680        47
26.690        27
26.700        20
26.710        27
26.720        20
26.730        40
26.740        40
26.750        47
26.760        40
26.770        20
26.780        20
26.790        60
26.800        20
26.810        13
26.820        27
26.830        13
26.840        47
26.850        20
26.860        27
26.870        20
26.880        27
26.890        27
26.900        27
26.910        27
26.920        20
26.930        27
26.940        27
26.950        20
26.960        40
26.970        20
26.980        47
26.990        40
27.000        20
27.010        67
27.020        13
27.030        20
27.040        33
27.050        27
27.060        20
27.070        33
27.080        33
27.090        33
27.100        13
27.110        40
27.120        47
27.130        27
27.140        20
27.150        27
27.160         0
27.170        13
27.180        27
27.190         7
27.200        20
27.210        20
27.220        33
27.230        20
27.240         7
27.250        13
27.260        33
27.270         0
27.280        27
27.290         7
27.300        40
27.310        40
27.320        20
27.330         7
27.340        20
27.350        47
27.360        40
27.370        20
27.380        33
27.390        20
27.400        20
27.410         7
27.420        40
27.430        67
27.440        27
27.450        27
27.460        40
27.470        47
27.480        20
27.490        27
27.500        33
27.510        20
27.520        40
27.530        27
27.540        33
27.550        73
27.560        20
27.570        27
27.580        27
27.590        40
27.600        20
27.610        13
27.620        27
27.630         7
27.640        13
27.650        40
27.660        40
27.670        40
27.680        20
27.690        40
27.700        13
27.710        27
27.720        33
27.730        27
27.740         7
27.750        40
27.760         7
27.770         7
27.780        13
27.790        20
27.800        47
27.810        40
27.820        47
27.830        20
27.840        20
27.850        40
27.860        33
27.870        27
27.880        20
27.890         7
27.900        40
27.910        27
27.920        20
27.930        27
27.940        20
27.950        33
27.960        27
27.970        13
27.980        13
27.990        40
28.000        40
28.010        13
28.020        27
28.030         7
28.040        20
28.050         0
28.060        47
28.070        13
28.080        27
28.090        27
28.100         7
28.110        13
28.120        20
28.130        27
28.140        27
28.150         7
28.160        40
28.170        40
28.180        33
28.190        33
28.200         7
28.210        20
28.220         7
28.230        13
28.240         7
28.250         7
28.260        20
28.270        13
28.280        47
28.290        40
28.300        33
28.310        27
28.320        20
28.330        13
28.340        40
28.350        40
28.360         7
28.370        13
28.380        67
28.390        20
28.400        27
28.410        13
28.420        27
28.430        33
28.440        13
28.450        60
28.460        47
28.470        20
28.480        20
28.490        20
28.500        20
28.510         7
28.520        47
28.530        47
28.540        27
28.550        20
28.560        33
28.570        20
28.580        20
28.590        33
28.600        13
28.610         0
28.620        40
28.630        20
28.640        33
28.650        20
28.660         7
28.670        13
28.680        27
28.690        13
28.700        27
28.710        40
28.720        27
28.730        33
28.740        20
28.750        27
28.760         7
28.770        53
28.780         7
28.790        20
28.800        20
28.810        27
28.820        47
28.830        20
28.840        33
28.850        33
28.860        20
28.870        13
28.880        13
28.890        27
28.900        47
28.910        33
28.920        13
28.930        13
28.940         7
28.950         7
28.960        53
28.970        27
28.980        47
28.990        40
29.000        40
29.010        47
29.020        53
29.030        20
29.040        60
29.050        47
29.060        47
29.070        27
29.080        47
29.090        40
29.100        40
29.110        40
29.120        40
29.130        47
29.140        40
29.150        60
29.160        47
29.170        33
29.180        73
29.190        47
29.200        47
29.210        33
29.220        67
29.230       107
29.240        67
29.250        53
29.260        40
29.270        27
29.280        47
29.290        53
29.300        27
29.310        27
29.320        33
29.330        40
29.340        33
29.350        27
29.360        20
29.370        33
29.380        60
29.390         7
29.400        33
29.410         7
29.420        20
29.430        33
29.440         7
29.450        20
29.460        13
29.470        27
29.480        13
29.490        33
29.500        47
29.510        27
29.520        33
29.530        13
29.540        13
29.550        27
29.560        40
29.570        47
29.580        33
29.590        20
29.600         0
29.610        33
29.620        20
29.630        33
29.640        20
29.650         7
29.660        20
29.670        20
29.680        27
29.690        13
29.700        13
29.710        13
29.720        40
29.730         7
29.740        40
29.750        40
29.760         7
29.770        20
29.780         7
29.790        27
29.800        20
29.810        13
29.820        33
29.830        20
29.840        67
29.850        33
29.860        13
29.870        40
29.880        33
29.890        27
29.900        13
29.910        13
29.920        27
29.930        27
29.940        20
29.950         0
29.960        40
29.970        20
29.980        27
29.990        33
30.000        27
30.010         0
30.020        13
30.030        40
30.040         7
30.050        53
30.060        20
30.070        27
30.080        27
30.090        53
30.100        20
30.110        13
30.120        27
30.130         0
30.140        20
30.150        40
30.160         7
30.170        27
30.180        27
30.190        13
30.200         7
30.210        27
30.220        33
30.230        33
30.240        27
30.250        40
30.260         7
30.270        27
30.280         7
30.290        27
30.300        13
30.310         7
30.320        13
30.330        13
30.340        33
30.350        33
30.360        20
30.370        27
30.380        20
30.390        47
30.400        20
30.410        33
30.420         7
30.430        33
30.440        27
30.450        20
30.460        13
30.470        13
30.480        40
30.490        20
30.500         0
30.510        27
30.520        40
30.530        27
30.540        20
30.550        20
30.560        20
30.570         0
30.580        47
30.590        33
30.600        33
30.610        40
30.620        40
30.630        20
30.640        20
30.650        20
30.660        13
30.670        33
30.680        27
30.690        33
30.700        33
30.710        13
30.720         0
30.730        40
30.740        27
30.750        60
30.760        13
30.770        13
30.780         0
30.790        27
30.800        33
30.810        20
30.820        20
30.830        27
30.840        33
30.850        47
30.860        20
30.870        20
30.880        13
30.890        20
30.900        40
30.910        13
30.920        33
30.930        33
30.940        40
30.950        33
30.960        40
30.970        40
30.980        13
30.990        13
31.000        53
31.010        13
31.020        40
31.030        33
31.040        27
31.050        33
31.060        40
31.070         7
31.080         7
31.090        27
31.100        20
31.110         0
31.120        20
31.130        20
31.140        27
31.150        33
31.160         7
31.170        27
31.180        33
31.190        47
31.200        20
31.210        33
31.220        33
31.230        53
31.240        80
31.250        27
31.260        33
31.270        67
31.280        33
31.290        40
31.300        40
31.310        67
31.320        73
31.330        53
31.340        53
31.350        73
31.360        47
31.370        73
31.380        67
31.390       120
31.400        47
31.410        53
31.420        20
31.430        53
31.440        33
31.450        47
31.460        67
31.470        73
31.480        53
31.490        67
31.500        87
31.510        67
31.520        40
31.530        40
31.540        67
31.550        60
31.560        20
31.570        67
31.580        60
31.590        60
31.600        67
31.610        40
31.620        40
31.630        60
31.640        53
31.650       100
31.660        73
31.670        33
31.680        87
31.690        67
31.700        73
31.710        47
31.720        80
31.730        40
31.740        47
31.750        60
31.760        53
31.770        87
31.780        93
31.790        53
31.800       113
31.810        80
31.820        80
31.830        73
31.840        80
31.850        80
31.860       100
31.870       133
31.880        73
31.890        60
31.900        60
31.910       107
31.920        93
31.930        67
31.940        67
31.950       113
31.960       107
31.970       120
31.980       107
31.990       120
32.000       180
32.010       193
32.020       240
32.030       133
32.040       140
32.050       200
32.060       153
32.070       287
32.080       240
32.090       253
32.100       307
32.110       367
32.120       500
32.130       453
32.140       493
32.150       613
32.160       680
32.170       660
32.180       686
32.190       853
32.200       893
32.210       946
32.220      1253
32.230      1446
32.240      1559
32.250      1786
32.260      1939
32.270      2279
32.280      2486
32.290      3039
32.300      3052
32.310      3938
32.320      4265
32.330      4898
32.340      5338
32.350      5851
32.360      6071
32.370      6657
32.380      7210
32.390      7524
32.400      7524
32.410      7437
32.420      7031
32.430      6697
32.440      6351
32.450      6171
32.460      5365
32.470      4905
32.480      4631
32.490      4152
32.500      4032
32.510      2906
32.520      2819
32.530      2339
32.540      1913
32.550      1726
32.560      1586
32.570      1193
32.580      1026
32.590       793
32.600       780
32.610       753
32.620       653
32.630       520
32.640       500
32.650       400
32.660       333
32.670       413
32.680       340
32.690       287
32.700       253
32.710       273
32.720       227
32.730       200
32.740       213
32.750       200
32.760       107
32.770       187
32.780       160
32.790       173
32.800       127
32.810       127
32.820       113
32.830       167
32.840       113
32.850       100
32.860       133
32.870       100
32.880       113
32.890       107
32.900        40
32.910       120
32.920       153
32.930       133
32.940       127
32.950       107
32.960       100
32.970        73
32.980        67
32.990        73
33.000        73
33.010       107
33.020       113
33.030        80
33.040        87
33.050        67
33.060        73
33.070       120
33.080        87
33.090        47
33.100        27
33.110        80
33.120        47
33.130       100
33.140        53
33.150        47
33.160        60
33.170        33
33.180        60
33.190        93
33.200        67
33.210        80
33.220        27
33.230        73
33.240        47
33.250        93
33.260        73
33.270        40
33.280        53
33.290        53
33.300        93
33.310        40
33.320        73
33.330        53
33.340        80
33.350        73
33.360        33
33.370        73
33.380        47
33.390        40
33.400        73
33.410        67
33.420        47
33.430        33
33.440        53
33.450        67
33.460        60
33.470        73
33.480        53
33.490        87
33.500        47
33.510        73
33.520        60
33.530        40
33.540        47
33.550        73
33.560        60
33.570        33
33.580        53
33.590        27
33.600        33
33.610        27
33.620        40
33.630        33
33.640        47
33.650        40
33.660        40
33.670        47
33.680        33
33.690        27
33.700        47
33.710        67
33.720        47
33.730        47
33.740        27
33.750        33
33.760        27
33.770        53
33.780        60
33.790        40
33.800        53
33.810        13
33.820        27
33.830        13
33.840        53
33.850        33
33.860         7
33.870        20
33.880        33
33.890        33
33.900        67
33.910        47
33.920         7
33.930        53
33.940        73
33.950        40
33.960        40
33.970        33
33.980        33
33.990        40
34.000        47
34.010        53
34.020        33
34.030        27
34.040        60
34.050        73
34.060        53
34.070        47
34.080        33
34.090        33
34.100        47
34.110        47
34.120        33
34.130        60
34.140        40
34.150        33
34.160        47
34.170        40
34.180        47
34.190        40
34.200        40
34.210        33
34.220        47
34.230        33
34.240        13
34.250        40
34.260        20
34.270        20
34.280        20
34.290        33
34.300        27
34.310        47
34.320        60
34.330        40
34.340        40
34.350        27
34.360        60
34.370        40
34.380        33
34.390        33
34.400        40
34.410        73
34.420        33
34.430        53
34.440        60
34.450        80
34.460        80
34.470        53
34.480        27
34.490        33
34.500        33
34.510        73
34.520        40
34.530        40
34.540        47
34.550        27
34.560        27
34.570        13
34.580        27
34.590        40
34.600        27
34.610        20
34.620        13
34.630        20
34.640        13
34.650        27
34.660        33
34.670        27
34.680        47
34.690        20
34.700        27
34.710        53
34.720        33
34.730        33
34.740        13
34.750        33
34.760        60
34.770        27
34.780        13
34.790        67
34.800        27
34.810        33
34.820        47
34.830         7
34.840        60
34.850        47
34.860        40
34.870        27
34.880        53
34.890        33
34.900        20
34.910        20
34.920        27
34.930        40
34.940         7
34.950        20
34.960        27
34.970        47
34.980        13
34.990        13
35.000        33
35.010        40
35.020        27
35.030        20
35.040         7
35.050        27
35.060        40
35.070        47
35.080        33
35.090        47
35.100        13
35.110        27
35.120        33
35.130        27
35.140        20
35.150        47
35.160        53
35.170        47
35.180        67
35.190        27
35.200        13
35.210        40
35.220        20
35.230        20
35.240        67
35.250        33
35.260        27
35.270        20
35.280        13
35.290        33
35.300        33
35.310         7
35.320         7
35.330        60
35.340        13
35.350        20
35.360        40
35.370        67
35.380        27
35.390        53
35.400        20
35.410        27
35.420        40
35.430        40
35.440        53
35.450        13
35.460         0
35.470        33
35.480        20
35.490        20
35.500        20
35.510        27
35.520        13
35.530        27
35.540         0
35.550        27
35.560        13
35.570        27
35.580        33
35.590        60
35.600        13
35.610        60
35.620        20
35.630        27
35.640        40
35.650        40
35.660        20
35.670        13
35.680        13
35.690        20
35.700        47
35.710        13
35.720        13
35.730        40
35.740        20
35.750        13
35.760        53
35.770         7
35.780        33
35.790        40
35.800        40
35.810        47
35.820        33
35.830        53
35.840        40
35.850        27
35.860        27
35.870         7
35.880        60
35.890        20
35.900        20
35.910        40
35.920        40
35.930        13
35.940        33
35.950         7
35.960        27
35.970        13
35.980        20
35.990        40
36.000        27
36.010        40
36.020        20
36.030        13
36.040        27
36.050        47
36.060        47
36.070        27
36.080        20
36.090        20
36.100         7
36.110        33
36.120        20
36.130        33
36.140        47
36.150        27
36.160        20
36.170        33
36.180        27
36.190        27
36.200         7
36.210        33
36.220        33
36.230        33
36.240        13
36.250        20
36.260        27
36.270        13
36.280        27
36.290        40
36.300        13
36.310        27
36.320        13
36.330        27
36.340        13
36.350        13
36.360        40
36.370        13
36.380        40
36.390        33
36.400        13
36.410        40
36.420        27
36.430        27
36.440        27
36.450        33
36.460        27
36.470        33
36.480        13
36.490        67
36.500        27
36.510        13
36.520        53
36.530        13
36.540        33
36.550        47
36.560        20
36.570        20
36.580        33
36.590        33
36.600        20
36.610        33
36.620        40
36.630         0
36.640         7
36.650        27
36.660        27
36.670         7
36.680        27
36.690        20
36.700        13
36.710        20
36.720        47
36.730        47
36.740        20
36.750        33
36.760        27
36.770        33
36.780        20
36.790        13
36.800        13
36.810        33
36.820        40
36.830        40
36.840        27
36.850        20
36.860        40
36.870        13
36.880         0
36.890        20
36.900        67
36.910        33
36.920        20
36.930        13
36.940        27
36.950        13
36.960        13
36.970        20
36.980        20
36.990        67
37.000        40
37.010        20
37.020        20
37.030        27
37.040        60
37.050        13
37.060        33
37.070        20
37.080        33
37.090        33
37.100        20
37.110        20
37.120        40
37.130         7
37.140        40
37.150         7
37.160        20
37.170        13
37.180        33
37.190        47
37.200        53
37.210        33
37.220        27
37.230        33
37.240        27
37.250        40
37.260        20
37.270        27
37.280        33
37.290         0
37.300        40
37.310        20
37.320        27
37.330        27
37.340        20
37.350         7
37.360        27
37.370        27
37.380        33
37.390         7
37.400        20
37.410        27
37.420        20
37.430        20
37.440        27
37.450        20
37.460        27
37.470        27
37.480        20
37.490        47
37.500        33
37.510        53
37.520        27
37.530        47
37.540        53
37.550        20
37.560        67
37.570        20
37.580         7
37.590        47
37.600        27
37.610        33
37.620        27
37.630        27
37.640        33
37.650        27
37.660        27
37.670         7
37.680        40
37.690        27
37.700         7
37.710         7
37.720        27
37.730        27
37.740        33
37.750        20
37.760        40
37.770        53
37.780        33
37.790        33
37.800        40
37.810        13
37.820        27
37.830        20
37.840        20
37.850        27
37.860        27
37.870        13
37.880        27
37.890        13
37.900        20
37.910        53
37.920        47
37.930        47
37.940        13
37.950        13
37.960        27
37.970        20
37.980        33
37.990        20
38.000         7
38.010        33
38.020        33
38.030        40
38.040         7
38.050        40
38.060        20
38.070        33
38.080        20
38.090        53
38.100        20
38.110        27
38.120        47
38.130        33
38.140         7
38.150         0
38.160         7
38.170        13
38.180        20
38.190         7
38.200        20
38.210        13
38.220        13
38.230        20
38.240        33
38.250        33
38.260        40
38.270        20
38.280        27
38.290        20
38.300        13
38.310        47
38.320        20
38.330        67
38.340        60
38.350        13
38.360        13
38.370        33
38.380         7
38.390        20
38.400        20
38.410        20
38.420        20
38.430         7
38.440        13
38.450        20
38.460        20
38.470        27
38.480        20
38.490        33
38.500        40
38.510        13
38.520        13
38.530        13
38.540        47
38.550         7
38.560        13
38.570        13
38.580        40
38.590         0
38.600        20
38.610        33
38.620        40
38.630        13
38.640        13
38.650        13
38.660        13
38.670         7
38.680        27
38.690        27
38.700        27
38.710        33
38.720        20
38.730         7
38.740        20
38.750        13
38.760        33
38.770        20
38.780        20
38.790        33
38.800        47
38.810        27
38.820        27
38.830        13
38.840        53
38.850        13
38.860         7
38.870        13
38.880        47
38.890        40
38.900        33
38.910         0
38.920        27
38.930        40
38.940        27
38.950        33
38.960        20
38.970        20
38.980         7
38.990        20
39.000        13
39.010        40
39.020        60
39.030        33
39.040        20
39.050        13
39.060        20
39.070        13
39.080        20
39.090        27
39.100        27
39.110        27
39.120        40
39.130        13
39.140        40
39.150        27
39.160        40
39.170        53
39.180        20
39.190        20
39.200        27
39.210        13
39.220        20
39.230        33
39.240        20
39.250        20
39.260        27
39.270         7
39.280        20
39.290         7
39.300        13
39.310        13
39.320         7
39.330        20
39.340        33
39.350        13
39.360        13
39.370        53
39.380        33
39.390        47
39.400        33
39.410        13
39.420        20
39.430        20
39.440        40
39.450        20
39.460        13
39.470        20
39.480        13
39.490         7
39.500        20
39.510        13
39.520        13
39.530        13
39.540         7
39.550        33
39.560        53
39.570         0
39.580         7
39.590         7
39.600        67
39.610        40
39.620         7
39.630        20
39.640        13
39.650        13
39.660        40
39.670        53
39.680        20
39.690        13
39.700        27
39.710        13
39.720        20
39.730        20
39.740        27
39.750        20
39.760        20
39.770        27
39.780        53
39.790        20
39.800        33
39.810        27
39.820        53
39.830        33
39.840        27
39.850        20
39.860        40
39.870        87
39.880        67
39.890        40
39.900        40
39.910        87
39.920       107
39.930       113
39.940       113
39.950        73
39.960       133
39.970        67
39.980       193
39.990       153
40.000       133
40.010       100
40.020       107
40.030       127
40.040       120
40.050       113
40.060        67
40.070        87
40.080        60
40.090        67
40.100        67
40.110        47
40.120        60
40.130        53
40.140        67
40.150        53
40.160        33
40.170        73
40.180        20
40.190        33
40.200        40
40.210        47
40.220        20
40.230        20
40.240        27
40.250        40
40.260        40
40.270        20
40.280        27
40.290        13
40.300        13
40.310        13
40.320        27
40.330        27
40.340         7
40.350        33
40.360        40
40.370        33
40.380         7
40.390        33
40.400        27
40.410        27
40.420        20
40.430         7
40.440        13
40.450        13
40.460        13
40.470        47
40.480        27
40.490        20
40.500        47
40.510        33
40.520        13
40.530        20
40.540         7
40.550        27
40.560        27
40.570        13
40.580         7
40.590        13
40.600        20
40.610        13
40.620        13
40.630        33
40.640        40
40.650        27
40.660        13
40.670         7
40.680        47
40.690        27
40.700        33
40.710        67
40.720        20
40.730         7
40.740        33
40.750         7
40.760        13
40.770        13
40.780        47
40.790        27
40.800        20
40.810        20
40.820         7
40.830        33
40.840        13
40.850        27
40.860        13
40.870        27
40.880         0
40.890        20
40.900        20
40.910        20
40.920        40
40.930        13
40.940        20
40.950        20
40.960        13
40.970        20
40.980         7
40.990        33
41.000        33
41.010         7
41.020        13
41.030        13
41.040        27
41.050        27
41.060        27
41.070        60
41.080        47
41.090        33
41.100        13
41.110        27
41.120         7
41.130        27
41.140        33
41.150        13
41.160        13
41.170         7
41.180         7
41.190        20
41.200        13
41.210        20
41.220        13
41.230        20
41.240        27
41.250        33
41.260        13
41.270        27
41.280        13
41.290        13
41.300        20
41.310        27
41.320        27
41.330        13
41.340        13
41.350        13
41.360        20
41.370        13
41.380        27
41.390        40
41.400        13
41.410        53
41.420        27
41.430        27
41.440        20
41.450        20
41.460        20
41.470        33
41.480        47
41.490        27
41.500        27
41.510        27
41.520        20
41.530        27
41.540        33
41.550         7
41.560         7
41.570        27
41.580         7
41.590        27
41.600        53
41.610         7
41.620        47
41.630        20
41.640        20
41.650        40
41.660        13
41.670        40
41.680        20
41.690        27
41.700        20
41.710        20
41.720         7
41.730        20
41.740        60
41.750        40
41.760        27
41.770        40
41.780        20
41.790        40
41.800        27
41.810         7
41.820        13
41.830        20
41.840        13
41.850        20
41.860        27
41.870        13
41.880        20
41.890        20
41.900        27
41.910        13
41.920        20
41.930        20
41.940        13
41.950        20
41.960        27
41.970         7
41.980        13
41.990        40
42.000        27
42.010        13
42.020        13
42.030        33
42.040        13
42.050        13
42.060         0
42.070        27
42.080        13
42.090        27
42.100         7
42.110         0
42.120        27
42.130        40
42.140        47
42.150        20
42.160        13
42.170        27
42.180        13
42.190        13
42.200         0
42.210        20
42.220        53
42.230         7
42.240        47
42.250        20
42.260        13
42.270        20
42.280         7
42.290        20
42.300        20
42.310        33
42.320        20
42.330        27
42.340         0
42.350         0
42.360        53
42.370        20
42.380         7
42.390        20
42.400        27
42.410        13
42.420         7
42.430        27
42.440         7
42.450         7
42.460        33
42.470         7
42.480        20
42.490        13
42.500         7
42.510        27
42.520        20
42.530        53
42.540         7
42.550        20
42.560        20
42.570        13
42.580        27
42.590        40
42.600        20
42.610        27
42.620        33
42.630         0
42.640        13
42.650         7
42.660        33
42.670         7
42.680        13
42.690        27
42.700        20
42.710        20
42.720        20
42.730        33
42.740        27
42.750        27
42.760         7
42.770        20
42.780        40
42.790        27
42.800        33
42.810        40
42.820        33
42.830        13
42.840        40
42.850        27
42.860        27
42.870         0
42.880        40
42.890        20
42.900        13
42.910        13
42.920        13
42.930        27
42.940        47
42.950        13
42.960         7
42.970        20
42.980        47
42.990        20
43.000         0
43.010        20
43.020        33
43.030        20
43.040        20
43.050        27
43.060         7
43.070        20
43.080        33
43.090        40
43.100        40
43.110        20
43.120        33
43.130        27
43.140         0
43.150        27
43.160        33
43.170        27
43.180        13
43.190        13
43.200        20
43.210        13
43.220        13
43.230        13
43.240        27
43.250        13
43.260        13
43.270        27
43.280         7
43.290        27
43.300        20
43.310         0
43.320        20
43.330        13
43.340        13
43.350        27
43.360        20
43.370         0
43.380         7
43.390        20
43.400        20
43.410         7
43.420        13
43.430        20
43.440        40
43.450        20
43.460        20
43.470        47
43.480        40
43.490        20
43.500        33
43.510         0
43.520        20
43.530        40
43.540         7
43.550         7
43.560        13
43.570        33
43.580         7
43.590        13
43.600        13
43.610        20
43.620        20
43.630        20
43.640        13
43.650        40
43.660         7
43.670        33
43.680         7
43.690        20
43.700        27
43.710        33
43.720        20
43.730        13
43.740         7
43.750         0
43.760        20
43.770         0
43.780        20
43.790         7
43.800        13
43.810         7
43.820         7
43.830        13
43.840        27
43.850        13
43.860         7
43.870        13
43.880         7
43.890        13
43.900        33
43.910        33
43.920        27
43.930        13
43.940        20
43.950        33
43.960        13
43.970         7
43.980        13
43.990         0
44.000        20
44.010         7
44.020        20
44.030        13
44.040        13
44.050        20
44.060         7
44.070         7
44.080        33
44.090        27
44.100        20
44.110        13
44.120         7
44.130         0
44.140        27
44.150        40
44.160        33
44.170         7
44.180         7
44.190        20
44.200        20
44.210        33
44.220        33
44.230        40
44.240        20
44.250         7
44.260        13
44.270        13
44.280        60
44.290         7
44.300        40
44.310        13
44.320        40
44.330        13
44.340        20
44.350        20
44.360        53
44.370        27
44.380        13
44.390        33
44.400        13
44.410        27
44.420        13
44.430        13
44.440        13
44.450        13
44.460        13
44.470        20
44.480        27
44.490         0
44.500        13
44.510         7
44.520        20
44.530        40
44.540         0
44.550        40
44.560        33
44.570        13
44.580        20
44.590        20
44.600        27
44.610        20
44.620        33
44.630        20
44.640        13
44.650        20
44.660        27
44.670        13
44.680        27
44.690         7
44.700        13
44.710        20
44.720         0
44.730        27
44.740        33
44.750        13
44.760        13
44.770        47
44.780        20
44.790         7
44.800        40
44.810        27
44.820        20
44.830        20
44.840        13
44.850        27
44.860        40
44.870        27
44.880        20
44.890        20
44.900        20
44.910        27
44.920        20
44.930        20
44.940        20
44.950        27
44.960        20
44.970        20
44.980        27
44.990         7
45.000        40
45.010        20
45.020        13
45.030        27
45.040        27
45.050        33
45.060        20
45.070        33
45.080        27
45.090        27
45.100        27
45.110         0
45.120        13
45.130        20
45.140        20
45.150         7
45.160        47
45.170        40
45.180         7
45.190        27
45.200        20
45.210        33
45.220        33
45.230        27
45.240        13
45.250        13
45.260        47
45.270        27
45.280        27
45.290         7
45.300        27
45.310        47
45.320        13
45.330         0
45.340        20
45.350        33
45.360        27
45.370        27
45.380        53
45.390        20
45.400        27
45.410        13
45.420        33
45.430        33
45.440        33
45.450        40
45.460        20
45.470        20
45.480         7
45.490        27
45.500        20
45.510        40
45.520        27
45.530        33
45.540        13
45.550        27
45.560         7
45.570        13
45.580        20
45.590        20
45.600        13
45.610        47
45.620        27
45.630        27
45.640        33
45.650        53
45.660        53
45.670        40
45.680        27
45.690        33
45.700         7
45.710        33
45.720        27
45.730        13
45.740        47
45.750        27
45.760        27
45.770        47
45.780        47
45.790        33
45.800        47
45.810        60
45.820        47
45.830        27
45.840        53
45.850        73
45.860        33
45.870        60
45.880        27
45.890        20
45.900        27
45.910        40
45.920        60
45.930        67
45.940        47
45.950        47
45.960        87
45.970        93
45.980       107
45.990       113
46.000       113
46.010       113
46.020       107
46.030        93
46.040       133
46.050       127
46.060       113
46.070       127
46.080       173
46.090       113
46.100       133
46.110       220
46.120       180
46.130       213
46.140       207
46.150       227
46.160       253
46.170       227
46.180       300
46.190       293
46.200       353
46.210       400
46.220       440
46.230       473
46.240       446
46.250       540
46.260       526
46.270       566
46.280       606
46.290       553
46.300       640
46.310       593
46.320       606
46.330       700
46.340       653
46.350       673
46.360       666
46.370       700
46.380       753
46.390       773
46.400       673
46.410       726
46.420       700
46.430       773
46.440       640
46.450       606
46.460       633
46.470       680
46.480       446
46.490       500
46.500       480
46.510       500
46.520       566
46.530       446
46.540       300
46.550       380
46.560       360
46.570       273
46.580       240
46.590       287
46.600       220
46.610       153
46.620       260
46.630       260
46.640       307
46.650       207
46.660       227
46.670       227
46.680       153
46.690       167
46.700       233
46.710       120
46.720        87
46.730        93
46.740       147
46.750       100
46.760        80
46.770        93
46.780        27
46.790        80
46.800        93
46.810       107
46.820        93
46.830        80
46.840        73
46.850        53
46.860        47
46.870        60
46.880        53
46.890        33
46.900        33
46.910        60
46.920        53
46.930        67
46.940        80
46.950        40
46.960        60
46.970        80
46.980        73
46.990        47
47.000        33
47.010        40
47.020        53
47.030        40
47.040        53
47.050        73
47.060        40
47.070        13
47.080        40
47.090        33
47.100        47
47.110        60
47.120        27
47.130        40
47.140        27
47.150        33
47.160        33
47.170        33
47.180        27
47.190        60
47.200        33
47.210         7
47.220        33
47.230        27
47.240        33
47.250        33
47.260        33
47.270        33
47.280        40
47.290        33
47.300        27
47.310        13
47.320        20
47.330        60
47.340        33
47.350        33
47.360        47
47.370        20
47.380        53
47.390         7
47.400        33
47.410        13
47.420         7
47.430        20
47.440        20
47.450        40
47.460        27
47.470        33
47.480        27
47.490        20
47.500        27
47.510         7
47.520        40
47.530        20
47.540        20
47.550        20
47.560        13
47.570         7
47.580        13
47.590        20
47.600        13
47.610        40
47.620        13
47.630        20
47.640        20
47.650        40
47.660        13
47.670        20
47.680         7
47.690        20
47.700         7
47.710        20
47.720        47
47.730         7
47.740        33
47.750        33
47.760         7
47.770        13
47.780        27
47.790        13
47.800        13
47.810        53
47.820        27
47.830        13
47.840        33
47.850        40
47.860        47
47.870        13
47.880        33
47.890        13
47.900        27
47.910        20
47.920        33
47.930        27
47.940        20
47.950        20
47.960        13
47.970        13
47.980        27
47.990        13
48.000         7
48.010        33
48.020        27
48.030        13
48.040        27
48.050        27
48.060        20
48.070        27
48.080        20
48.090        20
48.100        13
48.110        13
48.120        13
48.130        27
48.140        13
48.150        13
48.160        13
48.170        20
48.180        13
48.190         7
48.200         7
48.210        53
48.220        13
48.230        13
48.240         0
48.250         0
48.260        27
48.270        33
48.280        40
48.290        33
48.300        20
48.310        27
48.320        13
48.330        13
48.340        13
48.350        13
48.360        20
48.370        20
48.380         0
48.390        20
48.400         0
48.410        47
48.420        13
48.430        40
48.440         7
48.450        13
48.460        13
48.470        27
48.480        47
48.490         7
48.500        13
48.510         0
48.520        40
48.530         7
48.540        27
48.550        20
48.560        27
48.570        27
48.580        33
48.590        13
48.600        27
48.610        20
48.620        13
48.630        33
48.640         7
48.650        27
48.660        20
48.670        13
48.680        33
48.690        27
48.700        33
48.710        40
48.720        33
48.730        13
48.740        33
48.750        13
48.760        27
48.770        27
48.780        33
48.790         0
48.800        20
48.810        13
48.820        20
48.830        33
48.840         7
48.850        27
48.860        33
48.870        13
48.880        20
48.890        33
48.900        27
48.910         7
48.920        27
48.930        20
48.940        33
48.950        13
48.960         7
48.970        20
48.980        40
48.990        20
49.000        20
49.010        33
49.020        33
49.030        13
49.040         0
49.050        20
49.060        27
49.070        33
49.080        33
49.090        27
49.100        20
49.110        20
49.120        33
49.130         7
49.140        13
49.150        13
49.160        27
49.170         0
49.180        20
49.190        20
49.200        20
49.210        20
49.220         0
49.230        33
49.240        20
49.250        13
49.260        13
49.270         7
49.280        20
49.290        20
49.300        20
49.310        13
49.320        20
49.330        20
49.340        20
49.350        20
49.360         7
49.370         7
49.380        27
49.390        20
49.400        13
49.410        27
49.420        40
49.430        27
49.440        33
49.450         7
49.460        13
49.470         7
49.480        20
49.490        13
49.500        13
49.510        27
49.520        33
49.530        20
49.540        13
49.550        20
49.560        20
49.570        20
49.580        20
49.590         7
49.600         7
49.610         0
49.620        33
49.630        33
49.640        47
49.650        53
49.660        33
49.670        27
49.680        20
49.690        20
49.700        33
49.710        20
49.720        33
49.730        33
49.740        20
49.750        27
49.760        13
49.770        40
49.780        20
49.790        20
49.800        13
49.810        13
49.820        27
49.830         7
49.840        27
49.850        20
49.860        60
49.870        13
49.880        13
49.890         0
49.900        40
49.910         7
49.920        13
49.930        20
49.940        73
49.950         7
49.960        13
49.970        13
49.980        13
49.990        20
50.000        13
50.010         7
50.020        33
50.030        13
50.040        13
50.050         7
50.060        20
50.070        27
50.080         0
50.090        13
50.100        20
50.110        13
50.120        27
50.130         7
50.140        13
50.150        13
50.160        40
50.170        33
50.180        20
50.190        13
50.200        33
50.210        20
50.220        33
50.230        20
50.240        27
50.250        20
50.260        27
50.270        53
50.280        13
50.290         7
50.300        33
50.310        27
50.320        33
50.330        13
50.340        33
50.350        27
50.360        20
50.370        20
50.380         7
50.390        40
50.400        27
50.410        20
50.420        20
50.430        13
50.440         7
50.450         0
50.460        40
50.470         0
50.480        33
50.490        53
50.500        13
50.510        20
50.520         7
50.530        27
50.540        27
50.550        33
50.560        20
50.570         7
50.580        13
50.590         7
50.600         7
50.610        27
50.620         7
50.630        20
50.640        20
50.650         7
50.660        27
50.670        27
50.680        33
50.690        40
50.700        20
50.710        47
50.720        27
50.730        33
50.740        13
50.750        33
50.760        20
50.770        40
50.780        13
50.790        13
50.800        13
50.810        27
50.820        27
50.830        20
50.840        13
50.850        20
50.860        13
50.870        13
50.880        27
50.890         7
50.900         7
50.910        13
50.920        20
50.930        20
50.940        27
50.950        27
50.960        27
50.970        20
50.980        13
50.990        40
51.000        20
51.010        13
51.020        20
51.030        27
51.040        13
51.050        27
51.060        33
51.070        33
51.080        20
51.090         7
51.100         0
51.110        33
51.120        33
51.130        40
51.140         7
51.150        13
51.160        27
51.170        27
51.180        13
51.190        27
51.200        13
51.210        20
51.220        13
51.230        13
51.240        13
51.250         7
51.260        27
51.270        13
51.280        27
51.290        33
51.300        27
51.310         7
51.320        20
51.330        33
51.340        13
51.350        20
51.360        33
51.370         7
51.380        33
51.390        33
51.400         0
51.410        47
51.420        73
51.430        13
51.440        27
51.450        20
51.460        13
51.470         7
51.480        27
51.490        27
51.500        27
51.510         7
51.520        33
51.530        13
51.540        13
51.550        20
51.560         7
51.570        27
51.580        27
51.590        33
51.600        13
51.610        47
51.620        13
51.630        13
51.640        20
51.650        13
51.660        40
51.670        40
51.680        13
51.690        33
51.700        13
51.710        33
51.720        40
51.730        13
51.740        13
51.750        27
51.760        20
51.770        33
51.780        27
51.790        27
51.800        27
51.810        27
51.820        40
51.830        33
51.840        60
51.850        53
51.860        20
51.870        27
51.880        20
51.890        67
51.900        13
51.910        27
51.920        27
51.930        67
51.940        33
51.950        47
51.960        47
51.970        40
51.980        27
51.990        33
52.000        27
52.010        33
52.020        33
52.030        20
52.040        33
52.050        47
52.060        33
52.070        27
52.080        53
52.090        40
52.100        40
52.110        27
52.120        33
52.130        47
52.140         7
52.150        47
52.160        27
52.170        47
52.180        33
52.190        27
52.200        40
52.210        27
52.220        40
52.230        27
52.240        53
52.250        67
52.260        67
52.270        40
52.280        13
52.290        80
52.300        33
52.310        60
52.320        33
52.330        60
52.340        27
52.350        53
52.360        33
52.370        40
52.380        13
52.390        73
52.400        20
52.410        40
52.420        60
52.430        47
52.440        47
52.450        13
52.460        27
52.470        53
52.480        73
52.490        60
52.500        40
52.510        33
52.520        53
52.530        33
52.540        53
52.550        53
52.560        67
52.570        67
52.580        40
52.590        67
52.600        67
52.610        33
52.620        67
52.630        60
52.640        73
52.650        80
52.660        33
52.670        73
52.680        40
52.690        47
52.700        53
52.710        47
52.720        87
52.730        40
52.740        27
52.750        33
52.760        80
52.770        33
52.780        53
52.790        33
52.800        47
52.810        27
52.820        80
52.830        47
52.840        33
52.850        40
52.860        67
52.870        27
52.880        27
52.890        60
52.900        33
52.910        33
52.920        40
52.930        53
52.940        67
52.950        33
52.960        33
52.970        40
52.980        27
52.990        40
53.000        47
53.010        33
53.020        27
53.030        40
53.040        20
53.050        33
53.060        20
53.070        40
53.080        20
53.090        27
53.100        27
53.110        40
53.120        33
53.130        20
53.140        13
53.150        40
53.160        40
53.170        47
53.180        33
53.190        53
53.200        67
53.210        40
53.220        40
53.230        33
53.240        53
53.250        27
53.260        33
53.270        33
53.280        33
53.290        20
53.300        20
53.310        33
53.320        33
53.330        27
53.340        20
53.350        67
53.360        13
53.370         7
53.380        27
53.390        40
53.400        20
53.410        27
53.420        33
53.430        20
53.440        53
53.450         7
53.460        20
53.470        33
53.480        27
53.490        53
53.500        27
53.510        33
53.520        20
53.530        20
53.540         7
53.550        40
53.560        40
53.570        20
53.580        40
53.590        27
53.600        40
53.610        27
53.620        20
53.630        27
53.640        27
53.650        20
53.660         0
53.670        47
53.680        33
53.690        13
53.700        20
53.710        13
53.720        20
53.730        27
53.740        20
53.750         7
53.760        20
53.770        20
53.780        47
53.790         7
53.800        13
53.810        40
53.820        20
53.830        40
53.840        20
53.850        27
53.860        40
53.870        20
53.880        27
53.890        27
53.900        20
53.910        47
53.920        53
53.930         7
53.940         7
53.950        33
53.960        33
53.970        40
53.980        20
53.990        20
54.000        40
54.010        13
54.020        20
54.030         7
54.040         0
54.050        20
54.060        40
54.070        20
54.080        13
54.090        27
54.100        13
54.110        27
54.120         0
54.130        20
54.140        20
54.150        13
54.160         7
54.170        27
54.180        27
54.190         7
54.200        27
54.210        13
54.220        20
54.230        33
54.240        20
54.250        27
54.260        40
54.270         7
54.280         7
54.290        13
54.300        20
54.310        20
54.320        20
54.330        33
54.340        13
54.350        40
54.360        20
54.370        20
54.380         0
54.390        13
54.400        20
54.410        20
54.420        27
54.430         7
54.440        27
54.450         0
54.460        20
54.470         7
54.480        20
54.490        20
54.500        20
54.510         7
54.520        33
54.530        27
54.540         7
54.550        20
54.560        20
54.570        27
54.580        33
54.590         0
54.600        13
54.610        20
54.620        40
54.630        13
54.640        27
54.650        40
54.660        13
54.670         7
54.680         7
54.690        40
54.700        27
54.710        27
54.720        20
54.730        13
54.740        53
54.750        27
54.760         7
54.770        33
54.780        33
54.790        27
54.800        40
54.810        13
54.820        13
54.830        27
54.840         0
54.850        27
54.860        27
54.870        27
54.880        20
54.890        13
54.900        13
54.910         0
54.920         7
54.930        20
54.940        33
54.950        13
54.960         0
54.970        20
54.980        33
54.990         7
55.000        20
55.010        33
55.020        13
55.030        33
55.040        13
55.050        13
55.060        27
55.070        13
55.080        13
55.090         7
55.100        13
55.110        20
55.120        27
55.130        27
55.140         7
55.150        33
55.160        13
55.170         7
55.180         7
55.190        13
55.200        20
55.210        53
55.220         7
55.230         0
55.240        20
55.250        13
55.260         0
55.270        20
55.280        27
55.290        20
55.300        13
55.310        27
55.320         7
55.330        20
55.340         0
55.350        20
55.360        20
55.370         7
55.380         7
55.390        13
55.400        20
55.410        20
55.420         7
55.430        13
55.440         0
55.450        20
55.460         7
55.470        13
55.480         7
55.490        13
55.500         0
55.510        20
55.520         7
55.530        20
55.540        20
55.550         7
55.560        27
55.570        40
55.580        13
55.590        13
55.600        13
55.610        20
55.620         0
55.630        27
55.640        33
55.650         7
55.660        20
55.670        13
55.680        13
55.690        20
55.700        13
55.710        13
55.720         7
55.730        20
55.740         0
55.750        33
55.760         7
55.770        13
55.780         7
55.790        13
55.800         7
55.810        20
55.820        20
55.830        20
55.840        20
55.850        20
55.860        40
55.870        13
55.880        13
55.890        20
55.900        13
55.910        20
55.920        20
55.930        20
55.940        20
55.950         7
55.960         0
55.970        20
55.980         7
55.990        20
56.000        33
56.010        33
56.020         7
56.030        33
56.040        20
56.050         7
56.060        47
56.070        27
56.080        20
56.090        13
56.100        13
56.110        27
56.120        13
56.130        33
56.140        13
56.150        33
56.160         7
56.170        20
56.180        13
56.190         7
56.200         0
56.210         0
56.220        20
56.230        33
56.240         7
56.250        13
56.260        27
56.270        13
56.280         7
56.290        13
56.300        20
56.310        20
56.320         0
56.330        13
56.340        13
56.350        27
56.360        33
56.370         7
56.380        27
56.390         0
56.400        20
56.410         7
56.420        27
56.430        13
56.440        33
56.450        13
56.460        13
56.470        13
56.480        47
56.490         7
56.500         7
56.510         0
56.520        27
56.530        40
56.540         7
56.550         7
56.560        13
56.570        13
56.580         7
56.590        20
56.600         7
56.610        13
56.620         7
56.630        13
56.640        27
56.650        13
56.660        13
56.670         7
56.680         0
56.690        20
56.700         0
56.710        27
56.720        13
56.730        20
56.740         0
56.750        47
56.760        27
56.770         7
56.780        20
56.790        20
56.800         0
56.810        13
56.820        27
56.830         7
56.840        20
56.850         7
56.860         7
56.870        20
56.880         0
56.890         7
56.900         0
56.910        20
56.920         7
56.930        20
56.940        13
56.950         7
56.960         7
56.970         7
56.980        13
56.990        13
57.000        27
57.010        20
57.020        20
57.030        20
57.040        13
57.050        13
57.060        20
57.070        13
57.080         7
57.090        20
57.100        13
57.110         7
57.120        13
57.130        20
57.140        20
57.150        33
57.160        13
57.170        13
57.180        13
57.190        20
57.200         7
57.210        13
57.220        47
57.230        13
57.240        40
57.250        27
57.260        13
57.270        20
57.280        20
57.290        13
57.300         0
57.310        13
57.320        13
57.330        20
57.340        20
57.350         7
57.360        13
57.370        13
57.380         7
57.390         7
57.400         0
57.410         0
57.420        27
57.430        13
57.440        40
57.450        27
57.460        20
57.470        33
57.480         0
57.490        13
57.500        20
57.510        20
57.520         7
57.530        13
57.540        20
57.550        13
57.560        20
57.570        20
57.580         7
57.590         7
57.600        27
57.610        27
57.620        20
57.630        27
57.640        13
57.650        60
57.660        33
57.670        40
57.680        27
57.690         7
57.700        33
57.710        33
57.720        27
57.730        40
57.740        40
57.750        27
57.760        80
57.770        60
57.780        27
57.790        67
57.800        33
57.810        53
57.820        47
57.830        27
57.840        47
57.850        33
57.860        47
57.870        60
57.880        60
57.890        33
57.900        27
57.910        40
57.920        27
57.930        20
57.940        33
57.950        20
57.960        33
57.970        40
57.980        53
57.990        53
58.000        33
58.010        40
58.020        40
58.030        40
58.040        53
58.050        20
58.060        13
58.070        40
58.080        60
58.090        13
58.100        33
58.110        13
58.120        20
58.130         7
58.140        20
58.150         0
58.160        27
58.170         7
58.180         0
58.190         7
58.200        13
58.210         7
58.220         7
58.230        13
58.240        27
58.250        33
58.260         7
58.270        33
58.280         7
58.290        27
58.300        13
58.310         7
58.320        20
58.330         0
58.340         7
58.350        13
58.360         7
58.370         7
58.380         7
58.390         7
58.400         7
58.410        13
58.420        20
58.430         0
58.440        27
58.450         7
58.460         0
58.470        13
58.480        40
58.490         7
58.500        27
58.510        20
58.520        13
58.530         7
58.540        20
58.550         7
58.560        13
58.570        13
58.580         7
58.590         7
58.600        33
58.610        13
58.620        20
58.630         0
58.640        20
58.650        20
58.660        13
58.670        13
58.680         7
58.690        20
58.700         0
58.710        13
58.720         7
58.730         0
58.740        20
58.750         0
58.760         7
58.770         7
58.780        33
58.790         0
58.800        27
58.810        13
58.820        13
58.830        13
58.840         0
58.850        27
58.860        13
58.870        20
58.880        20
58.890         7
58.900        20
58.910        13
58.920         7
58.930        33
58.940         7
58.950         7
58.960         0
58.970        27
58.980         7
58.990         0
59.000        13
59.010         0
59.020         7
59.030        13
59.040        13
59.050        27
59.060         7
59.070        13
59.080        20
59.090         7
59.100         7
59.110        20
59.120        13
59.130        13
59.140         7
59.150        20
59.160        27
59.170        20
59.180        27
59.190         7
59.200         0
59.210        20
59.220         0
59.230        20
59.240         7
59.250        13
59.260         7
59.270         7
59.280        20
59.290        13
59.300         7
59.310         7
59.320        40
59.330        20
59.340        33
59.350        27
59.360         0
59.370        20
59.380        27
59.390         7
59.400        40
59.410         0
59.420        20
59.430        13
59.440         7
59.450        13
59.460         7
59.470        13
59.480        20
59.490         7
59.500         7
59.510         7
59.520         0
59.530         0
59.540        20
59.550         7
59.560        13
59.570        20
59.580        13
59.590         7
59.600         7
59.610         0
59.620        13
59.630         7
59.640        13
59.650        20
59.660         7
59.670         0
59.680        13
59.690         0
59.700        20
59.710        33
59.720         7
59.730        40
59.740        20
59.750        13
59.760        20
59.770        27
59.780         7
59.790        13
59.800        13
59.810         7
59.820        27
59.830        33
59.840        13
59.850         7
59.860        20
59.870        13
59.880         7
59.890         0
59.900         7
59.910         7
59.920        13
59.930        13
59.940        20
59.950         7
59.960        20
59.970        20
59.980         7
59.990         7
60.000         0
