20.000        40
20.010        47
20.020        33
20.030        53
20.040        33
20.050        27
20.060        60
20.070        33
20.080        27
20.090        47
20.100        80
20.110        47
20.120        53
20.130        27
20.140        27
20.150        67
20.160        33
20.170        60
20.180        67
20.190        73
20.200        73
20.210        80
20.220        60
20.230        80
20.240        47
20.250        73
20.260        80
20.270        80
20.280        47
20.290        80
20.300        60
20.310        60
20.320        87
20.330        27
20.340        27
20.350        60
20.360        73
20.370        60
20.380        67
20.390        73
20.400        80
20.410        87
20.420        67
20.430        80
20.440        53
20.450        47
20.460        47
20.470        47
20.480        47
20.490        60
20.500        67
20.510        53
20.520        27
20.530        27
20.540        73
20.550        40
20.560        33
20.570        93
20.580        60
20.590        27
20.600        80
20.610        27
20.620        47
20.630        40
20.640        67
20.650        33
20.660        27
20.670        47
20.680        27
20.690        40
20.700        73
20.710        73
20.720        53
20.730        67
20.740        33
20.750        67
20.760        60
20.770        53
20.780        47
20.790        40
20.800        67
20.810        87
20.820        67
20.830        47
20.840        33
20.850        27
20.860        60
20.870        27
20.880        53
20.890        47
20.900        73
20.910        60
20.920        33
20.930        47
20.940        47
20.950        13
20.960        60
20.970        47
20.980        67
20.990        47
21.000        73
21.010        40
21.020        40
21.030        47
21.040        53
21.050        60
21.060        40
21.070        40
21.080        53
21.090        73
21.100        87
21.110        67
21.120        40
21.130        40
21.140        47
21.150        33
21.160         7
21.170        40
21.180        47
21.190        40
21.200        60
21.210        67
21.220        60
21.230        47
21.240        60
21.250        60
21.260        60
21.270        67
21.280        53
21.290        27
21.300        47
21.310        60
21.320        60
21.330        67
21.340        27
21.350        27
21.360        47
21.370        20
21.380        27
21.390        47
21.400        67
21.410        67
21.420        60
21.430        33
21.440        73
21.450        47
21.460        40
21.470        60
21.480        73
21.490        53
21.500        27
21.510        47
21.520        40
21.530        53
21.540        60
21.550        40
21.560        20
21.570        13
21.580        73
21.590        60
21.600        73
21.610        47
21.620        53
21.630        53
21.640        53
21.650        53
21.660        67
21.670        33
21.680        60
21.690        80
21.700        47
21.710        53
21.720        53
21.730        20
21.740        40
21.750        27
21.760        53
21.770        67
21.780        47
21.790        33
21.800        27
21.810        40
21.820        53
21.830        33
21.840        13
21.850        73
21.860        33
21.870        40
21.880        53
21.890        27
21.900        60
21.910        60
21.920        60
21.930        33
21.940        33
21.950        67
21.960        60
21.970        47
21.980        47
21.990        53
22.000        47
22.010        60
22.020        27
22.030        53
22.040        53
22.050        33
22.060        27
22.070        60
22.080        53
22.090        40
22.100        33
22.110        53
22.120        47
22.130        40
22.140        47
22.150        47
22.160        60
22.170        60
22.180       107
22.190        47
22.200        47
22.210        47
22.220        53
22.230        40
22.240        47
22.250        53
22.260        53
22.270        40
22.280        40
22.290        80
22.300        60
22.310        13
22.320        13
22.330        40
22.340        27
22.350        73
22.360        27
22.370        40
22.380        67
22.390        33
22.400        47
22.410        47
22.420        40
22.430        47
22.440        53
22.450        80
22.460        53
22.470        47
22.480        73
22.490        40
22.500        53
22.510        27
22.520        33
22.530       100
22.540        53
22.550        93
22.560        60
22.570        53
22.580        33
22.590        80
22.600        47
22.610        60
22.620        67
22.630        60
22.640        47
22.650        67
22.660        33
22.670        13
22.680       100
22.690        87
22.700        60
22.710        73
22.720        80
22.730        53
22.740        53
22.750        47
22.760        40
22.770        40
22.780        60
22.790        73
22.800        40
22.810        67
22.820        73
22.830        40
22.840        27
22.850        40
22.860        40
22.870        33
22.880        47
22.890        53
22.900        40
22.910        53
22.920        27
22.930        60
22.940        47
22.950        40
22.960        13
22.970        13
22.980        27
22.990        53
23.000        60
23.010        47
23.020        53
23.030        40
23.040        40
23.050        27
23.060        40
23.070        33
23.080        67
23.090        27
23.100        67
23.110        13
23.120        27
23.130        40
23.140        47
23.150        27
23.160        33
23.170        33
23.180        27
23.190        33
23.200        40
23.210        40
23.220        53
23.230        47
23.240        40
23.250        60
23.260        47
23.270        67
23.280        27
23.290        40
23.300        40
23.310        40
23.320        40
23.330        53
23.340        60
23.350        33
23.360        40
23.370        40
23.380        60
23.390        20
23.400       100
23.410        40
23.420        33
23.430        40
23.440        47
23.450        20
23.460        60
23.470        40
23.480        47
23.490        27
23.500        33
23.510        47
23.520        40
23.530        53
23.540        40
23.550        13
23.560        53
23.570        40
23.580        40
23.590        27
23.600        33
23.610        40
23.620        27
23.630        60
23.640        33
23.650        40
23.660        53
23.670        47
23.680        73
23.690        40
23.700        40
23.710        53
23.720        47
23.730        20
23.740        47
23.750        33
23.760        40
23.770        47
23.780        47
23.790        40
23.800        40
23.810        40
23.820        47
23.830        33
23.840        53
23.850        47
23.860        13
23.870        40
23.880        53
23.890        27
23.900        33
23.910        27
23.920        47
23.930        47
23.940        27
23.950        13
23.960        53
23.970        33
23.980        40
23.990        60
24.000        53
24.010        27
24.020        40
24.030        27
24.040        40
24.050        47
24.060        13
24.070        47
24.080        40
24.090        47
24.100        20
24.110        47
24.120        20
24.130        47
24.140        40
24.150        40
24.160        40
24.170        13
24.180        27
24.190        40
24.200        20
24.210        47
24.220        80
24.230        33
24.240        27
24.250        13
24.260        40
24.270        53
24.280        13
24.290        60
24.300        53
24.310         0
24.320        20
24.330        53
24.340        33
24.350        13
24.360        60
24.370        20
24.380        53
24.390        20
24.400        33
24.410        60
24.420        40
24.430        40
24.440        67
24.450        13
24.460        67
24.470        27
24.480        73
24.490        20
24.500        33
24.510        80
24.520        53
24.530        60
24.540        20
24.550        33
24.560        40
24.570        53
24.580        47
24.590        73
24.600        47
24.610        40
24.620        40
24.630        40
24.640        40
24.650        20
24.660        33
24.670        33
24.680        33
24.690        20
24.700        73
24.710        40
24.720        27
24.730        67
24.740        27
24.750        27
24.760        27
24.770        33
24.780        33
24.790        60
24.800        13
24.810        33
24.820        27
24.830        33
24.840        53
24.850        27
24.860        33
24.870        60
24.880        40
24.890        13
24.900        40
24.910        67
24.920        60
24.930        27
24.940        33
24.950        53
24.960        20
24.970        27
24.980        33
24.990        20
25.000        53
25.010        33
25.020        40
25.030        47
25.040        40
25.050        53
25.060        13
25.070        40
25.080        47
25.090        47
25.100        33
25.110        33
25.120        33
25.130        40
25.140        13
25.150        40
25.160        13
25.170        47
25.180        47
25.190        33
25.200        33
25.210        47
25.220        33
25.230        40
25.240        33
25.250        47
25.260        40
25.270        33
25.280        47
25.290        33
25.300        67
25.310        20
25.320        80
25.330        27
25.340        33
25.350        20
25.360        47
25.370        40
25.380        53
25.390        33
25.400       100
25.410        67
25.420        27
25.430        40
25.440        73
25.450        73
25.460        87
25.470       100
25.480        93
25.490        80
25.500        67
25.510        93
25.520        87
25.530       113
25.540       153
25.550       107
25.560       107
25.570       120
25.580       160
25.590       120
25.600       147
25.610       153
25.620       127
25.630       140
25.640       107
25.650       107
25.660        87
25.670        40
25.680        67
25.690        93
25.700        87
25.710        60
25.720        40
25.730        60
25.740        60
25.750        47
25.760        27
25.770        33
25.780        60
25.790        53
25.800        40
25.810        40
25.820        53
25.830        27
25.840        20
25.850        20
25.860        40
25.870        60
25.880        33
25.890        27
25.900        13
25.910        40
25.920        87
25.930        47
25.940        53
25.950        40
25.960        60
25.970        20
25.980        33
25.990        33
26.000        27
26.010        53
26.020        20
26.030        13
26.040        33
26.050        20
26.060        33
26.070        73
26.080        33
26.090        27
26.100        33
26.110        53
26.120        13
26.130        47
26.140        33
26.150         7
26.160        40
26.170        60
26.180        33
26.190        47
26.200        27
26.210        33
26.220        27
26.230        27
26.240        20
26.250        27
26.260        53
26.270        20
26.280        80
26.290        47
26.300        33
26.310        73
26.320        40
26.330        27
26.340        27
26.350        20
26.360        33
26.370        13
26.380        47
26.390        13
26.400        40
26.410        27
26.420        20
26.430        27
26.440        20
26.450        40
26.460        33
26.470        33
26.480        27
26.490        60
26.500         7
26.510        27
26.520        27
26.530        53
26.540        20
26.550        33
26.560        47
26.570        40
26.580        27
26.590        20
26.600        40
26.610        27
26.620        33
26.630        40
26.640        47
26.650        40
26.660        27
26.670         7
26.680        33
26.690        27
26.700        40
26.710        20
26.720        27
26.730        40
26.740        53
26.750        47
26.760        20
26.770        53
26.780        33
26.790        20
26.800        40
26.810        27
26.820        47
26.830        20
26.840        53
26.850        67
26.860        20
26.870         7
26.880        20
26.890        13
26.900        27
26.910        73
26.920        40
26.930        53
26.940        33
26.950        27
26.960        13
26.970        80
26.980        33
26.990        33
27.000        20
27.010        53
27.020        53
27.030        20
27.040        27
27.050        20
27.060        47
27.070        20
27.080        20
27.090        20
27.100        40
27.110        67
27.120        20
27.130        20
27.140        27
27.150        40
27.160        40
27.170        27
27.180        20
27.190        53
27.200        47
27.210        53
27.220        60
27.230        47
27.240        20
27.250        13
27.260        33
27.270        33
27.280        27
27.290        13
27.300        20
27.310        47
27.320        60
27.330        60
27.340        47
27.350        20
27.360        40
27.370        27
27.380        53
27.390        47
27.400        40
27.410        53
27.420        13
27.430        13
27.440        20
27.450        27
27.460        13
27.470        60
27.480        27
27.490        67
27.500        20
27.510        20
27.520         7
27.530        33
27.540        47
27.550        27
27.560        13
27.570        47
27.580        13
27.590         7
27.600        20
27.610        33
27.620        73
27.630        27
27.640        40
27.650        47
27.660        60
27.670        53
27.680        20
27.690        33
27.700        13
27.710        27
27.720        47
27.730        53
27.740        27
27.750        20
27.760        47
27.770        33
27.780        20
27.790        27
27.800        40
27.810        33
27.820         7
27.830        47
27.840        40
27.850        27
27.860        47
27.870        40
27.880        40
27.890        33
27.900        60
27.910        40
27.920        33
27.930        40
27.940        20
27.950        47
27.960        20
27.970         7
27.980        20
27.990        13
28.000        27
28.010        13
28.020        27
28.030        27
28.040        40
28.050        33
28.060        27
28.070        27
28.080        40
28.090        60
28.100        13
28.110        20
28.120        33
28.130        33
28.140        20
28.150        13
28.160        13
28.170        27
28.180        20
28.190        20
28.200        20
28.210        33
28.220        13
28.230        20
28.240        27
28.250        20
28.260        67
28.270        47
28.280        33
28.290        47
28.300        20
28.310        27
28.320        27
28.330        47
28.340        27
28.350        33
28.360        33
28.370        40
28.380        80
28.390        33
28.400        33
28.410        27
28.420        27
28.430        40
28.440        40
28.450        20
28.460        40
28.470        47
28.480        47
28.490        67
28.500        40
28.510        67
28.520        33
28.530        20
28.540        40
28.550        13
28.560        20
28.570        20
28.580        40
28.590        47
28.600        33
28.610        40
28.620        13
28.630        40
28.640        40
28.650        20
28.660        20
28.670        13
28.680        20
28.690        27
28.700        27
28.710        67
28.720        47
28.730        27
28.740        27
28.750        20
28.760        27
28.770        27
28.780        13
28.790        73
28.800        47
28.810        33
28.820        13
28.830        40
28.840        47
28.850        27
28.860        20
28.870        13
28.880        40
28.890        40
28.900         7
28.910        33
28.920        40
28.930        33
28.940        27
28.950        33
28.960        40
28.970        13
28.980        40
28.990        60
29.000        27
29.010        47
29.020        60
29.030        13
29.040        53
29.050        40
29.060        53
29.070        47
29.080        20
29.090        13
29.100        27
29.110        40
29.120        33
29.130        60
29.140        27
29.150        33
29.160        60
29.170        20
29.180        47
29.190        20
29.200         7
29.210        27
29.220        27
29.230        53
29.240        33
29.250        33
29.260        33
29.270        40
29.280        33
29.290        20
29.300        67
29.310        33
29.320        40
29.330        33
29.340        33
29.350        33
29.360        40
29.370        33
29.380        40
29.390        67
29.400        33
29.410       140
29.420        13
29.430        33
29.440        20
29.450        27
29.460        33
29.470        20
29.480        20
29.490        33
29.500        40
29.510        33
29.520        20
29.530        20
29.540        27
29.550        20
29.560        20
29.570        13
29.580        40
29.590        53
29.600        27
29.610        27
29.620        40
29.630        27
29.640        27
29.650         7
29.660         7
29.670        33
29.680        47
29.690        13
29.700        27
29.710        53
29.720        27
29.730        20
29.740        20
29.750        20
29.760        33
29.770        33
29.780        13
29.790        20
29.800        13
29.810         7
29.820        67
29.830        33
29.840        27
29.850        27
29.860        33
29.870        27
29.880        33
29.890        20
29.900        20
29.910        20
29.920        33
29.930        20
29.940        27
29.950        33
29.960        47
29.970        27
29.980        33
29.990        20
30.000        27
30.010        27
30.020        27
30.030         0
30.040        40
30.050        20
30.060        27
30.070        27
30.080        27
30.090        60
30.100        27
30.110        33
30.120        20
30.130        27
30.140         0
30.150        27
30.160        47
30.170        27
30.180        27
30.190        47
30.200        33
30.210        60
30.220        40
30.230        27
30.240        20
30.250        20
30.260        40
30.270        27
30.280        40
30.290        67
30.300        33
30.310        40
30.320        47
30.330        33
30.340        20
30.350        40
30.360        13
30.370        47
30.380        40
30.390        27
30.400        20
30.410        60
30.420        27
30.430        80
30.440        20
30.450        20
30.460        27
30.470        40
30.480        13
30.490        27
30.500        20
30.510         7
30.520        47
30.530        20
30.540        20
30.550        47
30.560        27
30.570        47
30.580        27
30.590        20
30.600        20
30.610        20
30.620        27
30.630        27
30.640        27
30.650        27
30.660        27
30.670        33
30.680        47
30.690        20
30.700        47
30.710        33
30.720        20
30.730        13
30.740        33
30.750        20
30.760        40
30.770        20
30.780        27
30.790        33
30.800        40
30.810        33
30.820        13
30.830       147
30.840        20
30.850        13
30.860        33
30.870        33
30.880        47
30.890        27
30.900        47
30.910        33
30.920        40
30.930        13
30.940       100
30.950        20
30.960        33
30.970        53
30.980        40
30.990        47
31.000        40
31.010        73
31.020        47
31.030        40
31.040        40
31.050        40
31.060        20
31.070        53
31.080        87
31.090        40
31.100        33
31.110        20
31.120        20
31.130        47
31.140        27
31.150        40
31.160        73
31.170        60
31.180        53
31.190        27
31.200        33
31.210        33
31.220        67
31.230        33
31.240        40
31.250        40
31.260        27
31.270        47
31.280        33
31.290        60
31.300        20
31.310        47
31.320        40
31.330        60
31.340        40
31.350        27
31.360        27
31.370        67
31.380        47
31.390        40
31.400        40
31.410        67
31.420        40
31.430        47
31.440        53
31.450        60
31.460        33
31.470        47
31.480        53
31.490        73
31.500        40
31.510        67
31.520        47
31.530        60
31.540        40
31.550        80
31.560        53
31.570        93
31.580        80
31.590        93
31.600        67
31.610       100
31.620       120
31.630        67
31.640        67
31.650       113
31.660        73
31.670        87
31.680       167
31.690       133
31.700       153
31.710       107
31.720       147
31.730        93
31.740       120
31.750       187
31.760        73
31.770       133
31.780       167
31.790       173
31.800       160
31.810       233
31.820       220
31.830       253
31.840       247
31.850       340
31.860       287
31.870       307
31.880       280
31.890       407
31.900       380
31.910       353
31.920       340
31.930       486
31.940       493
31.950       653
31.960       620
31.970       613
31.980       686
31.990       660
32.000       593
32.010       706
32.020       773
32.030       726
32.040       866
32.050       780
32.060       920
32.070       753
32.080       880
32.090       933
32.100      1033
32.110       920
32.120       986
32.130      1046
32.140      1093
32.150      1113
32.160      1020
32.170      1006
32.180      1000
32.190       980
32.200       946
32.210       913
32.220       773
32.230       780
32.240       720
32.250       686
32.260       713
32.270       640
32.280       620
32.290       646
32.300       620
32.310       433
32.320       580
32.330       526
32.340       407
32.350       413
32.360       393
32.370       327
32.380       327
32.390       413
32.400       260
32.410       227
32.420       253
32.430       193
32.440       193
32.450       227
32.460       227
32.470       200
32.480       240
32.490       193
32.500       153
32.510       100
32.520       187
32.530       173
32.540       147
32.550       147
32.560        80
32.570       167
32.580       133
32.590       113
32.600       133
32.610       127
32.620       160
32.630       107
32.640       107
32.650        67
32.660       107
32.670        93
32.680        93
32.690       100
32.700       100
32.710        93
32.720        93
32.730       107
32.740        60
32.750        47
32.760        40
32.770       113
32.780        47
32.790        93
32.800        53
32.810        80
32.820        73
32.830        67
32.840        47
32.850        60
32.860        40
32.870        60
32.880        80
32.890        73
32.900        53
32.910        40
32.920        47
32.930       100
32.940        47
32.950        53
32.960        47
32.970        47
32.980        67
32.990        27
33.000        53
33.010        73
33.020       120
33.030        47
33.040        33
33.050        33
33.060        60
33.070        53
33.080        33
33.090        47
33.100        87
33.110        27
33.120        40
33.130        40
33.140         7
33.150        60
33.160        20
33.170        47
33.180        60
33.190        40
33.200        53
33.210        20
33.220        40
33.230        20
33.240        33
33.250        40
33.260        40
33.270        47
33.280        27
33.290        27
33.300        53
33.310        40
33.320        60
33.330        60
33.340        60
33.350        40
33.360        60
33.370         7
33.380        20
33.390        60
33.400        53
33.410        20
33.420        27
33.430        40
33.440        27
33.450        13
33.460        40
33.470        53
33.480        40
33.490        20
33.500        80
33.510        20
33.520        33
33.530        40
33.540        40
33.550        33
33.560        33
33.570        27
33.580        60
33.590        20
33.600        40
33.610        60
33.620        53
33.630        40
33.640        33
33.650        27
33.660        27
33.670        53
33.680        20
33.690        20
33.700        20
33.710        20
33.720        40
33.730        33
33.740        33
33.750        20
33.760        60
33.770        33
33.780        33
33.790        13
33.800        27
33.810        33
33.820        40
33.830        33
33.840        47
33.850        20
33.860        20
33.870        33
33.880        27
33.890        27
33.900        47
33.910        27
33.920        47
33.930        47
33.940        33
33.950        73
33.960        60
33.970        20
33.980        27
33.990        20
34.000        93
34.010        27
34.020        33
34.030        33
34.040        27
34.050        13
34.060        20
34.070        20
34.080        20
34.090        60
34.100        20
34.110        40
34.120        60
34.130        47
34.140        33
34.150        40
34.160        47
34.170        27
34.180        20
34.190        27
34.200        27
34.210        40
34.220        60
34.230        20
34.240        27
34.250        33
34.260        27
34.270        53
34.280        40
34.290        20
34.300        33
34.310        53
34.320        27
34.330        47
34.340        27
34.350        27
34.360        40
34.370        20
34.380        27
34.390        13
34.400         7
34.410        40
34.420        27
34.430        13
34.440        20
34.450        33
34.460        40
34.470        33
34.480        20
34.490        40
34.500        33
34.510         7
34.520        53
34.530        60
34.540        33
34.550        27
34.560        53
34.570        27
34.580        13
34.590        40
34.600        27
34.610        20
34.620        47
34.630        53
34.640        53
34.650        20
34.660        73
34.670        20
34.680        47
34.690        20
34.700        33
34.710        27
34.720        27
34.730        33
34.740        53
34.750        27
34.760        47
34.770        47
34.780        40
34.790        47
34.800        27
34.810        47
34.820        80
34.830        67
34.840        47
34.850        53
34.860        33
34.870        27
34.880        80
34.890        27
34.900        80
34.910        93
34.920       100
34.930        47
34.940        60
34.950       127
34.960       147
34.970       153
34.980       247
34.990       240
35.000       253
35.010       253
35.020       213
35.030       200
35.040       220
35.050       233
35.060       260
35.070       360
35.080       367
35.090       393
35.100       400
35.110       333
35.120       553
35.130       620
35.140       860
35.150       886
35.160      1046
35.170      1353
35.180      1259
35.190      1146
35.200       906
35.210       833
35.220       633
35.230       526
35.240       686
35.250       600
35.260       626
35.270       600
35.280       653
35.290       400
35.300       280
35.310       233
35.320       153
35.330        53
35.340        73
35.350        73
35.360        67
35.370        33
35.380        53
35.390        53
35.400        87
35.410        20
35.420        73
35.430        40
35.440        67
35.450        53
35.460        33
35.470        67
35.480        40
35.490        40
35.500        27
35.510        20
35.520        27
35.530        40
35.540         7
35.550        20
35.560        33
35.570        33
35.580        33
35.590        13
35.600        47
35.610        20
35.620        27
35.630        33
35.640        20
35.650        60
35.660        20
35.670        27
35.680        27
35.690        13
35.700        27
35.710        27
35.720        53
35.730        40
35.740        20
35.750        27
35.760        33
35.770        27
35.780        40
35.790        40
35.800        40
35.810        27
35.820        20
35.830        20
35.840        13
35.850        20
35.860        27
35.870        33
35.880        40
35.890        73
35.900        20
35.910        13
35.920        47
35.930        33
35.940        67
35.950        47
35.960        20
35.970        27
35.980        33
35.990        27
36.000         7
36.010        33
36.020        33
36.030        20
36.040        27
36.050         7
36.060        40
36.070        27
36.080        33
36.090        20
36.100        13
36.110        53
36.120        40
36.130        27
36.140        27
36.150        40
36.160        20
36.170        33
36.180         7
36.190        33
36.200        27
36.210        40
36.220        13
36.230        40
36.240        27
36.250        53
36.260        67
36.270        53
36.280        53
36.290        27
36.300        20
36.310        13
36.320         7
36.330        47
36.340         0
36.350        20
36.360        20
36.370        67
36.380        33
36.390        33
36.400        20
36.410        27
36.420        33
36.430        40
36.440         7
36.450        40
36.460         0
36.470        40
36.480        27
36.490        40
36.500         7
36.510        40
36.520        20
36.530        33
36.540        20
36.550        60
36.560        53
36.570        27
36.580         7
36.590        20
36.600        40
36.610        20
36.620        27
36.630        27
36.640        60
36.650        13
36.660        20
36.670        33
36.680        27
36.690        20
36.700         7
36.710        20
36.720        20
36.730        40
36.740        33
36.750        40
36.760         7
36.770        27
36.780        27
36.790        67
36.800        53
36.810        13
36.820        40
36.830        20
36.840        40
36.850        20
36.860        20
36.870        27
36.880        40
36.890        53
36.900        20
36.910        47
36.920        47
36.930        13
36.940        67
36.950        27
36.960        40
36.970        20
36.980        47
36.990        27
37.000        33
37.010        13
37.020        20
37.030        33
37.040        33
37.050        13
37.060        20
37.070        27
37.080        33
37.090        47
37.100        40
37.110        33
37.120        27
37.130        33
37.140        13
37.150        20
37.160        33
37.170        13
37.180        20
37.190        13
37.200        27
37.210        13
37.220        13
37.230        67
37.240        27
37.250        33
37.260        20
37.270         7
37.280        27
37.290        13
37.300        20
37.310        33
37.320        33
37.330        27
37.340         7
37.350        40
37.360        40
37.370        13
37.380        13
37.390        47
37.400        33
37.410        53
37.420        27
37.430        33
37.440        40
37.450        20
37.460        13
37.470         7
37.480        27
37.490        20
37.500        13
37.510        13
37.520        27
37.530        47
37.540         7
37.550        13
37.560        40
37.570        47
37.580        20
37.590        13
37.600        27
37.610        33
37.620        47
37.630         7
37.640        13
37.650        47
37.660        47
37.670        33
37.680        13
37.690        47
37.700        33
37.710         7
37.720        27
37.730        27
37.740        40
37.750        40
37.760        53
37.770        60
37.780        73
37.790        73
37.800        67
37.810       113
37.820        87
37.830        60
37.840        13
37.850        73
37.860        60
37.870        40
37.880        53
37.890        47
37.900        47
37.910        53
37.920       133
37.930        27
37.940        40
37.950        33
37.960        20
37.970        27
37.980        47
37.990         7
38.000        27
38.010        20
38.020        20
38.030        13
38.040        33
38.050        13
38.060        47
38.070        27
38.080        27
38.090        20
38.100        20
38.110        27
38.120        20
38.130        33
38.140        27
38.150        47
38.160        33
38.170        47
38.180        53
38.190        40
38.200         7
38.210        33
38.220        13
38.230        27
38.240        20
38.250        13
38.260        33
38.270        33
38.280        27
38.290        27
38.300        27
38.310        47
38.320        27
38.330        13
38.340         0
38.350        20
38.360         0
38.370        20
38.380        33
38.390        40
38.400        13
38.410        13
38.420        20
38.430        27
38.440        20
38.450        20
38.460        40
38.470        13
38.480         0
38.490        40
38.500        13
38.510        27
38.520        53
38.530        13
38.540        33
38.550        27
38.560        33
38.570        47
38.580        33
38.590        40
38.600        27
38.610        27
38.620        27
38.630        40
38.640        47
38.650        33
38.660        20
38.670        13
38.680        47
38.690        20
38.700        40
38.710         7
38.720        33
38.730        20
38.740        40
38.750        27
38.760        20
38.770        20
38.780        20
38.790        33
38.800        20
38.810        27
38.820        27
38.830        13
38.840        13
38.850         0
38.860        27
38.870        40
38.880        20
38.890        33
38.900        67
38.910        27
38.920        27
38.930        27
38.940         0
38.950        33
38.960        40
38.970        33
38.980        33
38.990         7
39.000        13
39.010         0
39.020        13
39.030        27
39.040        40
39.050        33
39.060        20
39.070        47
39.080        40
39.090        40
39.100        27
39.110        20
39.120        27
39.130        20
39.140        53
39.150        13
39.160        33
39.170        27
39.180        20
39.190         7
39.200        20
39.210         7
39.220        20
39.230         7
39.240        20
39.250        20
39.260        40
39.270        33
39.280        20
39.290        20
39.300        27
39.310        20
39.320        27
39.330        20
39.340        20
39.350         7
39.360        33
39.370        27
39.380        33
39.390        27
39.400        20
39.410        33
39.420        27
39.430        27
39.440         7
39.450         7
39.460        20
39.470        27
39.480        53
39.490        13
39.500        33
39.510        33
39.520        27
39.530        27
39.540        47
39.550         7
39.560        33
39.570        40
39.580        47
39.590        73
39.600        47
39.610        40
39.620        33
39.630        67
39.640        40
39.650        40
39.660        33
39.670        40
39.680        33
39.690        60
39.700        53
39.710        47
39.720        40
39.730        20
39.740        33
39.750        47
39.760        27
39.770        47
39.780        53
39.790        40
39.800        20
39.810        20
39.820        13
39.830        33
39.840        33
39.850        27
39.860        20
39.870         7
39.880        33
39.890        13
39.900        40
39.910        40
39.920        33
39.930         7
39.940        20
39.950        33
39.960        60
39.970        33
39.980        13
39.990        33
40.000         7
40.010        13
40.020        20
40.030        40
40.040        40
40.050        40
40.060        13
40.070        20
40.080        47
40.090        20
40.100        27
40.110        33
40.120         0
40.130        33
40.140        27
40.150        47
40.160        40
40.170        33
40.180        20
40.190        13
40.200        40
40.210        20
40.220        33
40.230        40
40.240        53
40.250        27
40.260        47
40.270        20
40.280         7
40.290        13
40.300        20
40.310        27
40.320        13
40.330        20
40.340        20
40.350        33
40.360        20
40.370        20
40.380        27
40.390         7
40.400        13
40.410        20
40.420        13
40.430         7
40.440        20
40.450        33
40.460        27
40.470        27
40.480        13
40.490        20
40.500        27
40.510         7
40.520        13
40.530        27
40.540        40
40.550         7
40.560        40
40.570        20
40.580        20
40.590        20
40.600        40
40.610        20
40.620        20
40.630        20
40.640        27
40.650        13
40.660        13
40.670        13
40.680        13
40.690        20
40.700        27
40.710        27
40.720        13
40.730        47
40.740        53
40.750        13
40.760        13
40.770         7
40.780        27
40.790        13
40.800        53
40.810        20
40.820        33
40.830        13
40.840        33
40.850        27
40.860        13
40.870         7
40.880        27
40.890        47
40.900        20
40.910        20
40.920        20
40.930        33
40.940        13
40.950        27
40.960        40
40.970        40
40.980        40
40.990        27
41.000        40
41.010        40
41.020        13
41.030        13
41.040        27
41.050        27
41.060        20
41.070         0
41.080        47
41.090        20
41.100         0
41.110         7
41.120        40
41.130        27
41.140        33
41.150        33
41.160        20
41.170        33
41.180         7
41.190         7
41.200         7
41.210        13
41.220        20
41.230        67
41.240        27
41.250        13
41.260        13
41.270        27
41.280        27
41.290        13
41.300        20
41.310        20
41.320        20
41.330        60
41.340        13
41.350        20
41.360        27
41.370        13
41.380        27
41.390        53
41.400         7
41.410        20
41.420        20
41.430        13
41.440        40
41.450        40
41.460        40
41.470        27
41.480        33
41.490        40
41.500        53
41.510         0
41.520        20
41.530        20
41.540        13
41.550        20
41.560        40
41.570        33
41.580        47
41.590        60
41.600        60
41.610        27
41.620        27
41.630        60
41.640        93
41.650       107
41.660        87
41.670       100
41.680       127
41.690       127
41.700       113
41.710        87
41.720        93
41.730        60
41.740        53
41.750        73
41.760        47
41.770        87
41.780       100
41.790        93
41.800        60
41.810        40
41.820        27
41.830        60
41.840        33
41.850        27
41.860        60
41.870        53
41.880        33
41.890        40
41.900        60
41.910        53
41.920        13
41.930        20
41.940        20
41.950        20
41.960         7
41.970        13
41.980         7
41.990         7
42.000        13
42.010        20
42.020         7
42.030        20
42.040        33
42.050        13
42.060        27
42.070        13
42.080        20
42.090        13
42.100        27
42.110         0
42.120        27
42.130        20
42.140        33
42.150        13
42.160         7
42.170        27
42.180         0
42.190        20
42.200        13
42.210        20
42.220        13
42.230        20
42.240         7
42.250        27
42.260        27
42.270        33
42.280        13
42.290        33
42.300        13
42.310        13
42.320        13
42.330        33
42.340        13
42.350        33
42.360         7
42.370         7
42.380        20
42.390        13
42.400        20
42.410        13
42.420        13
42.430        33
42.440        20
42.450        13
42.460        33
42.470        27
42.480        13
42.490        33
42.500        27
42.510        33
42.520         7
42.530        20
42.540         7
42.550        20
42.560        40
42.570        13
42.580         7
42.590        27
42.600        53
42.610        40
42.620        40
42.630        20
42.640        13
42.650        47
42.660        40
42.670        33
42.680        20
42.690        27
42.700        33
42.710        20
42.720        20
42.730        20
42.740        53
42.750        13
42.760        20
42.770        20
42.780        20
42.790        13
42.800        27
42.810        33
42.820        27
42.830        20
42.840        13
42.850         7
42.860        20
42.870        20
42.880        13
42.890        13
42.900        13
42.910        40
42.920        13
42.930        27
42.940        40
42.950        27
42.960        20
42.970        20
42.980        33
42.990        27
43.000        40
43.010        27
43.020        13
43.030        33
43.040        47
43.050         7
43.060        13
43.070        20
43.080        47
43.090        13
43.100        27
43.110        20
43.120        33
43.130        27
43.140        27
43.150        20
43.160        20
43.170        47
43.180        20
43.190        47
43.200        53
43.210        27
43.220        33
43.230        20
43.240        20
43.250        33
43.260        33
43.270        60
43.280        53
43.290        53
43.300        33
43.310        80
43.320        87
43.330       100
43.340       160
43.350       153
43.360       173
43.370       200
43.380       167
43.390       180
43.400       213
43.410       153
43.420       113
43.430       113
43.440       147
43.450       113
43.460       113
43.470       100
43.480        67
43.490       113
43.500        93
43.510        73
43.520       153
43.530        93
43.540        67
43.550        73
43.560        53
43.570        33
43.580        53
43.590        27
43.600        33
43.610        40
43.620        13
43.630        13
43.640        27
43.650         7
43.660        40
43.670        20
43.680         0
43.690        13
43.700        20
43.710        13
43.720        20
43.730        13
43.740        33
43.750        33
43.760         7
43.770        20
43.780        20
43.790         7
43.800        20
43.810        40
43.820        40
43.830         0
43.840        20
43.850        27
43.860        20
43.870        27
43.880        33
43.890        20
43.900        33
43.910        20
43.920        27
43.930        13
43.940        27
43.950        20
43.960        20
43.970        20
43.980        20
43.990        27
44.000        27
44.010        13
44.020         0
44.030        20
44.040         7
44.050         0
44.060        27
44.070        13
44.080        33
44.090        20
44.100         7
44.110        27
44.120         7
44.130         7
44.140        20
44.150        27
44.160        40
44.170        20
44.180         0
44.190         7
44.200         0
44.210        13
44.220        33
44.230        20
44.240        13
44.250        13
44.260        13
44.270        20
44.280         7
44.290        27
44.300         7
44.310        13
44.320        13
44.330         7
44.340        20
44.350        27
44.360         0
44.370        27
44.380        27
44.390        27
44.400        20
44.410         7
44.420        13
44.430        13
44.440         7
44.450        13
44.460         7
44.470        27
44.480        33
44.490        13
44.500        20
44.510        33
44.520        27
44.530         0
44.540        20
44.550        47
44.560        13
44.570        27
44.580        40
44.590        13
44.600        13
44.610        13
44.620         0
44.630        20
44.640        20
44.650        20
44.660        33
44.670        13
44.680        27
44.690        13
44.700         7
44.710        13
44.720        13
44.730        13
44.740         7
44.750        13
44.760        27
44.770        20
44.780        27
44.790         7
44.800         7
44.810        20
44.820        27
44.830        33
44.840        53
44.850        20
44.860        27
44.870        40
44.880        13
44.890        20
44.900        40
44.910        33
44.920        27
44.930         7
44.940        20
44.950        20
44.960        27
44.970        13
44.980        20
44.990        33
45.000        27
45.010        20
45.020        33
45.030        40
45.040        13
45.050        20
45.060        33
45.070        27
45.080        33
45.090        20
45.100        20
45.110        33
45.120        33
45.130        13
45.140        20
45.150        20
45.160        27
45.170        20
45.180        13
45.190        13
45.200        40
45.210        13
45.220        33
45.230        40
45.240        47
45.250        33
45.260         7
45.270        13
45.280        20
45.290        13
45.300         7
45.310        27
45.320        27
45.330        13
45.340        27
45.350        20
45.360        27
45.370        27
45.380        20
45.390        13
45.400        27
45.410         7
45.420        60
45.430        40
45.440         7
45.450        20
45.460        20
45.470        40
45.480        20
45.490        33
45.500        33
45.510        13
45.520        40
45.530        33
45.540        13
45.550        27
45.560         7
45.570        60
45.580        13
45.590        27
45.600        27
45.610        27
45.620        47
45.630        33
45.640        47
45.650        60
45.660        47
45.670        47
45.680        40
45.690        67
45.700        47
45.710        47
45.720        33
45.730        40
45.740        33
45.750        33
45.760        60
45.770        47
45.780        60
45.790        80
45.800        27
45.810        53
45.820        53
45.830        40
45.840        73
45.850        93
45.860       100
45.870       107
45.880        87
45.890        80
45.900        40
45.910        73
45.920       107
45.930       160
45.940       120
45.950        87
45.960        80
45.970       120
45.980        87
45.990        47
46.000       147
46.010       127
46.020       113
46.030       133
46.040       167
46.050       113
46.060       187
46.070       107
46.080       140
46.090       133
46.100       113
46.110       180
46.120       120
46.130       127
46.140       187
46.150       133
46.160       147
46.170       140
46.180       147
46.190       147
46.200        53
46.210       153
46.220       167
46.230        93
46.240       133
46.250       113
46.260       187
46.270       107
46.280       153
46.290       120
46.300       100
46.310       107
46.320       147
46.330       113
46.340       100
46.350       120
46.360        87
46.370       140
46.380       107
46.390        73
46.400       100
46.410       100
46.420        87
46.430       100
46.440        93
46.450        93
46.460        80
46.470        67
46.480        80
46.490        60
46.500        47
46.510        60
46.520        73
46.530        67
46.540        53
46.550        47
46.560        60
46.570        60
46.580        40
46.590        67
46.600        53
46.610        60
46.620        40
46.630        53
46.640        40
46.650        20
46.660        40
46.670        53
46.680        27
46.690        53
46.700        33
46.710        27
46.720        60
46.730        40
46.740        53
46.750        80
46.760        60
46.770        27
46.780        33
46.790        47
46.800        27
46.810        47
46.820        20
46.830        40
46.840        27
46.850        20
46.860        13
46.870        40
46.880        20
46.890        47
46.900         7
46.910        13
46.920         7
46.930        13
46.940        20
46.950        20
46.960        20
46.970        20
46.980         7
46.990        20
47.000        20
47.010        13
47.020        33
47.030        13
47.040        13
47.050        20
47.060         7
47.070        13
47.080        27
47.090        27
47.100        27
47.110        13
47.120        13
47.130        20
47.140        33
47.150        40
47.160         7
47.170        20
47.180        33
47.190        33
47.200        27
47.210        40
47.220        20
47.230        20
47.240        20
47.250        40
47.260        20
47.270        13
47.280        13
47.290        13
47.300        20
47.310        20
47.320        33
47.330        13
47.340        13
47.350        20
47.360        13
47.370        13
47.380        27
47.390        27
47.400        13
47.410        33
47.420        20
47.430        40
47.440        13
47.450        20
47.460         7
47.470        13
47.480        40
47.490         7
47.500        20
47.510        20
47.520        27
47.530        20
47.540        33
47.550        20
47.560        20
47.570         7
47.580        13
47.590        33
47.600         0
47.610        13
47.620        27
47.630         7
47.640        20
47.650        20
47.660         7
47.670        13
47.680        13
47.690        27
47.700        13
47.710        20
47.720        40
47.730        13
47.740        13
47.750        20
47.760         7
47.770        20
47.780        13
47.790        33
47.800        20
47.810        13
47.820        13
47.830        47
47.840        33
47.850        20
47.860         0
47.870        13
47.880        13
47.890        33
47.900        27
47.910        13
47.920        13
47.930        27
47.940        13
47.950         7
47.960        20
47.970         7
47.980        20
47.990        40
48.000        40
48.010         7
48.020        13
48.030         7
48.040        13
48.050        13
48.060         7
48.070        33
48.080        20
48.090         7
48.100        13
48.110        20
48.120         0
48.130        27
48.140        33
48.150         7
48.160        27
48.170        13
48.180        13
48.190        13
48.200        27
48.210        33
48.220         7
48.230        20
48.240         7
48.250        20
48.260        13
48.270         7
48.280        13
48.290        33
48.300        40
48.310        13
48.320         7
48.330        40
48.340         0
48.350         7
48.360        20
48.370        13
48.380        13
48.390        13
48.400        20
48.410        33
48.420         7
48.430        27
48.440         0
48.450         7
48.460        20
48.470        33
48.480         7
48.490        33
48.500        20
48.510        13
48.520         7
48.530        13
48.540        13
48.550        60
48.560        40
48.570        20
48.580        13
48.590        20
48.600        27
48.610         0
48.620         7
48.630         7
48.640         7
48.650        27
48.660        20
48.670        33
48.680        27
48.690         7
48.700        20
48.710         0
48.720        20
48.730        13
48.740         0
48.750        27
48.760         0
48.770         0
48.780         7
48.790        13
48.800        20
48.810        27
48.820        27
48.830         7
48.840        13
48.850        13
48.860        13
48.870        13
48.880         7
48.890        20
48.900        20
48.910        33
48.920         0
48.930        27
48.940        13
48.950         7
48.960         0
48.970        20
48.980        20
48.990        13
49.000         7
49.010        33
49.020        33
49.030        33
49.040        13
49.050        13
49.060        20
49.070        27
49.080         0
49.090        13
49.100         7
49.110        20
49.120        20
49.130        13
49.140        13
49.150        20
49.160        27
49.170         7
49.180        13
49.190         7
49.200         7
49.210        27
49.220         7
49.230        20
49.240        27
49.250        40
49.260        47
49.270         0
49.280        27
49.290        20
49.300        27
49.310        13
49.320        13
49.330        33
49.340        27
49.350        13
49.360        27
49.370        40
49.380        13
49.390        20
49.400         7
49.410         7
49.420        40
49.430         7
49.440        27
49.450         0
49.460         7
49.470        27
49.480         7
49.490        27
49.500        13
49.510        13
49.520         7
49.530        13
49.540         7
49.550        13
49.560        40
49.570        20
49.580        20
49.590        20
49.600        47
49.610        20
49.620        27
49.630         7
49.640        40
49.650        20
49.660        33
49.670         7
49.680        20
49.690        13
49.700        13
49.710         7
49.720         7
49.730        20
49.740        27
49.750        20
49.760         7
49.770        13
49.780        20
49.790        13
49.800         0
49.810        47
49.820        20
49.830        13
49.840        47
49.850         7
49.860        47
49.870         7
49.880        33
49.890        13
49.900        20
49.910        33
49.920        27
49.930         0
49.940        20
49.950        27
49.960        13
49.970        13
49.980         7
49.990        20
50.000         7
50.010         7
50.020         0
50.030        20
50.040        20
50.050        40
50.060        27
50.070        33
50.080        13
50.090        27
50.100        27
50.110         0
50.120        33
50.130        20
50.140         0
50.150        47
50.160         7
50.170        13
50.180        20
50.190         0
50.200         7
50.210         7
50.220         0
50.230         0
50.240        20
50.250         7
50.260         7
50.270        27
50.280         7
50.290        13
50.300        13
50.310        27
50.320        13
50.330         7
50.340        13
50.350        20
50.360         7
50.370         7
50.380        27
50.390        13
50.400        20
50.410         7
50.420        20
50.430        20
50.440         0
50.450        13
50.460        13
50.470         0
50.480        13
50.490         7
50.500        20
50.510        20
50.520        13
50.530        40
50.540        27
50.550        13
50.560        13
50.570        13
50.580        27
50.590         7
50.600        13
50.610        20
50.620        13
50.630        33
50.640        27
50.650        13
50.660        27
50.670        13
50.680         0
50.690         7
50.700        13
50.710        13
50.720        27
50.730        20
50.740        27
50.750        40
50.760        13
50.770        20
50.780        20
50.790         7
50.800        13
50.810         7
50.820         0
50.830        27
50.840        13
50.850        20
50.860        27
50.870        33
50.880        20
50.890         7
50.900         0
50.910        27
50.920         7
50.930        33
50.940         7
50.950        13
50.960        20
50.970         7
50.980        20
50.990        20
51.000        27
51.010        27
51.020        13
51.030        13
51.040        27
51.050         0
51.060        20
51.070        27
51.080        47
51.090        13
51.100         7
51.110        27
51.120         7
51.130        13
51.140        13
51.150         7
51.160         7
51.170         7
51.180        27
51.190        20
51.200        20
51.210        13
51.220        27
51.230         7
51.240        13
51.250         0
51.260        13
51.270        33
51.280         7
51.290         7
51.300         7
51.310         7
51.320        27
51.330        20
51.340         7
51.350        13
51.360        27
51.370         7
51.380         7
51.390        27
51.400         7
51.410        20
51.420        27
51.430         7
51.440        20
51.450        13
51.460        20
51.470        20
51.480        20
51.490        20
51.500        27
51.510        20
51.520         0
51.530        27
51.540        33
51.550        20
51.560        27
51.570        33
51.580         7
51.590        27
51.600        13
51.610        13
51.620        33
51.630        33
51.640        13
51.650         7
51.660        27
51.670        13
51.680        33
51.690        13
51.700        13
51.710        13
51.720        40
51.730        20
51.740        13
51.750        20
51.760         0
51.770        20
51.780        13
51.790         7
51.800         7
51.810         0
51.820         7
51.830        13
51.840        33
51.850        13
51.860        40
51.870        13
51.880        20
51.890        33
51.900        20
51.910        20
51.920        20
51.930        33
51.940         7
51.950        33
51.960        27
51.970        13
51.980        33
51.990         7
52.000        27
52.010        13
52.020        53
52.030        27
52.040         7
52.050        20
52.060        13
52.070         0
52.080        20
52.090         7
52.100        20
52.110        13
52.120        13
52.130        13
52.140        13
52.150        20
52.160         7
52.170         7
52.180        20
52.190        20
52.200        13
52.210        13
52.220        33
52.230        33
52.240         7
52.250        20
52.260        13
52.270        20
52.280        20
52.290        20
52.300        27
52.310         7
52.320        27
52.330        33
52.340         7
52.350         7
52.360        33
52.370        20
52.380        13
52.390         0
52.400        33
52.410        27
52.420        27
52.430        20
52.440        60
52.450        27
52.460        20
52.470        13
52.480        40
52.490        33
52.500        40
52.510        73
52.520        73
52.530        67
52.540        73
52.550       113
52.560       120
52.570       147
52.580       100
52.590       140
52.600       153
52.610       147
52.620       113
52.630       120
52.640       120
52.650        93
52.660        53
52.670        73
52.680        73
52.690        80
52.700        67
52.710       100
52.720       120
52.730       113
52.740        87
52.750       107
52.760       100
52.770        67
52.780        20
52.790        47
52.800        20
52.810        40
52.820        13
52.830         7
52.840        13
52.850        13
52.860        27
52.870         7
52.880        20
52.890         7
52.900        27
52.910        20
52.920        13
52.930        20
52.940         0
52.950        20
52.960         7
52.970        13
52.980        13
52.990         7
53.000        13
53.010        13
53.020        20
53.030        13
53.040        20
53.050        13
53.060         0
53.070        33
53.080         7
53.090        20
53.100        13
53.110        27
53.120        20
53.130         0
53.140         0
53.150         0
53.160        13
53.170        13
53.180        13
53.190        13
53.200        13
53.210         7
53.220         0
53.230        13
53.240         0
53.250        13
53.260         7
53.270        13
53.280        27
53.290         7
53.300        13
53.310        13
53.320         7
53.330        13
53.340        13
53.350        13
53.360         7
53.370         7
53.380         7
53.390         7
53.400        13
53.410        27
53.420        13
53.430        20
53.440        13
53.450        33
53.460         7
53.470        13
53.480        13
53.490         7
53.500         0
53.510        20
53.520         0
53.530        27
53.540         0
53.550        13
53.560         7
53.570        13
53.580         7
53.590        20
53.600        13
53.610        13
53.620         0
53.630        13
53.640         7
53.650         0
53.660        20
53.670         7
53.680        20
53.690        20
53.700         7
53.710         0
53.720        13
53.730        40
53.740         7
53.750        20
53.760        20
53.770         0
53.780        27
53.790        33
53.800         0
53.810         0
53.820        13
53.830        20
53.840        20
53.850         0
53.860        13
53.870         0
53.880         7
53.890        13
53.900         7
53.910        20
53.920        47
53.930        20
53.940        27
53.950        13
53.960        13
53.970        13
53.980         0
53.990        20
54.000        13
54.010         0
54.020        13
54.030        13
54.040        20
54.050        20
54.060        13
54.070         0
54.080        13
54.090        27
54.100        13
54.110        13
54.120        13
54.130        13
54.140         0
54.150         7
54.160        20
54.170        13
54.180        20
54.190        13
54.200        20
54.210        40
54.220        33
54.230        20
54.240        13
54.250        20
54.260        13
54.270        13
54.280        13
54.290         7
54.300        27
54.310        20
54.320        20
54.330        20
54.340         7
54.350        20
54.360        13
54.370        13
54.380        20
54.390         7
54.400         7
54.410         7
54.420         7
54.430        13
54.440        20
54.450         7
54.460        13
54.470        13
54.480        13
54.490        20
54.500         0
54.510        27
54.520        13
54.530         0
54.540        20
54.550        20
54.560        13
54.570        13
54.580        13
54.590        13
54.600         0
54.610         7
54.620        33
54.630        27
54.640         7
54.650        13
54.660        13
54.670         7
54.680         0
54.690         0
54.700        13
54.710        13
54.720         7
54.730        40
54.740         7
54.750        13
54.760         0
54.770        27
54.780         7
54.790         7
54.800         7
54.810        20
54.820        33
54.830         0
54.840        27
54.850         0
54.860        13
54.870        40
54.880        27
54.890        33
54.900        20
54.910         7
54.920        40
54.930        27
54.940        33
54.950         7
54.960        20
54.970         0
54.980        27
54.990         0
55.000         7
55.010         0
55.020         7
55.030         7
55.040         0
55.050        20
55.060         7
55.070         0
55.080         7
55.090        27
55.100         7
55.110         0
55.120        13
55.130        27
55.140        20
55.150         0
55.160         0
55.170        13
55.180        27
55.190        20
55.200         7
55.210        13
55.220         7
55.230        13
55.240        13
55.250        27
55.260        20
55.270        13
55.280         0
55.290        27
55.300        27
55.310        20
55.320         7
55.330        20
55.340        27
55.350        20
55.360        33
55.370        20
55.380        13
55.390        33
55.400        13
55.410        33
55.420        20
55.430        13
55.440        20
55.450         7
55.460        20
55.470        13
55.480        20
55.490        33
55.500        27
55.510         7
55.520        13
55.530        20
55.540        13
55.550        20
55.560        13
55.570        20
55.580         7
55.590         7
55.600         0
55.610        13
55.620        40
55.630         0
55.640         7
55.650        27
55.660        40
55.670        13
55.680        20
55.690        13
55.700        33
55.710        20
55.720        20
55.730         0
55.740        27
55.750         7
55.760         7
55.770        20
55.780        33
55.790        13
55.800        13
55.810         0
55.820         7
55.830        20
55.840        33
55.850        13
55.860         7
55.870        33
55.880         0
55.890         7
55.900        27
55.910         7
55.920        13
55.930        13
55.940         0
55.950        13
55.960         0
55.970        20
55.980        20
55.990        27
56.000        13
56.010        27
56.020        13
56.030        33
56.040        20
56.050        20
56.060        13
56.070        27
56.080        20
56.090        33
56.100        13
56.110        40
56.120        33
56.130        27
56.140        27
56.150        13
56.160         7
56.170        20
56.180        27
56.190         7
56.200         0
56.210        13
56.220        27
56.230        13
56.240         7
56.250        13
56.260        20
56.270        20
56.280        40
56.290         7
56.300         7
56.310        13
56.320        27
56.330         0
56.340        33
56.350        27
56.360        13
56.370        13
56.380         7
56.390        27
56.400         7
56.410        40
56.420        20
56.430         0
56.440         0
56.450        20
56.460        13
56.470         0
56.480         7
56.490        13
56.500         7
56.510        20
56.520        20
56.530        20
56.540         7
56.550        40
56.560        13
56.570        13
56.580        13
56.590        20
56.600        13
56.610        20
56.620         7
56.630         0
56.640         7
56.650        20
56.660        33
56.670         7
56.680        13
56.690        13
56.700         7
56.710        20
56.720         0
56.730        27
56.740        13
56.750        13
56.760         7
56.770        27
56.780         7
56.790        13
56.800        13
56.810         7
56.820        40
56.830         7
56.840         7
56.850        20
56.860        13
56.870        33
56.880        33
56.890         7
56.900         7
56.910         7
56.920         7
56.930        13
56.940        20
56.950        20
56.960        20
56.970        27
56.980        27
56.990        47
57.000        27
57.010        27
57.020         0
57.030        20
57.040         0
57.050        13
57.060        20
57.070        33
57.080        20
57.090         7
57.100        27
57.110        13
57.120        27
57.130        20
57.140        20
57.150        13
57.160        33
57.170        13
57.180        20
57.190        47
57.200        27
57.210        27
57.220        33
57.230        53
57.240        73
57.250        40
57.260        73
57.270        47
57.280        27
57.290        80
57.300        40
57.310        60
57.320        87
57.330        93
57.340       120
57.350        60
57.360        53
57.370        87
57.380        80
57.390       127
57.400        80
57.410       107
57.420       167
57.430       213
57.440       360
57.450       460
57.460       440
57.470       546
57.480       580
57.490       760
57.500       726
57.510      1126
57.520       933
57.530      1026
57.540       920
57.550       933
57.560       793
57.570       680
57.580       446
57.590       340
57.600       360
57.610       313
57.620       267
57.630       413
57.640       407
57.650       413
57.660       493
57.670       513
57.680       540
57.690       573
57.700       407
57.710       413
57.720       400
57.730       240
57.740       173
57.750       140
57.760       140
57.770       100
57.780        67
57.790        53
57.800        27
57.810        27
57.820        87
57.830        27
57.840        40
57.850        33
57.860        27
57.870        20
57.880         7
57.890        40
57.900        27
57.910        33
57.920        13
57.930        33
57.940        20
57.950        27
57.960        13
57.970        20
57.980        13
57.990        20
58.000        20
58.010         7
58.020        13
58.030        27
58.040        27
58.050        20
58.060        27
58.070         7
58.080        20
58.090        27
58.100        20
58.110        27
58.120        20
58.130         0
58.140        20
58.150         7
58.160        13
58.170        13
58.180        27
58.190        27
58.200        13
58.210         7
58.220        20
58.230        27
58.240         0
58.250        13
58.260         7
58.270        13
58.280         0
58.290         0
58.300        33
58.310        20
58.320         7
58.330        13
58.340         7
58.350        20
58.360        27
58.370        20
58.380        27
58.390         7
58.400        13
58.410         7
58.420        33
58.430        20
58.440        20
58.450        33
58.460        13
58.470        20
58.480        40
58.490        13
58.500        13
58.510        20
58.520        13
58.530         0
58.540        13
58.550        13
58.560        20
58.570        13
58.580        13
58.590        13
58.600         7
58.610        20
58.620        13
58.630        27
58.640         7
58.650         7
58.660         7
58.670         7
58.680         7
58.690         0
58.700        13
58.710        13
58.720         7
58.730        33
58.740        13
58.750         0
58.760        20
58.770         0
58.780         0
58.790         7
58.800        13
58.810        33
58.820         0
58.830         7
58.840        13
58.850         7
58.860        20
58.870        27
58.880         0
58.890         7
58.900        27
58.910         0
58.920        13
58.930        13
58.940        20
58.950        20
58.960        20
58.970        13
58.980        13
58.990        13
59.000        27
59.010        20
59.020        27
59.030        27
59.040        33
59.050         0
59.060        40
59.070        27
59.080        13
59.090         0
59.100         7
59.110         0
59.120         0
59.130        20
59.140        20
59.150         7
59.160         0
59.170        20
59.180        33
59.190        33
59.200        13
59.210        27
59.220        20
59.230         0
59.240        20
59.250         7
59.260        13
59.270        13
59.280         7
59.290         0
59.300        20
59.310        13
59.320        13
59.330        27
59.340         7
59.350        13
59.360        27
59.370        13
59.380        13
59.390        20
59.400        20
59.410        13
59.420        40
59.430        20
59.440        13
59.450         7
59.460         7
59.470         7
59.480         7
59.490        27
59.500         7
59.510         7
59.520        13
59.530        13
59.540        13
59.550        33
59.560        20
59.570         0
59.580         7
59.590         0
59.600        27
59.610        13
59.620         0
59.630        13
59.640         7
59.650        20
59.660         7
59.670        20
59.680         7
59.690        13
59.700        40
59.710         7
59.720        13
59.730         7
59.740        53
59.750        27
59.760        20
59.770        13
59.780         7
59.790        53
59.800        20
59.810         7
59.820         0
59.830         7
59.840        40
59.850         7
59.860        13
59.870         7
59.880        20
59.890         7
59.900        33
59.910        27
59.920        20
59.930         0
59.940        27
59.950         7
59.960         7
59.970        27
59.980        20
59.990         0
60.000         0
