20.000        60
20.010        53
20.020        33
20.030        53
20.040        53
20.050        40
20.060        67
20.070        53
20.080        53
20.090         0
20.100        67
20.110        87
20.120        47
20.130        67
20.140        40
20.150        40
20.160        40
20.170        80
20.180        47
20.190        60
20.200        40
20.210        93
20.220        73
20.230        60
20.240        47
20.250        60
20.260        53
20.270        60
20.280        67
20.290        53
20.300        60
20.310        53
20.320        47
20.330        87
20.340        67
20.350        80
20.360        20
20.370        27
20.380        53
20.390        40
20.400         7
20.410        80
20.420        87
20.430        53
20.440        13
20.450        67
20.460        47
20.470        40
20.480        40
20.490        73
20.500        47
20.510        27
20.520        40
20.530        40
20.540        40
20.550        33
20.560        40
20.570        33
20.580        60
20.590        33
20.600        20
20.610        47
20.620        53
20.630       107
20.640        60
20.650        80
20.660        73
20.670        53
20.680        73
20.690        60
20.700        33
20.710        40
20.720        67
20.730        53
20.740        47
20.750        53
20.760        53
20.770        60
20.780        60
20.790        27
20.800        33
20.810        53
20.820        33
20.830        47
20.840        87
20.850        80
20.860        20
20.870        60
20.880        60
20.890        47
20.900        73
20.910        33
20.920        40
20.930        47
20.940        73
20.950        73
20.960        53
20.970        40
20.980        33
20.990        33
21.000        60
21.010        73
21.020        33
21.030        73
21.040        53
21.050        73
21.060        53
21.070        40
21.080        67
21.090        33
21.100        47
21.110        67
21.120        73
21.130        53
21.140        47
21.150        40
21.160        40
21.170        47
21.180        33
21.190        40
21.200        67
21.210        33
21.220        33
21.230        60
21.240        53
21.250        60
21.260        67
21.270        40
21.280        53
21.290        53
21.300        40
21.310        47
21.320        47
21.330        13
21.340        27
21.350        47
21.360        27
21.370        73
21.380        40
21.390        33
21.400        40
21.410        40
21.420        47
21.430        27
21.440        20
21.450        67
21.460        47
21.470        60
21.480        33
21.490        60
21.500        60
21.510        40
21.520        33
21.530        47
21.540        80
21.550        53
21.560        33
21.570        20
21.580        60
21.590        47
21.600        27
21.610        47
21.620        53
21.630        40
21.640        47
21.650        80
21.660        67
21.670        73
21.680        67
21.690        33
21.700        33
21.710        53
21.720        33
21.730        47
21.740        73
21.750        40
21.760        53
21.770        47
21.780        27
21.790        53
21.800        20
21.810        67
21.820        40
21.830        67
21.840        47
21.850        27
21.860        67
21.870        53
21.880        47
21.890        33
21.900        33
21.910        33
21.920        40
21.930        67
21.940        60
21.950        67
21.960        67
21.970        47
21.980        40
21.990        53
22.000        27
22.010        60
22.020        20
22.030        53
22.040        47
22.050        53
22.060        53
22.070        93
22.080        60
22.090        20
22.100        47
22.110        27
22.120        47
22.130        53
22.140        47
22.150        47
22.160        60
22.170        20
22.180        27
22.190        53
22.200        47
22.210        20
22.220        33
22.230        33
22.240        53
22.250        53
22.260        73
22.270        47
22.280        47
22.290        60
22.300        80
22.310        40
22.320        67
22.330        47
22.340        53
22.350        60
22.360        27
22.370        27
22.380        47
22.390        33
22.400        33
22.410        40
22.420        60
22.430        20
22.440        53
22.450        60
22.460        53
22.470        20
22.480        40
22.490        27
22.500        40
22.510        40
22.520        13
22.530        40
22.540        47
22.550        53
22.560       100
22.570        60
22.580        47
22.590        73
22.600        87
22.610        73
22.620        93
22.630        73
22.640        53
22.650       140
22.660        73
22.670        27
22.680        60
22.690       133
22.700        67
22.710        80
22.720        93
22.730        73
22.740        67
22.750        93
22.760        67
22.770        40
22.780        53
22.790        53
22.800        60
22.810        40
22.820        20
22.830        27
22.840        40
22.850        87
22.860        67
22.870        60
22.880        73
22.890        27
22.900        33
22.910        53
22.920        60
22.930        67
22.940        67
22.950        47
22.960        73
22.970        20
22.980        47
22.990        47
23.000        40
23.010        47
23.020        60
23.030        60
23.040        33
23.050        20
23.060        60
23.070        47
23.080        20
23.090        93
23.100        40
23.110        20
23.120        33
23.130        40
23.140        80
23.150        47
23.160        53
23.170        40
23.180        40
23.190        20
23.200        33
23.210        60
23.220        20
23.230        33
23.240        60
23.250        60
23.260        27
23.270        27
23.280        13
23.290        33
23.300        60
23.310        13
23.320        20
23.330        40
23.340        73
23.350        60
23.360        27
23.370        60
23.380        33
23.390        47
23.400        40
23.410        33
23.420        60
23.430        53
23.440        47
23.450        67
23.460        40
23.470        33
23.480        33
23.490        27
23.500        13
23.510        20
23.520        40
23.530        33
23.540        27
23.550        53
23.560        40
23.570        33
23.580        47
23.590        47
23.600        67
23.610        47
23.620        60
23.630         7
23.640        47
23.650        33
23.660        47
23.670        80
23.680        40
23.690        33
23.700        47
23.710        47
23.720        40
23.730        33
23.740        47
23.750        33
23.760        47
23.770        47
23.780        53
23.790        80
23.800        40
23.810        27
23.820        87
23.830        40
23.840        67
23.850        47
23.860        47
23.870        33
23.880        40
23.890        53
23.900        20
23.910        20
23.920        47
23.930        40
23.940        47
23.950        40
23.960        40
23.970        53
23.980        20
23.990        60
24.000        33
24.010        47
24.020        73
24.030        13
24.040        13
24.050        20
24.060        27
24.070        53
24.080        40
24.090        13
24.100        20
24.110        33
24.120        33
24.130        27
24.140        47
24.150        33
24.160        53
24.170        47
24.180        13
24.190        33
24.200        27
24.210        27
24.220        33
24.230        47
24.240        40
24.250        53
24.260        60
24.270        40
24.280        33
24.290        13
24.300        67
24.310        33
24.320        53
24.330        47
24.340        33
24.350        27
24.360        60
24.370        33
24.380        20
24.390        67
24.400        53
24.410        40
24.420        60
24.430        47
24.440        20
24.450        33
24.460        40
24.470        53
24.480        13
24.490        27
24.500        40
24.510        33
24.520        67
24.530        73
24.540        47
24.550        33
24.560        60
24.570        40
24.580        47
24.590        47
24.600        27
24.610        60
24.620        47
24.630        27
24.640        40
24.650        53
24.660       113
24.670        60
24.680        67
24.690        40
24.700        67
24.710        47
24.720        47
24.730        33
24.740        60
24.750        20
24.760        20
24.770        40
24.780        67
24.790        33
24.800        47
24.810        67
24.820        67
24.830        33
24.840        33
24.850        27
24.860        33
24.870        67
24.880        53
24.890        40
24.900        40
24.910        47
24.920        60
24.930        60
24.940        27
24.950        20
24.960        40
24.970        33
24.980        40
24.990        40
25.000        47
25.010        33
25.020        67
25.030        60
25.040        33
25.050        67
25.060        67
25.070        33
25.080        47
25.090        27
25.100        40
25.110        47
25.120        53
25.130        47
25.140        53
25.150        47
25.160        27
25.170        40
25.180        40
25.190        20
25.200        40
25.210        53
25.220        33
25.230        27
25.240        27
25.250        53
25.260        33
25.270        60
25.280        40
25.290        53
25.300        60
25.310        47
25.320        93
25.330        40
25.340        27
25.350       100
25.360        60
25.370        73
25.380        53
25.390        60
25.400        73
25.410       113
25.420       127
25.430       100
25.440       193
25.450       153
25.460       173
25.470       133
25.480       167
25.490       133
25.500       173
25.510        93
25.520       160
25.530        73
25.540        87
25.550       100
25.560        47
25.570        53
25.580        53
25.590        60
25.600        47
25.610        40
25.620        73
25.630        60
25.640        40
25.650        13
25.660        13
25.670        40
25.680        47
25.690        60
25.700        40
25.710        33
25.720        27
25.730        40
25.740        33
25.750        33
25.760        67
25.770        67
25.780        60
25.790        27
25.800        33
25.810        40
25.820        47
25.830        27
25.840        53
25.850        20
25.860        73
25.870        53
25.880        67
25.890        33
25.900        53
25.910        27
25.920        27
25.930        73
25.940        40
25.950        33
25.960        33
25.970        47
25.980        60
25.990        47
26.000        53
26.010        40
26.020        47
26.030        67
26.040        40
26.050        27
26.060        53
26.070        53
26.080        47
26.090        60
26.100        40
26.110        53
26.120        53
26.130        80
26.140        80
26.150        27
26.160        13
26.170        13
26.180        47
26.190        27
26.200        47
26.210        27
26.220        13
26.230        40
26.240        53
26.250        33
26.260        60
26.270        20
26.280        27
26.290        80
26.300        13
26.310        40
26.320        40
26.330        47
26.340        40
26.350        33
26.360        47
26.370        33
26.380        60
26.390        27
26.400        13
26.410        40
26.420        33
26.430        33
26.440        27
26.450        40
26.460        33
26.470        40
26.480        40
26.490        53
26.500        27
26.510        53
26.520        67
26.530        53
26.540        20
26.550        20
26.560        33
26.570        20
26.580        13
26.590        53
26.600        40
26.610        53
26.620        53
26.630        27
26.640        27
26.650        67
26.660        73
26.670        40
26.680        47
26.690        33
26.700        53
26.710        40
26.720        60
26.730        33
26.740        13
26.750        20
26.760        60
26.770        47
26.780        80
26.790        53
26.800        53
26.810        53
26.820        40
26.830        80
26.840        27
26.850        40
26.860        33
26.870        20
26.880        13
26.890        60
26.900        27
26.910        53
26.920        40
26.930        40
26.940        27
26.950        13
26.960        60
26.970        27
26.980        13
26.990        20
27.000        67
27.010        47
27.020        27
27.030        47
27.040        53
27.050        47
27.060        33
27.070        47
27.080        33
27.090        27
27.100        60
27.110        20
27.120        47
27.130        20
27.140         7
27.150        73
27.160        47
27.170        40
27.180        47
27.190        53
27.200        73
27.210        20
27.220        20
27.230        13
27.240        47
27.250        47
27.260        20
27.270        40
27.280        33
27.290        60
27.300        33
27.310        40
27.320        47
27.330        60
27.340         7
27.350        13
27.360        33
27.370         7
27.380        33
27.390        60
27.400        20
27.410        40
27.420        60
27.430        27
27.440        33
27.450        27
27.460        33
27.470        20
27.480        47
27.490        27
27.500        33
27.510        33
27.520        13
27.530        33
27.540        20
27.550        40
27.560        13
27.570        20
27.580        27
27.590        20
27.600        40
27.610        20
27.620        47
27.630        40
27.640        60
27.650        33
27.660        53
27.670        13
27.680        60
27.690        13
27.700        53
27.710        13
27.720        33
27.730        53
27.740        27
27.750         7
27.760        33
27.770        40
27.780        33
27.790        27
27.800        13
27.810        40
27.820        80
27.830        33
27.840        47
27.850        27
27.860        13
27.870        40
27.880        40
27.890        13
27.900        73
27.910        13
27.920        33
27.930        33
27.940        33
27.950        33
27.960        33
27.970        60
27.980        33
27.990        67
28.000        20
28.010        13
28.020        13
28.030        60
28.040        47
28.050        60
28.060        20
28.070        27
28.080        27
28.090        60
28.100        20
28.110        47
28.120        27
28.130        33
28.140        13
28.150        20
28.160        20
28.170        13
28.180        27
28.190        40
28.200        60
28.210        33
28.220        47
28.230        60
28.240        20
28.250        27
28.260        40
28.270        27
28.280        47
28.290        47
28.300        33
28.310        33
28.320        33
28.330        53
28.340        40
28.350        40
28.360        27
28.370        27
28.380        20
28.390        47
28.400        20
28.410        40
28.420        47
28.430        20
28.440        20
28.450        20
28.460        27
28.470        40
28.480         0
28.490        20
28.500        60
28.510        27
28.520         7
28.530        33
28.540        20
28.550         0
28.560        40
28.570        73
28.580        47
28.590        33
28.600        47
28.610        33
28.620        47
28.630        33
28.640        13
28.650        33
28.660        33
28.670        40
28.680        27
28.690        33
28.700        20
28.710         0
28.720        53
28.730        27
28.740        73
28.750        13
28.760        40
28.770        47
28.780        20
28.790        13
28.800        33
28.810        40
28.820        87
28.830        40
28.840        27
28.850        60
28.860        53
28.870        40
28.880        47
28.890        40
28.900        40
28.910        27
28.920         7
28.930        33
28.940         7
28.950        40
28.960        13
28.970        33
28.980        33
28.990        20
29.000        47
29.010        53
29.020        33
29.030        60
29.040        40
29.050        47
29.060        60
29.070        67
29.080        53
29.090        60
29.100        20
29.110        73
29.120        20
29.130        33
29.140        87
29.150        13
29.160        40
29.170        33
29.180        27
29.190        40
29.200        20
29.210        40
29.220        27
29.230        47
29.240        53
29.250        33
29.260        20
29.270         7
29.280        20
29.290        47
29.300        33
29.310        20
29.320        27
29.330         7
29.340        40
29.350        13
29.360        47
29.370        47
29.380        20
29.390        27
29.400        27
29.410        27
29.420        47
29.430        67
29.440        27
29.450        53
29.460        33
29.470        27
29.480        47
29.490        33
29.500        40
29.510        33
29.520        40
29.530        40
29.540        20
29.550        27
29.560        20
29.570        33
29.580        47
29.590        20
29.600        27
29.610        20
29.620        33
29.630        53
29.640        20
29.650         7
29.660        40
29.670        13
29.680        27
29.690        40
29.700        67
29.710        47
29.720        13
29.730        67
29.740        53
29.750        40
29.760        53
29.770        33
29.780        53
29.790        33
29.800        13
29.810        80
29.820        27
29.830        27
29.840        27
29.850        13
29.860        27
29.870        40
29.880        67
29.890        47
29.900        33
29.910        33
29.920        40
29.930        67
29.940        33
29.950        47
29.960        27
29.970        33
29.980        20
29.990        47
30.000        40
30.010        13
30.020        33
30.030        47
30.040        13
30.050        40
30.060        60
30.070        27
30.080        40
30.090        27
30.100        20
30.110        20
30.120        33
30.130        13
30.140        20
30.150        27
30.160        33
30.170        20
30.180         7
30.190        20
30.200        33
30.210        47
30.220        73
30.230        40
30.240        27
30.250        20
30.260        47
30.270        40
30.280        20
30.290        13
30.300        53
30.310         7
30.320        40
30.330        40
30.340        60
30.350         7
30.360        47
30.370        13
30.380        40
30.390        53
30.400        53
30.410        27
30.420        53
30.430        27
30.440        27
30.450        13
30.460        80
30.470        20
30.480        40
30.490        40
30.500        40
30.510        33
30.520        47
30.530        47
30.540        40
30.550        33
30.560        33
30.570        40
30.580        40
30.590        27
30.600        53
30.610        33
30.620        27
30.630        13
30.640        13
30.650        27
30.660        20
30.670        27
30.680        47
30.690         7
30.700        60
30.710         7
30.720        20
30.730        20
30.740        47
30.750        27
30.760        27
30.770        13
30.780        40
30.790        33
30.800        53
30.810        53
30.820        40
30.830        40
30.840        53
30.850        33
30.860        20
30.870        20
30.880        27
30.890        20
30.900        20
30.910        40
30.920        33
30.930        27
30.940        20
30.950         7
30.960        47
30.970        40
30.980        40
30.990        13
31.000        20
31.010        87
31.020        47
31.030        13
31.040         7
31.050        47
31.060        53
31.070        60
31.080         0
31.090        20
31.100        27
31.110        33
31.120        47
31.130        67
31.140        27
31.150         7
31.160         7
31.170        60
31.180        53
31.190        33
31.200        13
31.210        33
31.220        20
31.230        33
31.240        13
31.250        47
31.260        20
31.270        47
31.280        33
31.290        27
31.300        27
31.310        27
31.320        47
31.330        40
31.340        53
31.350        33
31.360        13
31.370        53
31.380        27
31.390        47
31.400        80
31.410        33
31.420        40
31.430        27
31.440        20
31.450        33
31.460        93
31.470        40
31.480        27
31.490        27
31.500        47
31.510        27
31.520        27
31.530        20
31.540        47
31.550        73
31.560        40
31.570        40
31.580        47
31.590        33
31.600        20
31.610        47
31.620        47
31.630        33
31.640        27
31.650        53
31.660        40
31.670        20
31.680        33
31.690        40
31.700        20
31.710        27
31.720        60
31.730        53
31.740        47
31.750        40
31.760        53
31.770        13
31.780        40
31.790        53
31.800        20
31.810        27
31.820        53
31.830        53
31.840        40
31.850        67
31.860        53
31.870        27
31.880        60
31.890        47
31.900        73
31.910        47
31.920        60
31.930        40
31.940        33
31.950        67
31.960        27
31.970        40
31.980        67
31.990        53
32.000        33
32.010        47
32.020        33
32.030        87
32.040        53
32.050       133
32.060       127
32.070        93
32.080       120
32.090       160
32.100       113
32.110       147
32.120       193
32.130       233
32.140       153
32.150       260
32.160       213
32.170       280
32.180       287
32.190       373
32.200       387
32.210       540
32.220       500
32.230       606
32.240       633
32.250       753
32.260       706
32.270      1033
32.280       993
32.290      1246
32.300      1319
32.310      1446
32.320      1433
32.330      1606
32.340      1273
32.350      1399
32.360      1446
32.370      1346
32.380      1193
32.390      1226
32.400      1006
32.410      1066
32.420       953
32.430       866
32.440       800
32.450       606
32.460       600
32.470       446
32.480       480
32.490       360
32.500       300
32.510       287
32.520       253
32.530       167
32.540       240
32.550       133
32.560       167
32.570       113
32.580        47
32.590       113
32.600       107
32.610        53
32.620        93
32.630       100
32.640        47
32.650        13
32.660        47
32.670        73
32.680        53
32.690        87
32.700        73
32.710        73
32.720        53
32.730        53
32.740        40
32.750        67
32.760        27
32.770        53
32.780        60
32.790        40
32.800        60
32.810        47
32.820        40
32.830        40
32.840        20
32.850        33
32.860        33
32.870        47
32.880        20
32.890        60
32.900        53
32.910        53
32.920        47
32.930        60
32.940        27
32.950        53
32.960        53
32.970        33
32.980        33
32.990        73
33.000        33
33.010         7
33.020        47
33.030        33
33.040        67
33.050        67
33.060        33
33.070        40
33.080        33
33.090        47
33.100        27
33.110        47
33.120        40
33.130        27
33.140        60
33.150        33
33.160        27
33.170        20
33.180        20
33.190        40
33.200        27
33.210        33
33.220        27
33.230        53
33.240        53
33.250        20
33.260        40
33.270        20
33.280        13
33.290        20
33.300         7
33.310        40
33.320        27
33.330        33
33.340        40
33.350        40
33.360        47
33.370        53
33.380        53
33.390        73
33.400        27
33.410        40
33.420        47
33.430        33
33.440        27
33.450        40
33.460        40
33.470        53
33.480        47
33.490        33
33.500        13
33.510        27
33.520        53
33.530        60
33.540        40
33.550        47
33.560        40
33.570        27
33.580        27
33.590        33
33.600        20
33.610        27
33.620        33
33.630        60
33.640        60
33.650        20
33.660        33
33.670        33
33.680        60
33.690        27
33.700        13
33.710        40
33.720        33
33.730        40
33.740        20
33.750        20
33.760        33
33.770        20
33.780        20
33.790        80
33.800        67
33.810        33
33.820        80
33.830        80
33.840        27
33.850        33
33.860        53
33.870        20
33.880        27
33.890        53
33.900        47
33.910        20
33.920        13
33.930        27
33.940        33
33.950        47
33.960        40
33.970        40
33.980        20
33.990        53
34.000        47
34.010        33
34.020        13
34.030        40
34.040        40
34.050        40
34.060        20
34.070        33
34.080        27
34.090        47
34.100        40
34.110        27
34.120        27
34.130        27
34.140        27
34.150        33
34.160        20
34.170        47
34.180        27
34.190        27
34.200        40
34.210        53
34.220        13
34.230        20
34.240        27
34.250        60
34.260        47
34.270        27
34.280         0
34.290        47
34.300        73
34.310        13
34.320        27
34.330        13
34.340        40
34.350        53
34.360        27
34.370        47
34.380        40
34.390        47
34.400        20
34.410        27
34.420        33
34.430        20
34.440        27
34.450        33
34.460        20
34.470        27
34.480        20
34.490        27
34.500        67
34.510        47
34.520        33
34.530        47
34.540        40
34.550        27
34.560        27
34.570        20
34.580        33
34.590        60
34.600        13
34.610        27
34.620        33
34.630        27
34.640        20
34.650        40
34.660        27
34.670        40
34.680        20
34.690        33
34.700        20
34.710        13
34.720        40
34.730        47
34.740        27
34.750        53
34.760        27
34.770        13
34.780        40
34.790        47
34.800        47
34.810        27
34.820        33
34.830        60
34.840        27
34.850        33
34.860        27
34.870        40
34.880        47
34.890        67
34.900        93
34.910        80
34.920        80
34.930        60
34.940        87
34.950        60
34.960        60
34.970        87
34.980        67
34.990        60
35.000        67
35.010       107
35.020       127
35.030       127
35.040       160
35.050       140
35.060        87
35.070       120
35.080       207
35.090       107
35.100       160
35.110       147
35.120       140
35.130       120
35.140       113
35.150        93
35.160       113
35.170       107
35.180        80
35.190       100
35.200        53
35.210        73
35.220        60
35.230        40
35.240        60
35.250        20
35.260        33
35.270        47
35.280        33
35.290        67
35.300        33
35.310        20
35.320        20
35.330         7
35.340        53
35.350        47
35.360        67
35.370        47
35.380         7
35.390        20
35.400        13
35.410        13
35.420        33
35.430        20
35.440        20
35.450        47
35.460        47
35.470        20
35.480        47
35.490        20
35.500        27
35.510        27
35.520        33
35.530        40
35.540         7
35.550        20
35.560        13
35.570        33
35.580        47
35.590        20
35.600         7
35.610        27
35.620        27
35.630        20
35.640        47
35.650        53
35.660        47
35.670        40
35.680        20
35.690        13
35.700        33
35.710        20
35.720        20
35.730        40
35.740        53
35.750        20
35.760        33
35.770        20
35.780         0
35.790        40
35.800        20
35.810        47
35.820        40
35.830        27
35.840        40
35.850        27
35.860        27
35.870        33
35.880        20
35.890        47
35.900        33
35.910        20
35.920         7
35.930        53
35.940        40
35.950        27
35.960        27
35.970        13
35.980        13
35.990        33
36.000        47
36.010        33
36.020        20
36.030        33
36.040        20
36.050        27
36.060        27
36.070         7
36.080        20
36.090        40
36.100        33
36.110        33
36.120        53
36.130        33
36.140        27
36.150        47
36.160        33
36.170        20
36.180        33
36.190        67
36.200        47
36.210        27
36.220        13
36.230        60
36.240        20
36.250        33
36.260        27
36.270         7
36.280        27
36.290        60
36.300        53
36.310        27
36.320        33
36.330        27
36.340        60
36.350        53
36.360        20
36.370         7
36.380        27
36.390        20
36.400        20
36.410        20
36.420        40
36.430        13
36.440        33
36.450        13
36.460        33
36.470        20
36.480        27
36.490        20
36.500        13
36.510        33
36.520        47
36.530        13
36.540        47
36.550        20
36.560        27
36.570        13
36.580        13
36.590        40
36.600        20
36.610        13
36.620        27
36.630        20
36.640        60
36.650        13
36.660        20
36.670        33
36.680        20
36.690        27
36.700        27
36.710        33
36.720        33
36.730        33
36.740         0
36.750        20
36.760        40
36.770        20
36.780        27
36.790        40
36.800        20
36.810        73
36.820        40
36.830        27
36.840        27
36.850        13
36.860        60
36.870        20
36.880         0
36.890        13
36.900        33
36.910        27
36.920        33
36.930        67
36.940        60
36.950        33
36.960        47
36.970        53
36.980        20
36.990        40
37.000        33
37.010        27
37.020        40
37.030        13
37.040        33
37.050        13
37.060        40
37.070        60
37.080        27
37.090        13
37.100         7
37.110         7
37.120        33
37.130        33
37.140        33
37.150        47
37.160        27
37.170         7
37.180        20
37.190        20
37.200        40
37.210        27
37.220        33
37.230        40
37.240        20
37.250        60
37.260         7
37.270         7
37.280        27
37.290        33
37.300        20
37.310        33
37.320         0
37.330        20
37.340         7
37.350        20
37.360        47
37.370        27
37.380        20
37.390        33
37.400        40
37.410        33
37.420        20
37.430        13
37.440        53
37.450        13
37.460        33
37.470        53
37.480        27
37.490        40
37.500        40
37.510        27
37.520        40
37.530        20
37.540        27
37.550        40
37.560        53
37.570        20
37.580        53
37.590        27
37.600        33
37.610        27
37.620        67
37.630        73
37.640        47
37.650        60
37.660        73
37.670        60
37.680        93
37.690        80
37.700        73
37.710       100
37.720       127
37.730        93
37.740        87
37.750       107
37.760       127
37.770        53
37.780        53
37.790        67
37.800        73
37.810       100
37.820        60
37.830        40
37.840        20
37.850        73
37.860        40
37.870        27
37.880        33
37.890        33
37.900        33
37.910        20
37.920         7
37.930        33
37.940        73
37.950        33
37.960        20
37.970        33
37.980        33
37.990        27
38.000        13
38.010         0
38.020        47
38.030        20
38.040        20
38.050        20
38.060        33
38.070        13
38.080         7
38.090        20
38.100        47
38.110        47
38.120        27
38.130        13
38.140        47
38.150        13
38.160        27
38.170        27
38.180        33
38.190        27
38.200        33
38.210        33
38.220        27
38.230        47
38.240        13
38.250        20
38.260        47
38.270        13
38.280        33
38.290        47
38.300        27
38.310        13
38.320        13
38.330        20
38.340        33
38.350        40
38.360        33
38.370        13
38.380        53
38.390        20
38.400        27
38.410         7
38.420        13
38.430        27
38.440        20
38.450        20
38.460        53
38.470        27
38.480        20
38.490         7
38.500         7
38.510        13
38.520        47
38.530        27
38.540        47
38.550        40
38.560        13
38.570        27
38.580        47
38.590        33
38.600        20
38.610        47
38.620        60
38.630        20
38.640        33
38.650        27
38.660        13
38.670        33
38.680        27
38.690         7
38.700         7
38.710        40
38.720         0
38.730        20
38.740        47
38.750         7
38.760        47
38.770        47
38.780        47
38.790        47
38.800        40
38.810        33
38.820        27
38.830        40
38.840        47
38.850        40
38.860        13
38.870        33
38.880        53
38.890        27
38.900        47
38.910        40
38.920        40
38.930        20
38.940        20
38.950        33
38.960        27
38.970        47
38.980        13
38.990        27
39.000         7
39.010        33
39.020        13
39.030        20
39.040        33
39.050        27
39.060        33
39.070        20
39.080        20
39.090        47
39.100        67
39.110        40
39.120        20
39.130        20
39.140        20
39.150        27
39.160        27
39.170        13
39.180        20
39.190        40
39.200        20
39.210        13
39.220        33
39.230        33
39.240         7
39.250        20
39.260        20
39.270        40
39.280        33
39.290        33
39.300        27
39.310        40
39.320        33
39.330        20
39.340        33
39.350        20
39.360        20
39.370        47
39.380        33
39.390        53
39.400        40
39.410        13
39.420        60
39.430         7
39.440        33
39.450         7
39.460        20
39.470        20
39.480        27
39.490        33
39.500        33
39.510        13
39.520        33
39.530        33
39.540        73
39.550        33
39.560        27
39.570        40
39.580        33
39.590        33
39.600        40
39.610        47
39.620        53
39.630        47
39.640        60
39.650        73
39.660        33
39.670        60
39.680        73
39.690        40
39.700       100
39.710       100
39.720       120
39.730        60
39.740       173
39.750       120
39.760       120
39.770       147
39.780       127
39.790       227
39.800       253
39.810       267
39.820       320
39.830       307
39.840       327
39.850       393
39.860       620
39.870       486
39.880       680
39.890       753
39.900       660
39.910       700
39.920       900
39.930       833
39.940       793
39.950       760
39.960       653
39.970       660
39.980       586
39.990       640
40.000       553
40.010       653
40.020       466
40.030       466
40.040       446
40.050       340
40.060       360
40.070       347
40.080       227
40.090       200
40.100       233
40.110       127
40.120       113
40.130       120
40.140       133
40.150        87
40.160        60
40.170       133
40.180        80
40.190        47
40.200        80
40.210        27
40.220        47
40.230        47
40.240        40
40.250        27
40.260        33
40.270         7
40.280        33
40.290        40
40.300        53
40.310        40
40.320        47
40.330        47
40.340        53
40.350        27
40.360        47
40.370        60
40.380        53
40.390        40
40.400        53
40.410        27
40.420        33
40.430        53
40.440        27
40.450        33
40.460         7
40.470        33
40.480        20
40.490        13
40.500         7
40.510        27
40.520        33
40.530        53
40.540         7
40.550        13
40.560        27
40.570        40
40.580        33
40.590        13
40.600        33
40.610         7
40.620        13
40.630        53
40.640        13
40.650        47
40.660         7
40.670        20
40.680        40
40.690        20
40.700        27
40.710        40
40.720        27
40.730        33
40.740        40
40.750        27
40.760        20
40.770        40
40.780        60
40.790        27
40.800        13
40.810        20
40.820        27
40.830        60
40.840        27
40.850        40
40.860        27
40.870        20
40.880        20
40.890         7
40.900        13
40.910         0
40.920        47
40.930        53
40.940        27
40.950        40
40.960        33
40.970        27
40.980        13
40.990        13
41.000        27
41.010        40
41.020        20
41.030        13
41.040        13
41.050        13
41.060        33
41.070        40
41.080        27
41.090        13
41.100        47
41.110        13
41.120        40
41.130        33
41.140        33
41.150        60
41.160        40
41.170        33
41.180        33
41.190        27
41.200        33
41.210        40
41.220        33
41.230        47
41.240        20
41.250        33
41.260        27
41.270         7
41.280        33
41.290        33
41.300        53
41.310        33
41.320        47
41.330        27
41.340        20
41.350        20
41.360         7
41.370        47
41.380        13
41.390        27
41.400        27
41.410        33
41.420        20
41.430        20
41.440        40
41.450        33
41.460        67
41.470        53
41.480        40
41.490        53
41.500       113
41.510       100
41.520        80
41.530        93
41.540       120
41.550       100
41.560       107
41.570       167
41.580       147
41.590       160
41.600       200
41.610       160
41.620       253
41.630       187
41.640       213
41.650       193
41.660       200
41.670       147
41.680       193
41.690       127
41.700       127
41.710       133
41.720       127
41.730        80
41.740       147
41.750       113
41.760       100
41.770        80
41.780        60
41.790        80
41.800        40
41.810        53
41.820        40
41.830        20
41.840        27
41.850        47
41.860        33
41.870        47
41.880        27
41.890        33
41.900        40
41.910        33
41.920        27
41.930        47
41.940        13
41.950        27
41.960        40
41.970        13
41.980        33
41.990        47
42.000        33
42.010        20
42.020        27
42.030        27
42.040        20
42.050        27
42.060        20
42.070        47
42.080        20
42.090         7
42.100        53
42.110        33
42.120        13
42.130         7
42.140        20
42.150        20
42.160         7
42.170         7
42.180        20
42.190        13
42.200         7
42.210        27
42.220        20
42.230        20
42.240        47
42.250        33
42.260        20
42.270        20
42.280        27
42.290        20
42.300        27
42.310        20
42.320        47
42.330        27
42.340        27
42.350        40
42.360        20
42.370        40
42.380        20
42.390        47
42.400         7
42.410        33
42.420         0
42.430        27
42.440        33
42.450        27
42.460        27
42.470        13
42.480        13
42.490        27
42.500        33
42.510        33
42.520         7
42.530        40
42.540        20
42.550        47
42.560        13
42.570        40
42.580        33
42.590        33
42.600         7
42.610         7
42.620        33
42.630        13
42.640        33
42.650        33
42.660        27
42.670        40
42.680        27
42.690        33
42.700         7
42.710        20
42.720        33
42.730        53
42.740        20
42.750        33
42.760        27
42.770        27
42.780        27
42.790        53
42.800        27
42.810        20
42.820        13
42.830        33
42.840         7
42.850        13
42.860        33
42.870        27
42.880        47
42.890        67
42.900        40
42.910        33
42.920        20
42.930        20
42.940        20
42.950        40
42.960        33
42.970        20
42.980        27
42.990        13
43.000        13
43.010        27
43.020        13
43.030        13
43.040         7
43.050        40
43.060        47
43.070        40
43.080        47
43.090        53
43.100        13
43.110        20
43.120        47
43.130        40
43.140        20
43.150        20
43.160        40
43.170        20
43.180         7
43.190        27
43.200        40
43.210        40
43.220        27
43.230        20
43.240        53
43.250        53
43.260        60
43.270        33
43.280       127
43.290       120
43.300       153
43.310       127
43.320        93
43.330        87
43.340        80
43.350       133
43.360        60
43.370        27
43.380        73
43.390        67
43.400        47
43.410        73
43.420        40
43.430        67
43.440        53
43.450        40
43.460        47
43.470        60
43.480        47
43.490        33
43.500        53
43.510        20
43.520        33
43.530        20
43.540        33
43.550         7
43.560        20
43.570        33
43.580        40
43.590        47
43.600        27
43.610        33
43.620         7
43.630        20
43.640        27
43.650        27
43.660        27
43.670        47
43.680        13
43.690        13
43.700        33
43.710        47
43.720        27
43.730        27
43.740        13
43.750        73
43.760        27
43.770        40
43.780        20
43.790        33
43.800        20
43.810        33
43.820        20
43.830         7
43.840        27
43.850        20
43.860        13
43.870        13
43.880        40
43.890         7
43.900         7
43.910        27
43.920        27
43.930        33
43.940        20
43.950        27
43.960        27
43.970        47
43.980        13
43.990        20
44.000        20
44.010         0
44.020         7
44.030        40
44.040         7
44.050        27
44.060        20
44.070        13
44.080        20
44.090         7
44.100        20
44.110        33
44.120        47
44.130        13
44.140        20
44.150        20
44.160         0
44.170        47
44.180        40
44.190        33
44.200        40
44.210         0
44.220        13
44.230        47
44.240         7
44.250        33
44.260        20
44.270        20
44.280         7
44.290        33
44.300        13
44.310        60
44.320         7
44.330        33
44.340         7
44.350        20
44.360        20
44.370        27
44.380        40
44.390        20
44.400        33
44.410        27
44.420        47
44.430        20
44.440        20
44.450        13
44.460        13
44.470         7
44.480        27
44.490        20
44.500        13
44.510        47
44.520        13
44.530        13
44.540        13
44.550        47
44.560        20
44.570        13
44.580        20
44.590        40
44.600        20
44.610         0
44.620        47
44.630        20
44.640        13
44.650        13
44.660        20
44.670        40
44.680        33
44.690        33
44.700        13
44.710        27
44.720        27
44.730        20
44.740        13
44.750        20
44.760        33
44.770        33
44.780        33
44.790        40
44.800        33
44.810        67
44.820        40
44.830        20
44.840        33
44.850        47
44.860         7
44.870        13
44.880        47
44.890        33
44.900        47
44.910        20
44.920        40
44.930        27
44.940        20
44.950        20
44.960        20
44.970        20
44.980        27
44.990        20
45.000        20
45.010        13
45.020        40
45.030        20
45.040        20
45.050        33
45.060         7
45.070         0
45.080         7
45.090        13
45.100        40
45.110         7
45.120        20
45.130        27
45.140         7
45.150        20
45.160         7
45.170        27
45.180        13
45.190        13
45.200        33
45.210        27
45.220        13
45.230         7
45.240        13
45.250         7
45.260        13
45.270        33
45.280         7
45.290        13
45.300        20
45.310        13
45.320        20
45.330        40
45.340        13
45.350        20
45.360        13
45.370        33
45.380        27
45.390        13
45.400        27
45.410        40
45.420        20
45.430         7
45.440        20
45.450        20
45.460        13
45.470        20
45.480        20
45.490        40
45.500        13
45.510        47
45.520        20
45.530        53
45.540        13
45.550        27
45.560        20
45.570        33
45.580        33
45.590        13
45.600        20
45.610        20
45.620        20
45.630        40
45.640        33
45.650        13
45.660        47
45.670        33
45.680         7
45.690        33
45.700        20
45.710        13
45.720        13
45.730        27
45.740        13
45.750        33
45.760        13
45.770        20
45.780        47
45.790        40
45.800         7
45.810        20
45.820        27
45.830         7
45.840        27
45.850        33
45.860        47
45.870        20
45.880        47
45.890        20
45.900        20
45.910        13
45.920        27
45.930         7
45.940        20
45.950        20
45.960        27
45.970        13
45.980        27
45.990        53
46.000        13
46.010        13
46.020         7
46.030        40
46.040        27
46.050        13
46.060        27
46.070        33
46.080        53
46.090        60
46.100        27
46.110        33
46.120        33
46.130        13
46.140        27
46.150        27
46.160        53
46.170        73
46.180        33
46.190        13
46.200        20
46.210        60
46.220        67
46.230        27
46.240        47
46.250        73
46.260        40
46.270        60
46.280        60
46.290        60
46.300        60
46.310        67
46.320        53
46.330        53
46.340        93
46.350       147
46.360        80
46.370        80
46.380       140
46.390       173
46.400       120
46.410       140
46.420       100
46.430       107
46.440       200
46.450       187
46.460       153
46.470       173
46.480       133
46.490       193
46.500       107
46.510       133
46.520       187
46.530       147
46.540       120
46.550       167
46.560       107
46.570       107
46.580        67
46.590       133
46.600       100
46.610       147
46.620       127
46.630       127
46.640        47
46.650        60
46.660        80
46.670        33
46.680        67
46.690        27
46.700        93
46.710        93
46.720        67
46.730        40
46.740        73
46.750        20
46.760        40
46.770        73
46.780        27
46.790         7
46.800        60
46.810        27
46.820        53
46.830        33
46.840        60
46.850        20
46.860        53
46.870        20
46.880        13
46.890        47
46.900        20
46.910        20
46.920        27
46.930         7
46.940        20
46.950        20
46.960        53
46.970        20
46.980         7
46.990        47
47.000        20
47.010        13
47.020        27
47.030        47
47.040         7
47.050        27
47.060         7
47.070        13
47.080        13
47.090        27
47.100        13
47.110        40
47.120        40
47.130        13
47.140        33
47.150        27
47.160        13
47.170        20
47.180        47
47.190        47
47.200        13
47.210        33
47.220        13
47.230         0
47.240         7
47.250        40
47.260        27
47.270        20
47.280        13
47.290        27
47.300        27
47.310        40
47.320         0
47.330        40
47.340        40
47.350         7
47.360        33
47.370         7
47.380         0
47.390        20
47.400        20
47.410        20
47.420        20
47.430        13
47.440        47
47.450        13
47.460        27
47.470        33
47.480        27
47.490        27
47.500        20
47.510        20
47.520        27
47.530        20
47.540        33
47.550        27
47.560        20
47.570         0
47.580        20
47.590        20
47.600         7
47.610        13
47.620         7
47.630        33
47.640        20
47.650        20
47.660        33
47.670         7
47.680        33
47.690        20
47.700        33
47.710        13
47.720        27
47.730        13
47.740        13
47.750        20
47.760        27
47.770         7
47.780        33
47.790         7
47.800        27
47.810        13
47.820        40
47.830        20
47.840         7
47.850         0
47.860         7
47.870        20
47.880        13
47.890         7
47.900        13
47.910        27
47.920        13
47.930        20
47.940        13
47.950        20
47.960        27
47.970        13
47.980        13
47.990        13
48.000        20
48.010        27
48.020        40
48.030        20
48.040        33
48.050         7
48.060         7
48.070         7
48.080        27
48.090        20
48.100        13
48.110        33
48.120        20
48.130         0
48.140        27
48.150         0
48.160         7
48.170        27
48.180        13
48.190        13
48.200        27
48.210        27
48.220        40
48.230        13
48.240        13
48.250        40
48.260        13
48.270        33
48.280         7
48.290        20
48.300        13
48.310        20
48.320        20
48.330        27
48.340        33
48.350        20
48.360        40
48.370        27
48.380         7
48.390         7
48.400        20
48.410        20
48.420        13
48.430        27
48.440        13
48.450        40
48.460        13
48.470        33
48.480        20
48.490        27
48.500        20
48.510        53
48.520        27
48.530        27
48.540         7
48.550        33
48.560        13
48.570        20
48.580         7
48.590        27
48.600        20
48.610         7
48.620        20
48.630        40
48.640         7
48.650        13
48.660        13
48.670         7
48.680         7
48.690        20
48.700        20
48.710        13
48.720        33
48.730        13
48.740        20
48.750        27
48.760        20
48.770        20
48.780        33
48.790        47
48.800        13
48.810        27
48.820        13
48.830        47
48.840        33
48.850        20
48.860        27
48.870         0
48.880        27
48.890         0
48.900         7
48.910        13
48.920        13
48.930        27
48.940        47
48.950        20
48.960        33
48.970         7
48.980        27
48.990        13
49.000         7
49.010         0
49.020        20
49.030        13
49.040        13
49.050        13
49.060         0
49.070        13
49.080        13
49.090        33
49.100        27
49.110        13
49.120        27
49.130        33
49.140        20
49.150         7
49.160        27
49.170        20
49.180         0
49.190        33
49.200        20
49.210         7
49.220        13
49.230        40
49.240        20
49.250        40
49.260        33
49.270        40
49.280        20
49.290         7
49.300        27
49.310        13
49.320        13
49.330        13
49.340         7
49.350         7
49.360        40
49.370        13
49.380        20
49.390        20
49.400        20
49.410         7
49.420        40
49.430        13
49.440        13
49.450        20
49.460        13
49.470        20
49.480        20
49.490        13
49.500         0
49.510        20
49.520        33
49.530        13
49.540        20
49.550         7
49.560        27
49.570        13
49.580         7
49.590        20
49.600         7
49.610        13
49.620        20
49.630        13
49.640         7
49.650        20
49.660        20
49.670        27
49.680        13
49.690        20
49.700        13
49.710         7
49.720        20
49.730        20
49.740        20
49.750        20
49.760        13
49.770        13
49.780        13
49.790        47
49.800        13
49.810         7
49.820         0
49.830        13
49.840        13
49.850        20
49.860        20
49.870        20
49.880        13
49.890        20
49.900        20
49.910        27
49.920        20
49.930        20
49.940         7
49.950         0
49.960        27
49.970         7
49.980        20
49.990        13
50.000        20
50.010        13
50.020        13
50.030        13
50.040        40
50.050        20
50.060         7
50.070        27
50.080        27
50.090        33
50.100        20
50.110        13
50.120        13
50.130        20
50.140         0
50.150        13
50.160        33
50.170        13
50.180        20
50.190         7
50.200        40
50.210        13
50.220        33
50.230         7
50.240        13
50.250        13
50.260        13
50.270        20
50.280        13
50.290        20
50.300        33
50.310         7
50.320        27
50.330         7
50.340        33
50.350        20
50.360        13
50.370        13
50.380        13
50.390        13
50.400        13
50.410        13
50.420        13
50.430         7
50.440         7
50.450        27
50.460        13
50.470        13
50.480        27
50.490        33
50.500        13
50.510         7
50.520        40
50.530        27
50.540         7
50.550        20
50.560        13
50.570        33
50.580        33
50.590        13
50.600        20
50.610        40
50.620        27
50.630        33
50.640         7
50.650        13
50.660        27
50.670        13
50.680         7
50.690        13
50.700        20
50.710        13
50.720        13
50.730         0
50.740        13
50.750         7
50.760        13
50.770        13
50.780         0
50.790         7
50.800        20
50.810        20
50.820        33
50.830        27
50.840        27
50.850        20
50.860        60
50.870        13
50.880        20
50.890        13
50.900         0
50.910         7
50.920        13
50.930         7
50.940        20
50.950         7
50.960        13
50.970        20
50.980        20
50.990        13
51.000        13
51.010        20
51.020        20
51.030        20
51.040         7
51.050         0
51.060        47
51.070        13
51.080         7
51.090        13
51.100        27
51.110         7
51.120        13
51.130         7
51.140         7
51.150        33
51.160        27
51.170         7
51.180        27
51.190         7
51.200         0
51.210         7
51.220         7
51.230        13
51.240         7
51.250        13
51.260        33
51.270         7
51.280        13
51.290         7
51.300        20
51.310        13
51.320        20
51.330        20
51.340         0
51.350         0
51.360        13
51.370        13
51.380        20
51.390        27
51.400        13
51.410        13
51.420        13
51.430        13
51.440        20
51.450        27
51.460         0
51.470         7
51.480        33
51.490        13
51.500        20
51.510        27
51.520        13
51.530        40
51.540        13
51.550         7
51.560         0
51.570        27
51.580        27
51.590         7
51.600        13
51.610         7
51.620         7
51.630        13
51.640        20
51.650        33
51.660        13
51.670        33
51.680         0
51.690        20
51.700        13
51.710        20
51.720        20
51.730        20
51.740        20
51.750         7
51.760        27
51.770        20
51.780        27
51.790        33
51.800        13
51.810        13
51.820        20
51.830        27
51.840        13
51.850        13
51.860        33
51.870        13
51.880        20
51.890        33
51.900        13
51.910        33
51.920        13
51.930        33
51.940        33
51.950         7
51.960        20
51.970         7
51.980        13
51.990        27
52.000        20
52.010        33
52.020        20
52.030         0
52.040        20
52.050         7
52.060         7
52.070         0
52.080         7
52.090        27
52.100        13
52.110        27
52.120        13
52.130        33
52.140        13
52.150         0
52.160         7
52.170        27
52.180        27
52.190        13
52.200        13
52.210        40
52.220        47
52.230        13
52.240         7
52.250        20
52.260        27
52.270         7
52.280        33
52.290        13
52.300        20
52.310        33
52.320        20
52.330         7
52.340        27
52.350        33
52.360         7
52.370        33
52.380        20
52.390        33
52.400         7
52.410        33
52.420        40
52.430        60
52.440         7
52.450        27
52.460        20
52.470        27
52.480        53
52.490        60
52.500        60
52.510        67
52.520        33
52.530        27
52.540        60
52.550        80
52.560        80
52.570        73
52.580       107
52.590        87
52.600        93
52.610        93
52.620        47
52.630        60
52.640        47
52.650        60
52.660        40
52.670        93
52.680        60
52.690        60
52.700        60
52.710        87
52.720        20
52.730        67
52.740        33
52.750        20
52.760        47
52.770        33
52.780        53
52.790         7
52.800        20
52.810        13
52.820        33
52.830        27
52.840        27
52.850         7
52.860        33
52.870        13
52.880        20
52.890         7
52.900         7
52.910        27
52.920        27
52.930        13
52.940         7
52.950        27
52.960         7
52.970        13
52.980        20
52.990        13
53.000        13
53.010        13
53.020        33
53.030        13
53.040        33
53.050        20
53.060        13
53.070        20
53.080        20
53.090         7
53.100        33
53.110        13
53.120        13
53.130         7
53.140        13
53.150        33
53.160        20
53.170        20
53.180        13
53.190        33
53.200        27
53.210        20
53.220        20
53.230        40
53.240        13
53.250        27
53.260        27
53.270        20
53.280        13
53.290        13
53.300        20
53.310         0
53.320        13
53.330        20
53.340        33
53.350        20
53.360        27
53.370        33
53.380        20
53.390         0
53.400        13
53.410        20
53.420        13
53.430        40
53.440        13
53.450        13
53.460        13
53.470        33
53.480         0
53.490         7
53.500         7
53.510        20
53.520         0
53.530        13
53.540         7
53.550         0
53.560        13
53.570         0
53.580        27
53.590        20
53.600        20
53.610        13
53.620         7
53.630        20
53.640        13
53.650        20
53.660        27
53.670        27
53.680        27
53.690        13
53.700        20
53.710        20
53.720        20
53.730        27
53.740        13
53.750         7
53.760        20
53.770        20
53.780         0
53.790        27
53.800        13
53.810         7
53.820        27
53.830        13
53.840         7
53.850         7
53.860        27
53.870         7
53.880        27
53.890        20
53.900         0
53.910        20
53.920        33
53.930        20
53.940         7
53.950        20
53.960         7
53.970        20
53.980        13
53.990        33
54.000        20
54.010        13
54.020         0
54.030         7
54.040        27
54.050         0
54.060         7
54.070         0
54.080        20
54.090        13
54.100         7
54.110        27
54.120        27
54.130         7
54.140        27
54.150        20
54.160        20
54.170        27
54.180        27
54.190        27
54.200        53
54.210        20
54.220        27
54.230         0
54.240        20
54.250         0
54.260         0
54.270        20
54.280        27
54.290         7
54.300         7
54.310         0
54.320        13
54.330        20
54.340        13
54.350        13
54.360         7
54.370        20
54.380        13
54.390        47
54.400        13
54.410         7
54.420         7
54.430        13
54.440        20
54.450        13
54.460        27
54.470        27
54.480        20
54.490        27
54.500        13
54.510        20
54.520        40
54.530        13
54.540        40
54.550        27
54.560        20
54.570        13
54.580        13
54.590        27
54.600         7
54.610         7
54.620         7
54.630        20
54.640        13
54.650        40
54.660         0
54.670        13
54.680         7
54.690        13
54.700        27
54.710        20
54.720         7
54.730         7
54.740        13
54.750        13
54.760        27
54.770        33
54.780         7
54.790        53
54.800        20
54.810        20
54.820         7
54.830        20
54.840        20
54.850        13
54.860        13
54.870        13
54.880         0
54.890         0
54.900         7
54.910        20
54.920         0
54.930        13
54.940        33
54.950         7
54.960        27
54.970        20
54.980        13
54.990        13
55.000        13
55.010         7
55.020        20
55.030         0
55.040         7
55.050        33
55.060        13
55.070        13
55.080         0
55.090        27
55.100        13
55.110         7
55.120        33
55.130        20
55.140        20
55.150        20
55.160        20
55.170        53
55.180         7
55.190        13
55.200        20
55.210         7
55.220        33
55.230         7
55.240         7
55.250         0
55.260        27
55.270        40
55.280        13
55.290        20
55.300         7
55.310         7
55.320        27
55.330        20
55.340        13
55.350         7
55.360        13
55.370        13
55.380        20
55.390        13
55.400        40
55.410         7
55.420        40
55.430        20
55.440        13
55.450        13
55.460         7
55.470        13
55.480         0
55.490        27
55.500         7
55.510        13
55.520        27
55.530        27
55.540        27
55.550        20
55.560        33
55.570        27
55.580        20
55.590        20
55.600        27
55.610        33
55.620        33
55.630        13
55.640         7
55.650        20
55.660        13
55.670        40
55.680         7
55.690        27
55.700        13
55.710        33
55.720        20
55.730        33
55.740        20
55.750        13
55.760        13
55.770        47
55.780        20
55.790         7
55.800        13
55.810         7
55.820        20
55.830        20
55.840        27
55.850        20
55.860        47
55.870        27
55.880        40
55.890        13
55.900        20
55.910        20
55.920         7
55.930         7
55.940         7
55.950        20
55.960        20
55.970        27
55.980        27
55.990         0
56.000        13
56.010        20
56.020         7
56.030         7
56.040        13
56.050        40
56.060        13
56.070        27
56.080        27
56.090        13
56.100        33
56.110        13
56.120         0
56.130        33
56.140         7
56.150        13
56.160        27
56.170        27
56.180        33
56.190        20
56.200        20
56.210        13
56.220        20
56.230        13
56.240        33
56.250         7
56.260        27
56.270        13
56.280        20
56.290        33
56.300        20
56.310         7
56.320        13
56.330         0
56.340        20
56.350        13
56.360        13
56.370        27
56.380         0
56.390        27
56.400        13
56.410         0
56.420         7
56.430         7
56.440         7
56.450        27
56.460         7
56.470        13
56.480        13
56.490        13
56.500        13
56.510        13
56.520        13
56.530         7
56.540        33
56.550        20
56.560        20
56.570        20
56.580         0
56.590        27
56.600        13
56.610        60
56.620         7
56.630        20
56.640        47
56.650        13
56.660        40
56.670         7
56.680        20
56.690         7
56.700        27
56.710        33
56.720        13
56.730        27
56.740         0
56.750        13
56.760         0
56.770        20
56.780         0
56.790        47
56.800        13
56.810        27
56.820        20
56.830        20
56.840        27
56.850        13
56.860        20
56.870         7
56.880         7
56.890        20
56.900         0
56.910        20
56.920         7
56.930        13
56.940        13
56.950        27
56.960        33
56.970        20
56.980        47
56.990        27
57.000        13
57.010         0
57.020        20
57.030         0
57.040        13
57.050        27
57.060        13
57.070        27
57.080         7
57.090        13
57.100        13
57.110        33
57.120        13
57.130        33
57.140        27
57.150        27
57.160         0
57.170        20
57.180        13
57.190        20
57.200        27
57.210        27
57.220        13
57.230         7
57.240         7
57.250         7
57.260         7
57.270        40
57.280         7
57.290        20
57.300        40
57.310        40
57.320        40
57.330        13
57.340         0
57.350        33
57.360        13
57.370        20
57.380        20
57.390        13
57.400        20
57.410        27
57.420        47
57.430        40
57.440        33
57.450        53
57.460        33
57.470       127
57.480       167
57.490       147
57.500       180
57.510       227
57.520       227
57.530       293
57.540       233
57.550       340
57.560       253
57.570       253
57.580       193
57.590       187
57.600       147
57.610        93
57.620        87
57.630        93
57.640       107
57.650       140
57.660       180
57.670       153
57.680       207
57.690       173
57.700       333
57.710       293
57.720       247
57.730       200
57.740       220
57.750       213
57.760       300
57.770       153
57.780       213
57.790       247
57.800       273
57.810       273
57.820       233
57.830       293
57.840       273
57.850       220
57.860       227
57.870       260
57.880       240
57.890       247
57.900       200
57.910       227
57.920       187
57.930       173
57.940       213
57.950       180
57.960       247
57.970       193
57.980       160
57.990       193
58.000       127
58.010       173
58.020       113
58.030       160
58.040       120
58.050       147
58.060       113
58.070        67
58.080        87
58.090        73
58.100        87
58.110        73
58.120        40
58.130        60
58.140        47
58.150        67
58.160        13
58.170        33
58.180        27
58.190        20
58.200        13
58.210        60
58.220        27
58.230        40
58.240         0
58.250        40
58.260        53
58.270        40
58.280        27
58.290         7
58.300        20
58.310         7
58.320        40
58.330        33
58.340        20
58.350        13
58.360        13
58.370        20
58.380        20
58.390        33
58.400        27
58.410         7
58.420        13
58.430        20
58.440        27
58.450        20
58.460        27
58.470        20
58.480         7
58.490        40
58.500        13
58.510        33
58.520        20
58.530        20
58.540        20
58.550        20
58.560        13
58.570        20
58.580        27
58.590         7
58.600        20
58.610        20
58.620         7
58.630        20
58.640        27
58.650         0
58.660         0
58.670        20
58.680         7
58.690        40
58.700        20
58.710         7
58.720        20
58.730         7
58.740         7
58.750         0
58.760        53
58.770        27
58.780        27
58.790        13
58.800        27
58.810        20
58.820         7
58.830         7
58.840        13
58.850         7
58.860        13
58.870        13
58.880        20
58.890        20
58.900         0
58.910        20
58.920        27
58.930        40
58.940        20
58.950         7
58.960        13
58.970        20
58.980        20
58.990        53
59.000        20
59.010        13
59.020        27
59.030         0
59.040        40
59.050        13
59.060        27
59.070         0
59.080        13
59.090         7
59.100        13
59.110        27
59.120         7
59.130        20
59.140        33
59.150        20
59.160        13
59.170        13
59.180        20
59.190        27
59.200         7
59.210        13
59.220         7
59.230        13
59.240        20
59.250        33
59.260        20
59.270         0
59.280         7
59.290         7
59.300        13
59.310        13
59.320        20
59.330        20
59.340        27
59.350        27
59.360        27
59.370        20
59.380        13
59.390        13
59.400        13
59.410        13
59.420        27
59.430        13
59.440        20
59.450        20
59.460         7
59.470        27
59.480        47
59.490        27
59.500        13
59.510        20
59.520         7
59.530        20
59.540        20
59.550        20
59.560        40
59.570        27
59.580         7
59.590         7
59.600        20
59.610        40
59.620         7
59.630         7
59.640        13
59.650         0
59.660        47
59.670        27
59.680        13
59.690        13
59.700        13
59.710        33
59.720        27
59.730        27
59.740        13
59.750        33
59.760        13
59.770        20
59.780         7
59.790        33
59.800         7
59.810         7
59.820        33
59.830        13
59.840        20
59.850        13
59.860        13
59.870        13
59.880         0
59.890        20
59.900         7
59.910        20
59.920        27
59.930        20
59.940        40
59.950         0
59.960         7
59.970         7
59.980        27
59.990        13
60.000        13
