20.000        80
20.010        47
20.020        47
20.030        27
20.040        33
20.050        60
20.060        27
20.070        20
20.080        27
20.090        47
20.100        33
20.110         7
20.120        60
20.130        53
20.140        53
20.150        60
20.160        47
20.170        60
20.180        60
20.190        33
20.200        60
20.210        53
20.220        27
20.230        33
20.240        40
20.250        27
20.260        73
20.270        33
20.280        67
20.290        80
20.300        47
20.310        47
20.320        47
20.330        33
20.340        40
20.350        53
20.360        33
20.370        67
20.380        40
20.390        47
20.400        53
20.410        13
20.420        47
20.430        67
20.440        40
20.450        33
20.460        60
20.470        47
20.480        40
20.490        20
20.500        40
20.510        47
20.520        40
20.530        47
20.540        67
20.550        33
20.560        73
20.570        40
20.580        60
20.590        27
20.600        87
20.610        53
20.620        40
20.630        20
20.640        47
20.650        27
20.660        40
20.670        13
20.680        33
20.690        53
20.700        40
20.710        20
20.720        33
20.730        67
20.740        27
20.750        73
20.760        20
20.770        67
20.780        33
20.790        87
20.800        33
20.810        60
20.820        27
20.830        40
20.840        60
20.850        73
20.860        33
20.870        53
20.880        47
20.890        47
20.900        47
20.910        47
20.920        33
20.930        27
20.940        60
20.950        27
20.960        40
20.970        40
20.980        47
20.990        53
21.000        27
21.010        20
21.020        53
21.030        40
21.040        20
21.050        60
21.060        33
21.070        47
21.080        33
21.090        47
21.100        60
21.110        67
21.120        60
21.130        40
21.140        27
21.150        47
21.160        40
21.170        33
21.180        27
21.190        40
21.200        53
21.210        13
21.220        27
21.230        33
21.240        53
21.250        53
21.260        40
21.270        33
21.280        40
21.290        53
21.300        33
21.310        27
21.320        20
21.330        47
21.340        47
21.350        53
21.360        40
21.370        60
21.380        33
21.390        33
21.400        40
21.410        60
21.420        47
21.430        20
21.440        67
21.450        13
21.460        53
21.470        40
21.480        60
21.490         7
21.500        47
21.510        60
21.520        27
21.530        47
21.540        47
21.550        47
21.560        40
21.570        33
21.580        20
21.590        33
21.600        27
21.610        40
21.620        67
21.630        27
21.640        40
21.650        40
21.660        47
21.670        27
21.680        53
21.690        27
21.700        40
21.710        60
21.720        47
21.730        47
21.740        53
21.750        40
21.760         7
21.770        20
21.780        47
21.790        40
21.800        20
21.810        33
21.820        27
21.830        20
21.840        47
21.850        60
21.860        33
21.870        47
21.880        73
21.890        40
21.900        40
21.910        40
21.920        40
21.930        73
21.940        33
21.950        33
21.960        27
21.970        53
21.980        20
21.990        40
22.000        33
22.010        40
22.020        53
22.030        73
22.040        67
22.050        60
22.060        47
22.070        53
22.080        20
22.090        33
22.100        53
22.110        53
22.120        73
22.130        47
22.140        27
22.150        60
22.160        13
22.170        47
22.180        47
22.190        40
22.200        53
22.210        47
22.220        73
22.230        20
22.240        47
22.250        87
22.260        33
22.270        40
22.280        47
22.290        53
22.300        40
22.310        33
22.320        73
22.330        67
22.340        73
22.350        47
22.360       120
22.370        73
22.380        67
22.390        67
22.400        73
22.410        80
22.420       107
22.430        93
22.440        80
22.450        93
22.460        40
22.470       127
22.480       107
22.490       133
22.500       133
22.510        87
22.520        67
22.530        53
22.540        93
22.550        80
22.560        80
22.570       100
22.580       113
22.590       133
22.600       100
22.610        47
22.620        93
22.630       180
22.640        60
22.650        40
22.660       100
22.670        80
22.680       127
22.690        80
22.700       107
22.710        93
22.720        53
22.730        67
22.740        80
22.750        93
22.760       133
22.770        80
22.780        87
22.790       107
22.800        73
22.810       100
22.820       113
22.830        40
22.840       107
22.850        73
22.860        47
22.870        47
22.880        27
22.890        40
22.900        40
22.910        47
22.920        27
22.930        47
22.940        60
22.950        60
22.960        80
22.970        67
22.980        47
22.990        67
23.000        33
23.010        73
23.020        40
23.030        53
23.040        53
23.050        33
23.060        27
23.070        53
23.080        53
23.090        20
23.100        40
23.110        40
23.120        47
23.130        53
23.140        40
23.150        67
23.160        33
23.170        53
23.180        40
23.190        53
23.200        60
23.210        40
23.220        47
23.230        47
23.240        60
23.250        53
23.260        47
23.270        13
23.280        27
23.290        53
23.300        27
23.310        40
23.320        53
23.330        33
23.340        47
23.350        27
23.360        60
23.370        40
23.380        40
23.390        67
23.400        33
23.410        53
23.420        20
23.430        20
23.440        33
23.450         7
23.460        40
23.470        60
23.480        27
23.490        20
23.500        40
23.510        33
23.520        40
23.530        47
23.540        53
23.550        93
23.560        40
23.570        40
23.580        53
23.590        33
23.600        67
23.610        33
23.620        20
23.630        40
23.640        33
23.650        73
23.660        60
23.670        53
23.680         7
23.690        47
23.700        40
23.710        33
23.720        60
23.730        53
23.740        27
23.750        60
23.760        40
23.770        27
23.780        33
23.790        47
23.800        20
23.810        33
23.820        20
23.830        40
23.840        13
23.850        47
23.860        47
23.870        47
23.880        33
23.890         7
23.900        60
23.910        27
23.920        47
23.930        67
23.940        47
23.950        33
23.960        20
23.970        67
23.980        33
23.990        47
24.000        20
24.010        27
24.020        47
24.030        20
24.040        33
24.050        33
24.060        27
24.070        13
24.080        33
24.090        20
24.100        20
24.110        20
24.120        40
24.130        40
24.140        20
24.150        27
24.160         7
24.170        33
24.180        33
24.190        53
24.200        40
24.210        33
24.220        27
24.230        20
24.240        47
24.250        27
24.260        60
24.270        53
24.280        33
24.290        20
24.300        40
24.310        40
24.320        13
24.330        47
24.340        20
24.350        47
24.360        47
24.370        53
24.380        47
24.390        20
24.400        33
24.410        33
24.420        33
24.430        27
24.440        73
24.450        53
24.460        47
24.470        20
24.480        40
24.490        33
24.500        40
24.510        13
24.520        47
24.530        40
24.540        60
24.550        40
24.560        33
24.570        60
24.580        20
24.590        47
24.600        27
24.610        40
24.620        20
24.630        33
24.640        47
24.650        40
24.660        20
24.670        67
24.680        53
24.690        47
24.700        60
24.710        40
24.720        33
24.730        33
24.740        60
24.750        13
24.760        53
24.770        20
24.780        27
24.790        33
24.800        53
24.810        47
24.820        27
24.830        40
24.840        33
24.850        40
24.860        33
24.870        27
24.880        27
24.890        27
24.900        53
24.910        67
24.920        27
24.930        27
24.940        33
24.950        20
24.960        47
24.970        40
24.980        40
24.990        40
25.000        20
25.010        60
25.020        33
25.030        40
25.040        20
25.050        13
25.060         0
25.070        53
25.080        20
25.090        20
25.100        13
25.110         7
25.120        40
25.130        27
25.140        53
25.150        33
25.160        33
25.170        53
25.180        40
25.190        73
25.200        27
25.210        20
25.220        13
25.230        33
25.240        27
25.250        27
25.260        33
25.270        27
25.280        27
25.290        47
25.300         7
25.310        13
25.320        47
25.330        33
25.340        40
25.350        73
25.360        53
25.370        33
25.380        40
25.390        27
25.400        20
25.410        33
25.420        33
25.430        33
25.440        20
25.450        53
25.460        47
25.470        60
25.480        40
25.490        20
25.500        80
25.510        33
25.520        40
25.530       107
25.540        67
25.550        87
25.560       107
25.570        60
25.580       100
25.590       140
25.600       193
25.610       127
25.620       113
25.630       107
25.640       100
25.650       133
25.660        80
25.670        93
25.680        93
25.690       120
25.700        60
25.710        80
25.720        80
25.730        27
25.740        27
25.750        27
25.760        47
25.770        13
25.780        40
25.790        27
25.800        60
25.810        33
25.820        53
25.830        47
25.840        40
25.850        47
25.860        13
25.870        40
25.880         7
25.890        47
25.900        60
25.910        27
25.920        33
25.930        40
25.940        27
25.950        27
25.960        60
25.970        27
25.980        20
25.990        20
26.000        40
26.010        27
26.020        47
26.030        53
26.040        13
26.050        40
26.060        27
26.070        27
26.080        20
26.090        20
26.100        13
26.110        13
26.120         7
26.130        27
26.140         7
26.150        13
26.160        13
26.170        67
26.180        40
26.190        33
26.200        33
26.210        33
26.220        27
26.230        13
26.240        47
26.250        33
26.260        40
26.270        53
26.280        27
26.290        20
26.300        33
26.310        53
26.320        40
26.330        53
26.340        47
26.350        27
26.360        33
26.370        47
26.380        60
26.390        27
26.400        67
26.410        27
26.420        20
26.430        27
26.440        53
26.450        33
26.460        60
26.470        33
26.480        27
26.490        27
26.500        27
26.510         7
26.520        47
26.530        53
26.540        27
26.550        27
26.560        40
26.570        40
26.580        53
26.590        40
26.600        40
26.610        33
26.620        40
26.630        27
26.640        20
26.650        20
26.660        40
26.670        53
26.680        33
26.690        33
26.700        47
26.710        13
26.720        33
26.730        33
26.740        13
26.750        33
26.760        40
26.770        33
26.780        27
26.790        13
26.800        20
26.810        13
26.820        33
26.830        13
26.840         7
26.850        33
26.860        40
26.870        20
26.880        33
26.890        47
26.900        60
26.910        60
26.920        40
26.930        20
26.940        33
26.950         7
26.960        47
26.970        27
26.980        27
26.990        33
27.000        40
27.010        27
27.020         7
27.030        27
27.040        53
27.050        13
27.060        13
27.070        13
27.080        33
27.090        40
27.100        47
27.110         7
27.120        40
27.130        33
27.140        20
27.150        20
27.160        20
27.170        20
27.180        20
27.190        33
27.200        53
27.210        27
27.220        27
27.230        27
27.240        20
27.250        53
27.260        27
27.270        27
27.280        40
27.290        13
27.300         7
27.310        27
27.320        20
27.330        27
27.340        33
27.350        27
27.360        27
27.370        47
27.380        60
27.390        47
27.400        47
27.410        20
27.420        33
27.430        47
27.440        33
27.450         7
27.460        33
27.470        20
27.480        40
27.490        40
27.500        13
27.510        33
27.520        60
27.530        27
27.540        20
27.550        53
27.560        20
27.570        27
27.580        13
27.590        13
27.600        33
27.610        13
27.620        33
27.630        33
27.640        47
27.650        40
27.660        47
27.670        27
27.680        33
27.690        33
27.700        20
27.710        40
27.720         7
27.730        27
27.740        27
27.750         7
27.760         7
27.770         7
27.780        20
27.790        13
27.800        20
27.810        20
27.820        27
27.830        27
27.840        33
27.850        27
27.860        53
27.870        20
27.880        27
27.890        13
27.900        20
27.910        13
27.920         7
27.930         7
27.940        33
27.950        40
27.960        20
27.970        27
27.980        20
27.990        20
28.000        27
28.010        13
28.020        13
28.030        33
28.040         7
28.050        33
28.060         7
28.070        40
28.080        27
28.090        60
28.100        33
28.110        20
28.120        33
28.130        27
28.140        20
28.150        40
28.160        27
28.170        40
28.180        47
28.190        33
28.200        40
28.210        40
28.220        33
28.230        13
28.240        27
28.250        60
28.260        33
28.270        27
28.280        33
28.290        27
28.300        40
28.310        27
28.320         7
28.330        20
28.340        27
28.350        27
28.360        27
28.370        40
28.380        73
28.390        40
28.400        27
28.410        20
28.420        20
28.430        20
28.440         0
28.450        33
28.460        33
28.470        47
28.480        20
28.490        33
28.500        27
28.510        60
28.520        53
28.530        33
28.540        20
28.550        53
28.560        13
28.570         7
28.580        33
28.590         7
28.600        27
28.610        13
28.620        40
28.630        40
28.640        47
28.650        20
28.660        27
28.670        27
28.680         7
28.690        33
28.700        33
28.710        33
28.720         7
28.730        13
28.740         7
28.750        20
28.760        13
28.770        33
28.780        27
28.790        47
28.800        33
28.810        27
28.820        40
28.830         7
28.840        40
28.850        27
28.860        40
28.870        47
28.880        13
28.890        20
28.900         7
28.910        20
28.920        33
28.930        40
28.940        40
28.950        33
28.960        20
28.970        20
28.980        27
28.990        13
29.000        40
29.010        60
29.020        27
29.030        33
29.040        20
29.050        47
29.060        80
29.070        20
29.080        27
29.090        13
29.100        40
29.110        40
29.120        40
29.130        33
29.140        33
29.150        47
29.160        47
29.170        27
29.180        53
29.190        13
29.200        47
29.210        73
29.220        13
29.230        27
29.240        33
29.250        20
29.260        47
29.270        27
29.280        53
29.290        60
29.300        20
29.310        60
29.320        40
29.330        40
29.340        47
29.350        33
29.360        27
29.370        27
29.380        40
29.390        33
29.400        27
29.410        13
29.420        53
29.430        13
29.440        13
29.450        27
29.460        40
29.470        33
29.480        13
29.490         0
29.500        13
29.510        33
29.520        27
29.530        27
29.540        33
29.550        20
29.560        47
29.570        13
29.580        33
29.590        47
29.600         7
29.610        13
29.620        20
29.630        27
29.640        13
29.650         7
29.660         7
29.670        13
29.680        27
29.690        27
29.700        13
29.710        20
29.720        40
29.730        20
29.740        20
29.750        13
29.760        13
29.770         7
29.780        33
29.790        13
29.800        33
29.810        13
29.820        13
29.830        33
29.840        40
29.850        20
29.860        33
29.870        47
29.880        13
29.890        20
29.900        13
29.910        20
29.920        20
29.930        33
29.940        27
29.950        40
29.960        47
29.970        47
29.980        27
29.990        13
30.000        53
30.010        20
30.020        13
30.030        33
30.040        27
30.050        13
30.060        33
30.070         7
30.080        27
30.090        53
30.100        27
30.110        27
30.120        33
30.130        20
30.140        40
30.150        47
30.160        60
30.170         7
30.180        27
30.190        20
30.200         7
30.210        40
30.220        20
30.230        13
30.240        47
30.250         0
30.260        20
30.270        20
30.280         7
30.290        33
30.300        40
30.310         7
30.320        47
30.330         7
30.340        40
30.350         7
30.360        27
30.370        20
30.380        47
30.390        33
30.400        27
30.410        47
30.420        20
30.430        13
30.440        33
30.450        13
30.460        33
30.470        20
30.480        27
30.490        27
30.500        40
30.510        27
30.520        20
30.530        40
30.540        13
30.550        33
30.560        40
30.570        27
30.580        20
30.590        27
30.600        53
30.610         7
30.620        33
30.630        27
30.640        47
30.650        60
30.660        33
30.670        13
30.680        40
30.690        33
30.700       147
30.710        27
30.720        33
30.730         7
30.740        27
30.750        13
30.760        20
30.770        33
30.780        27
30.790        40
30.800         7
30.810        20
30.820        67
30.830        13
30.840        13
30.850        13
30.860        20
30.870        33
30.880        27
30.890        47
30.900        13
30.910        47
30.920        33
30.930        20
30.940         7
30.950        20
30.960        27
30.970        33
30.980        33
30.990        47
31.000        13
31.010        33
31.020        20
31.030        60
31.040        20
31.050        27
31.060        20
31.070        13
31.080        27
31.090        40
31.100        20
31.110        47
31.120        27
31.130        27
31.140        20
31.150        20
31.160        33
31.170        33
31.180        13
31.190        13
31.200        47
31.210         7
31.220        47
31.230        33
31.240        40
31.250        27
31.260        33
31.270        27
31.280        33
31.290        47
31.300        33
31.310        20
31.320        13
31.330        47
31.340        40
31.350        20
31.360        27
31.370        33
31.380         7
31.390        27
31.400         7
31.410        40
31.420        27
31.430         7
31.440        40
31.450        33
31.460        47
31.470        27
31.480        27
31.490        40
31.500        27
31.510        87
31.520        27
31.530        27
31.540        13
31.550        20
31.560        33
31.570        47
31.580        13
31.590        20
31.600         7
31.610        13
31.620        20
31.630        47
31.640        53
31.650        40
31.660        40
31.670        47
31.680        20
31.690        20
31.700        20
31.710        40
31.720        40
31.730        40
31.740        47
31.750        20
31.760         7
31.770        33
31.780        33
31.790        33
31.800        27
31.810        53
31.820        67
31.830        80
31.840        53
31.850        53
31.860        33
31.870        13
31.880        53
31.890        67
31.900        20
31.910        93
31.920        40
31.930        53
31.940        47
31.950        40
31.960        47
31.970        47
31.980        60
31.990        73
32.000        53
32.010        47
32.020        40
32.030        53
32.040        93
32.050        60
32.060        87
32.070        40
32.080        67
32.090       120
32.100        67
32.110        73
32.120        93
32.130        87
32.140       127
32.150        40
32.160       107
32.170       107
32.180       140
32.190        53
32.200       113
32.210       100
32.220       127
32.230       107
32.240       127
32.250       100
32.260       120
32.270       100
32.280       160
32.290       140
32.300       187
32.310       147
32.320        67
32.330       107
32.340       167
32.350       127
32.360       133
32.370       133
32.380       113
32.390       127
32.400        93
32.410        80
32.420        93
32.430        93
32.440        93
32.450        60
32.460        87
32.470        93
32.480        80
32.490       127
32.500        80
32.510       107
32.520        73
32.530        60
32.540        67
32.550        73
32.560        73
32.570        47
32.580        40
32.590        60
32.600        80
32.610        33
32.620        73
32.630        40
32.640        27
32.650        73
32.660        80
32.670        20
32.680        33
32.690        27
32.700        47
32.710        20
32.720        73
32.730        40
32.740        40
32.750        67
32.760        33
32.770        53
32.780        60
32.790        20
32.800        33
32.810        47
32.820        20
32.830        20
32.840        27
32.850        40
32.860        27
32.870        47
32.880         7
32.890        47
32.900        27
32.910        20
32.920        40
32.930        33
32.940        33
32.950        60
32.960        27
32.970        33
32.980        33
32.990        20
33.000        47
33.010        33
33.020        20
33.030        20
33.040        27
33.050        53
33.060        20
33.070        33
33.080        33
33.090        40
33.100        13
33.110         7
33.120        27
33.130        33
33.140        27
33.150        33
33.160        53
33.170         7
33.180        20
33.190        33
33.200        13
33.210        40
33.220         7
33.230        27
33.240         7
33.250        27
33.260        33
33.270        33
33.280         7
33.290        40
33.300        40
33.310        20
33.320        13
33.330        13
33.340        53
33.350        20
33.360        40
33.370        27
33.380        40
33.390        27
33.400        13
33.410        27
33.420        53
33.430        53
33.440        27
33.450        13
33.460        27
33.470        13
33.480        27
33.490        27
33.500        33
33.510        13
33.520        27
33.530        13
33.540        13
33.550        20
33.560        20
33.570        27
33.580         7
33.590        20
33.600        20
33.610        40
33.620        40
33.630        33
33.640        20
33.650        20
33.660        20
33.670        40
33.680        13
33.690        40
33.700        27
33.710        27
33.720        40
33.730        33
33.740        20
33.750        40
33.760        33
33.770        47
33.780        13
33.790         7
33.800        20
33.810        20
33.820        33
33.830        27
33.840        13
33.850        13
33.860        40
33.870        13
33.880         7
33.890         7
33.900        27
33.910        27
33.920        27
33.930        20
33.940        20
33.950        27
33.960        20
33.970        20
33.980         7
33.990        13
34.000        13
34.010        13
34.020        47
34.030        13
34.040        20
34.050        33
34.060        13
34.070        20
34.080        20
34.090        40
34.100        40
34.110        47
34.120         7
34.130         0
34.140         0
34.150        27
34.160         0
34.170        40
34.180        27
34.190        20
34.200        33
34.210        20
34.220        13
34.230         7
34.240        13
34.250         7
34.260        33
34.270        33
34.280        13
34.290        13
34.300        33
34.310         7
34.320        20
34.330        27
34.340         7
34.350        27
34.360        33
34.370        20
34.380        13
34.390        27
34.400        20
34.410        27
34.420        33
34.430        20
34.440        47
34.450        20
34.460        27
34.470        13
34.480        20
34.490        33
34.500         0
34.510        27
34.520        20
34.530        13
34.540        20
34.550        27
34.560        33
34.570        27
34.580        40
34.590        20
34.600        53
34.610        27
34.620        20
34.630        33
34.640        20
34.650        20
34.660        47
34.670        27
34.680        20
34.690        20
34.700        20
34.710         7
34.720        27
34.730        33
34.740         7
34.750        33
34.760        27
34.770        40
34.780        27
34.790        20
34.800        53
34.810        20
34.820        40
34.830        13
34.840        53
34.850        27
34.860        27
34.870        40
34.880        13
34.890         7
34.900        20
34.910        33
34.920        40
34.930        47
34.940        40
34.950        33
34.960        53
34.970        67
34.980        27
34.990        60
35.000        60
35.010       120
35.020       113
35.030        80
35.040        73
35.050        60
35.060        73
35.070       147
35.080       127
35.090       173
35.100       227
35.110       193
35.120       173
35.130       327
35.140       320
35.150       353
35.160       440
35.170       460
35.180       433
35.190       420
35.200       473
35.210       353
35.220       433
35.230       287
35.240       273
35.250       273
35.260       233
35.270       207
35.280       273
35.290       220
35.300       147
35.310       180
35.320       127
35.330       107
35.340        80
35.350        73
35.360        67
35.370        47
35.380        27
35.390        20
35.400        53
35.410        27
35.420        53
35.430        27
35.440        33
35.450        20
35.460        20
35.470        33
35.480        33
35.490        20
35.500        33
35.510        27
35.520        27
35.530        33
35.540        20
35.550        20
35.560        20
35.570         7
35.580        33
35.590        20
35.600         7
35.610        33
35.620        33
35.630         7
35.640        13
35.650        13
35.660        33
35.670         7
35.680        13
35.690        33
35.700        33
35.710        13
35.720         0
35.730        13
35.740        27
35.750        60
35.760        33
35.770        33
35.780        33
35.790        33
35.800         7
35.810        13
35.820        20
35.830        27
35.840         7
35.850        33
35.860        13
35.870        13
35.880        27
35.890        53
35.900        13
35.910        40
35.920        47
35.930        27
35.940        13
35.950        13
35.960         7
35.970        20
35.980        27
35.990        20
36.000         7
36.010        40
36.020        40
36.030        27
36.040        20
36.050        13
36.060        13
36.070         0
36.080         7
36.090        53
36.100        20
36.110         0
36.120        13
36.130        20
36.140        20
36.150        27
36.160        27
36.170        20
36.180        40
36.190         0
36.200        20
36.210        20
36.220        20
36.230        13
36.240        27
36.250        60
36.260         7
36.270        40
36.280        20
36.290        40
36.300        60
36.310        13
36.320         7
36.330         7
36.340        27
36.350        13
36.360        20
36.370        20
36.380        40
36.390         7
36.400        33
36.410        20
36.420         0
36.430        13
36.440        40
36.450        13
36.460        20
36.470        33
36.480        13
36.490        33
36.500        13
36.510         0
36.520        13
36.530        13
36.540        27
36.550        27
36.560        27
36.570        13
36.580        20
36.590        20
36.600        13
36.610        27
36.620         7
36.630         0
36.640        20
36.650         7
36.660        13
36.670        20
36.680        20
36.690         7
36.700        13
36.710        20
36.720        13
36.730        33
36.740        13
36.750         7
36.760        27
36.770        27
36.780         7
36.790        13
36.800        20
36.810         7
36.820        20
36.830        40
36.840        13
36.850        27
36.860         7
36.870        13
36.880        20
36.890        20
36.900        27
36.910         7
36.920         7
36.930        27
36.940        13
36.950        13
36.960        27
36.970        13
36.980        33
36.990        27
37.000        53
37.010        20
37.020        33
37.030         7
37.040        20
37.050        27
37.060        20
37.070        20
37.080         7
37.090        40
37.100        13
37.110        20
37.120        33
37.130        20
37.140         7
37.150        33
37.160        33
37.170        20
37.180        27
37.190         0
37.200        13
37.210        27
37.220        27
37.230        33
37.240        40
37.250        27
37.260        13
37.270         7
37.280         7
37.290        20
37.300        13
37.310         7
37.320        13
37.330        20
37.340        13
37.350        20
37.360        13
37.370        20
37.380        60
37.390        20
37.400        40
37.410         7
37.420        27
37.430        47
37.440         0
37.450        13
37.460        20
37.470        27
37.480        33
37.490        33
37.500        33
37.510        33
37.520        40
37.530        13
37.540        33
37.550        27
37.560        47
37.570        13
37.580         0
37.590        27
37.600        27
37.610        20
37.620        20
37.630        40
37.640        73
37.650        67
37.660        67
37.670        73
37.680        47
37.690        33
37.700        60
37.710        60
37.720        20
37.730        47
37.740       100
37.750        80
37.760       100
37.770       113
37.780       160
37.790       140
37.800       187
37.810       247
37.820       227
37.830       147
37.840       120
37.850       127
37.860       107
37.870        60
37.880        93
37.890        87
37.900       140
37.910        53
37.920        93
37.930       127
37.940       100
37.950        20
37.960        53
37.970        53
37.980        27
37.990        13
38.000        13
38.010        13
38.020        20
38.030        27
38.040        13
38.050        13
38.060        13
38.070        13
38.080        27
38.090        13
38.100        20
38.110         7
38.120        33
38.130        20
38.140        13
38.150        33
38.160        20
38.170        40
38.180        20
38.190        20
38.200        27
38.210        40
38.220        20
38.230        20
38.240        20
38.250        13
38.260        20
38.270        13
38.280        40
38.290        20
38.300        13
38.310        20
38.320        27
38.330         7
38.340        47
38.350         0
38.360        27
38.370        20
38.380        40
38.390        27
38.400        47
38.410        20
38.420         7
38.430        40
38.440         7
38.450         0
38.460        40
38.470        20
38.480         7
38.490         7
38.500         7
38.510        20
38.520        20
38.530        47
38.540        40
38.550        20
38.560        33
38.570        13
38.580        13
38.590         7
38.600        53
38.610        13
38.620        13
38.630        27
38.640        27
38.650        13
38.660        40
38.670        27
38.680         7
38.690        27
38.700        40
38.710        20
38.720        40
38.730        33
38.740        13
38.750        20
38.760        33
38.770        27
38.780        13
38.790        13
38.800        20
38.810        13
38.820        33
38.830        13
38.840        13
38.850         7
38.860        13
38.870        27
38.880        20
38.890         0
38.900         0
38.910         0
38.920         7
38.930        27
38.940         7
38.950        40
38.960        20
38.970        33
38.980        20
38.990        20
39.000        33
39.010         0
39.020        27
39.030        33
39.040        40
39.050        40
39.060         7
39.070        27
39.080        27
39.090        20
39.100        20
39.110        33
39.120        47
39.130         7
39.140        33
39.150        20
39.160        13
39.170        13
39.180        33
39.190        27
39.200        20
39.210         7
39.220        13
39.230        47
39.240        33
39.250        33
39.260        20
39.270        20
39.280        33
39.290         7
39.300        33
39.310        27
39.320        40
39.330        33
39.340        13
39.350        27
39.360        13
39.370        27
39.380        47
39.390        13
39.400        20
39.410        27
39.420        40
39.430         0
39.440        27
39.450        27
39.460        20
39.470        27
39.480        40
39.490         7
39.500        20
39.510        33
39.520        40
39.530        47
39.540        33
39.550         0
39.560        13
39.570        40
39.580        27
39.590        27
39.600        13
39.610        13
39.620         0
39.630        27
39.640        13
39.650         7
39.660        20
39.670        33
39.680        27
39.690         0
39.700        20
39.710        27
39.720        27
39.730        33
39.740        13
39.750        27
39.760        47
39.770        27
39.780        20
39.790        20
39.800        33
39.810        33
39.820        40
39.830        40
39.840        53
39.850        40
39.860        47
39.870        20
39.880        27
39.890        60
39.900        20
39.910        33
39.920        40
39.930        20
39.940        33
39.950        13
39.960        20
39.970        20
39.980        40
39.990        40
40.000       107
40.010        53
40.020        47
40.030        40
40.040        27
40.050        20
40.060        27
40.070        13
40.080        27
40.090        27
40.100        20
40.110        40
40.120        47
40.130        13
40.140        33
40.150        20
40.160        53
40.170        53
40.180         7
40.190         7
40.200        27
40.210        20
40.220        20
40.230        40
40.240        27
40.250        47
40.260        13
40.270        40
40.280         7
40.290        13
40.300        27
40.310        20
40.320        27
40.330        13
40.340        20
40.350        40
40.360        20
40.370        20
40.380        53
40.390        47
40.400        47
40.410        20
40.420         7
40.430        27
40.440        20
40.450        13
40.460         7
40.470        27
40.480        40
40.490        33
40.500        20
40.510         7
40.520        20
40.530         0
40.540         7
40.550        47
40.560        13
40.570        20
40.580         7
40.590        27
40.600         7
40.610        40
40.620        40
40.630        20
40.640         7
40.650        40
40.660         7
40.670        27
40.680        20
40.690        27
40.700        27
40.710         7
40.720        27
40.730        13
40.740         7
40.750        20
40.760         0
40.770         7
40.780         7
40.790        27
40.800        13
40.810        27
40.820        27
40.830         7
40.840        13
40.850        33
40.860         7
40.870        33
40.880        20
40.890        13
40.900        27
40.910        20
40.920        20
40.930        20
40.940         7
40.950         7
40.960        27
40.970        27
40.980        40
40.990        47
41.000         7
41.010        13
41.020         7
41.030        27
41.040        60
41.050        27
41.060        20
41.070        20
41.080        20
41.090        20
41.100        13
41.110        20
41.120        33
41.130        20
41.140        13
41.150        20
41.160        27
41.170        13
41.180        33
41.190        13
41.200        33
41.210         0
41.220        13
41.230         7
41.240        40
41.250        40
41.260         7
41.270         0
41.280        13
41.290        33
41.300        27
41.310        13
41.320        40
41.330        13
41.340        33
41.350        20
41.360        20
41.370        33
41.380        20
41.390        20
41.400        20
41.410        40
41.420         7
41.430         7
41.440        33
41.450        13
41.460        33
41.470        27
41.480        47
41.490        33
41.500        13
41.510        20
41.520        53
41.530        13
41.540        13
41.550        33
41.560        27
41.570        27
41.580        20
41.590        20
41.600        33
41.610        33
41.620        33
41.630        87
41.640        27
41.650        47
41.660       107
41.670        87
41.680       120
41.690        87
41.700        80
41.710       107
41.720       107
41.730        87
41.740        80
41.750        53
41.760        67
41.770        40
41.780        67
41.790        27
41.800        80
41.810        60
41.820        27
41.830        33
41.840        60
41.850        67
41.860        13
41.870        27
41.880        47
41.890        13
41.900        13
41.910        53
41.920        13
41.930        13
41.940        33
41.950        13
41.960        47
41.970        13
41.980        20
41.990         7
42.000        13
42.010        13
42.020        27
42.030         0
42.040        40
42.050        33
42.060        40
42.070        40
42.080        13
42.090        27
42.100        27
42.110        20
42.120        27
42.130        20
42.140        27
42.150        20
42.160         7
42.170        27
42.180        13
42.190        47
42.200        20
42.210        20
42.220        27
42.230         7
42.240        27
42.250        40
42.260         0
42.270        20
42.280        20
42.290        27
42.300        20
42.310        27
42.320         7
42.330        27
42.340         7
42.350         0
42.360        13
42.370        33
42.380         7
42.390        27
42.400         7
42.410        53
42.420        13
42.430        20
42.440        47
42.450        33
42.460        20
42.470        27
42.480        33
42.490        13
42.500        33
42.510         7
42.520        27
42.530        27
42.540        13
42.550        20
42.560        40
42.570        27
42.580         7
42.590        27
42.600        20
42.610        27
42.620        27
42.630        20
42.640         0
42.650         7
42.660        13
42.670        53
42.680        27
42.690        27
42.700        40
42.710        20
42.720        20
42.730        27
42.740        20
42.750        13
42.760         7
42.770        40
42.780        20
42.790        27
42.800        27
42.810        20
42.820         7
42.830        47
42.840        13
42.850        27
42.860         0
42.870         7
42.880        33
42.890        40
42.900        20
42.910        47
42.920        20
42.930        20
42.940        20
42.950        47
42.960        47
42.970        13
42.980        20
42.990        33
43.000        33
43.010        20
43.020        33
43.030         7
43.040        27
43.050        47
43.060        20
43.070        20
43.080        47
43.090        20
43.100        60
43.110        33
43.120        27
43.130        33
43.140        40
43.150        13
43.160        27
43.170        20
43.180        80
43.190        93
43.200        40
43.210        33
43.220        47
43.230        20
43.240        20
43.250        53
43.260        60
43.270        87
43.280        80
43.290        60
43.300        53
43.310        93
43.320       120
43.330       113
43.340        93
43.350       173
43.360       247
43.370       187
43.380       313
43.390       300
43.400       153
43.410       193
43.420       253
43.430       180
43.440       167
43.450       120
43.460       153
43.470       107
43.480       133
43.490       113
43.500       113
43.510       193
43.520       127
43.530       160
43.540       133
43.550        93
43.560        40
43.570        27
43.580        27
43.590        33
43.600        60
43.610        60
43.620        27
43.630        13
43.640        20
43.650        20
43.660        33
43.670        40
43.680        33
43.690        13
43.700         7
43.710        13
43.720        40
43.730        33
43.740        27
43.750        27
43.760        47
43.770        40
43.780        33
43.790        13
43.800        33
43.810        33
43.820        47
43.830        27
43.840        13
43.850        27
43.860        67
43.870        27
43.880        33
43.890        27
43.900         7
43.910        33
43.920        27
43.930        40
43.940        27
43.950        13
43.960        20
43.970        33
43.980        27
43.990        33
44.000        13
44.010         7
44.020        60
44.030        13
44.040        40
44.050        13
44.060        33
44.070        60
44.080        20
44.090        27
44.100        27
44.110        33
44.120        40
44.130        27
44.140        33
44.150        33
44.160        40
44.170        20
44.180        53
44.190        20
44.200        33
44.210        27
44.220        27
44.230        53
44.240        27
44.250        40
44.260        27
44.270        27
44.280        27
44.290        20
44.300        27
44.310        53
44.320        47
44.330        67
44.340        20
44.350        40
44.360        13
44.370        40
44.380        60
44.390         7
44.400        33
44.410        27
44.420        13
44.430        60
44.440        40
44.450        20
44.460        53
44.470        13
44.480        40
44.490        40
44.500        40
44.510        20
44.520        47
44.530        47
44.540        27
44.550        33
44.560        27
44.570        53
44.580        20
44.590        33
44.600        27
44.610        13
44.620        47
44.630        87
44.640        40
44.650        33
44.660        67
44.670        60
44.680        33
44.690        53
44.700        53
44.710        47
44.720        13
44.730        67
44.740        87
44.750        53
44.760        40
44.770        40
44.780        47
44.790        33
44.800        40
44.810        73
44.820        40
44.830        27
44.840        73
44.850        87
44.860        33
44.870        73
44.880        47
44.890        73
44.900        20
44.910        87
44.920        53
44.930        47
44.940        40
44.950        40
44.960        47
44.970        60
44.980        80
44.990        73
45.000        47
45.010       113
45.020        60
45.030        47
45.040        20
45.050        53
45.060        80
45.070        33
45.080       107
45.090        67
45.100        80
45.110        93
45.120        47
45.130       100
45.140        87
45.150       107
45.160        93
45.170       100
45.180       113
45.190        93
45.200       100
45.210       113
45.220       153
45.230        87
45.240       127
45.250       100
45.260       127
45.270       113
45.280        67
45.290        87
45.300       140
45.310       107
45.320       100
45.330       133
45.340       107
45.350       127
45.360       153
45.370        87
45.380       127
45.390       147
45.400       173
45.410       173
45.420       167
45.430       147
45.440       213
45.450       140
45.460       167
45.470       140
45.480       193
45.490       180
45.500       207
45.510       140
45.520       287
45.530       220
45.540       300
45.550       253
45.560       233
45.570       300
45.580       233
45.590       253
45.600       267
45.610       307
45.620       273
45.630       273
45.640       280
45.650       287
45.660       380
45.670       307
45.680       380
45.690       240
45.700       333
45.710       360
45.720       426
45.730       426
45.740       380
45.750       393
45.760       407
45.770       407
45.780       347
45.790       433
45.800       453
45.810       400
45.820       473
45.830       400
45.840       566
45.850       380
45.860       566
45.870       453
45.880       613
45.890       586
45.900       580
45.910       380
45.920       493
45.930       493
45.940       753
45.950       626
45.960       580
45.970       586
45.980       586
45.990       633
46.000       660
46.010       646
46.020       660
46.030       646
46.040       486
46.050       593
46.060       673
46.070       600
46.080       613
46.090       566
46.100       593
46.110       700
46.120       613
46.130       566
46.140       680
46.150       560
46.160       553
46.170       600
46.180       646
46.190       680
46.200       746
46.210       640
46.220       606
46.230       600
46.240       600
46.250       533
46.260       486
46.270       566
46.280       387
46.290       580
46.300       593
46.310       620
46.320       473
46.330       546
46.340       413
46.350       420
46.360       513
46.370       327
46.380       546
46.390       460
46.400       433
46.410       413
46.420       380
46.430       480
46.440       420
46.450       387
46.460       387
46.470       440
46.480       400
46.490       360
46.500       293
46.510       360
46.520       253
46.530       287
46.540       300
46.550       347
46.560       300
46.570       307
46.580       227
46.590       287
46.600       313
46.610       207
46.620       273
46.630       220
46.640       307
46.650       227
46.660       273
46.670       140
46.680       247
46.690       260
46.700       167
46.710       167
46.720       187
46.730       160
46.740       180
46.750       180
46.760       140
46.770       173
46.780       187
46.790       147
46.800       180
46.810       107
46.820       180
46.830       140
46.840       173
46.850       180
46.860       127
46.870       147
46.880       120
46.890       113
46.900        73
46.910       100
46.920       167
46.930        93
46.940       100
46.950       120
46.960       100
46.970       113
46.980        87
46.990        87
47.000        80
47.010        93
47.020        93
47.030        93
47.040       113
47.050       127
47.060        73
47.070        40
47.080        80
47.090        73
47.100        60
47.110       100
47.120        87
47.130       113
47.140       120
47.150        67
47.160        47
47.170        80
47.180        87
47.190        73
47.200        67
47.210        93
47.220        60
47.230        80
47.240        67
47.250       107
47.260        60
47.270        60
47.280        67
47.290        27
47.300        80
47.310        53
47.320        60
47.330        47
47.340       100
47.350        53
47.360        53
47.370        67
47.380        40
47.390        60
47.400        53
47.410        67
47.420        47
47.430        47
47.440        27
47.450        33
47.460        40
47.470        47
47.480        73
47.490        27
47.500        93
47.510        33
47.520        60
47.530        53
47.540        80
47.550        53
47.560        40
47.570        27
47.580        67
47.590        13
47.600        47
47.610        33
47.620        60
47.630        47
47.640        40
47.650        13
47.660        53
47.670        40
47.680        60
47.690        27
47.700        60
47.710        40
47.720        60
47.730        47
47.740        33
47.750        27
47.760        47
47.770        27
47.780        33
47.790         0
47.800        27
47.810        27
47.820        27
47.830        20
47.840        20
47.850        60
47.860        47
47.870        20
47.880        47
47.890        27
47.900        13
47.910        20
47.920        67
47.930        67
47.940        27
47.950        40
47.960        13
47.970        47
47.980        27
47.990        33
48.000        33
48.010        53
48.020        40
48.030        47
48.040        33
48.050        33
48.060        13
48.070        40
48.080        20
48.090        27
48.100        33
48.110        47
48.120        20
48.130        27
48.140        27
48.150        33
48.160        13
48.170        27
48.180        27
48.190        33
48.200        40
48.210        27
48.220        27
48.230        40
48.240        33
48.250        20
48.260        20
48.270        40
48.280        47
48.290        27
48.300        40
48.310        27
48.320        20
48.330        47
48.340        60
48.350        33
48.360        47
48.370        20
48.380        27
48.390        27
48.400        27
48.410        73
48.420        40
48.430        20
48.440        40
48.450        40
48.460        47
48.470        33
48.480        53
48.490        13
48.500        20
48.510        27
48.520        40
48.530        33
48.540        20
48.550        40
48.560        60
48.570        47
48.580        27
48.590        27
48.600        53
48.610        33
48.620        33
48.630        13
48.640        27
48.650        67
48.660        33
48.670        27
48.680        40
48.690        13
48.700        40
48.710        40
48.720        27
48.730        27
48.740        20
48.750         0
48.760        40
48.770        20
48.780         7
48.790        33
48.800        13
48.810        40
48.820         7
48.830        13
48.840        20
48.850        33
48.860        20
48.870        33
48.880        13
48.890         7
48.900        20
48.910        33
48.920        20
48.930        27
48.940        40
48.950        13
48.960        27
48.970        13
48.980        33
48.990        33
49.000        33
49.010        47
49.020        33
49.030        27
49.040         0
49.050        27
49.060         7
49.070        40
49.080        73
49.090        27
49.100        27
49.110        13
49.120        20
49.130        33
49.140        13
49.150        13
49.160        20
49.170        40
49.180        33
49.190        13
49.200        33
49.210        13
49.220        40
49.230        33
49.240         7
49.250        13
49.260        60
49.270        20
49.280        20
49.290        40
49.300        13
49.310        20
49.320        20
49.330        47
49.340        33
49.350        27
49.360        20
49.370        20
49.380        27
49.390        27
49.400        13
49.410        40
49.420        20
49.430        27
49.440        20
49.450         7
49.460        20
49.470        20
49.480        13
49.490        13
49.500        33
49.510        20
49.520        13
49.530        13
49.540        33
49.550        20
49.560        13
49.570        13
49.580        20
49.590        40
49.600        33
49.610        13
49.620        20
49.630        20
49.640        27
49.650        20
49.660        13
49.670         7
49.680         7
49.690        33
49.700        13
49.710        47
49.720        27
49.730        53
49.740        13
49.750        20
49.760        20
49.770        33
49.780         7
49.790        27
49.800         7
49.810        13
49.820        27
49.830         0
49.840        20
49.850        40
49.860         7
49.870        33
49.880        20
49.890        13
49.900         7
49.910        13
49.920        33
49.930        20
49.940        20
49.950        27
49.960        27
49.970        27
49.980        47
49.990        20
50.000        33
50.010        20
50.020        20
50.030        27
50.040        27
50.050        27
50.060        13
50.070         7
50.080        20
50.090        27
50.100        27
50.110        13
50.120         0
50.130        27
50.140        20
50.150        20
50.160        33
50.170        13
50.180         7
50.190        40
50.200        33
50.210        13
50.220         7
50.230        20
50.240        13
50.250        33
50.260        20
50.270        20
50.280        27
50.290        20
50.300         7
50.310        27
50.320         7
50.330        13
50.340        13
50.350        13
50.360        20
50.370        13
50.380        20
50.390        20
50.400        33
50.410        13
50.420        20
50.430        20
50.440         7
50.450        33
50.460        27
50.470         7
50.480         0
50.490        13
50.500        27
50.510        33
50.520        27
50.530        33
50.540        20
50.550        13
50.560        27
50.570         7
50.580        20
50.590        13
50.600        13
50.610         7
50.620        27
50.630        20
50.640        33
50.650         0
50.660        20
50.670        27
50.680        13
50.690        13
50.700        40
50.710        27
50.720        13
50.730        20
50.740        20
50.750        20
50.760         7
50.770        20
50.780         7
50.790         7
50.800        20
50.810        27
50.820        13
50.830        47
50.840        20
50.850        20
50.860        40
50.870        47
50.880        13
50.890        47
50.900        20
50.910         7
50.920        20
50.930        27
50.940         7
50.950        33
50.960        20
50.970        47
50.980        13
50.990        13
51.000        27
51.010        27
51.020        27
51.030        40
51.040        27
51.050        33
51.060        40
51.070        20
51.080        27
51.090        20
51.100         0
51.110        13
51.120        27
51.130        20
51.140        13
51.150        33
51.160        27
51.170        27
51.180        13
51.190        40
51.200        20
51.210        33
51.220        33
51.230        20
51.240        27
51.250        47
51.260        20
51.270         7
51.280        33
51.290        27
51.300        13
51.310        33
51.320        27
51.330        13
51.340        13
51.350        27
51.360        13
51.370        27
51.380        27
51.390        13
51.400        33
51.410        13
51.420         7
51.430         7
51.440        27
51.450        27
51.460        53
51.470        20
51.480        33
51.490        13
51.500        13
51.510        27
51.520        20
51.530        33
51.540        20
51.550        40
51.560        27
51.570        33
51.580        13
51.590        20
51.600         7
51.610        33
51.620        27
51.630        13
51.640        13
51.650         7
51.660        13
51.670        13
51.680        20
51.690         7
51.700        27
51.710        13
51.720        13
51.730        27
51.740        47
51.750        20
51.760        20
51.770        13
51.780        13
51.790         7
51.800        13
51.810        20
51.820        40
51.830        13
51.840        13
51.850        20
51.860        33
51.870         7
51.880        20
51.890         0
51.900        13
51.910        20
51.920        20
51.930        40
51.940        27
51.950        13
51.960        27
51.970        20
51.980        20
51.990        20
52.000        13
52.010         7
52.020        27
52.030        13
52.040        27
52.050         7
52.060        47
52.070         7
52.080         0
52.090        13
52.100        13
52.110        20
52.120        20
52.130        33
52.140        33
52.150        33
52.160        53
52.170         0
52.180        47
52.190        27
52.200        13
52.210        33
52.220        27
52.230         7
52.240        20
52.250        20
52.260        20
52.270        27
52.280        33
52.290        27
52.300        33
52.310         0
52.320        20
52.330        40
52.340        20
52.350        47
52.360        47
52.370        20
52.380        27
52.390        13
52.400        40
52.410        20
52.420        33
52.430        27
52.440        33
52.450        20
52.460        53
52.470        60
52.480        93
52.490        53
52.500       167
52.510       220
52.520       340
52.530       460
52.540       387
52.550       566
52.560       493
52.570       433
52.580       373
52.590       373
52.600       373
52.610       320
52.620       213
52.630       133
52.640       167
52.650       133
52.660       207
52.670       187
52.680       227
52.690       260
52.700       240
52.710       293
52.720       267
52.730       267
52.740       160
52.750       140
52.760       153
52.770       100
52.780        60
52.790        40
52.800        40
52.810        33
52.820        20
52.830        53
52.840        27
52.850        53
52.860        20
52.870        13
52.880        27
52.890        13
52.900        27
52.910        20
52.920        20
52.930        33
52.940        53
52.950        20
52.960         7
52.970        27
52.980        13
52.990        27
53.000         7
53.010        13
53.020         7
53.030        20
53.040        33
53.050         7
53.060        40
53.070        27
53.080        20
53.090         7
53.100        33
53.110        20
53.120        27
53.130        20
53.140         7
53.150        13
53.160        13
53.170         7
53.180        20
53.190        20
53.200         7
53.210         7
53.220         7
53.230        33
53.240        20
53.250        13
53.260        20
53.270        20
53.280        40
53.290        20
53.300        27
53.310         0
53.320         7
53.330        13
53.340        20
53.350        13
53.360         7
53.370        33
53.380        27
53.390        20
53.400        13
53.410         7
53.420        27
53.430        20
53.440        13
53.450        13
53.460        13
53.470         7
53.480        20
53.490        13
53.500        20
53.510         7
53.520        13
53.530        27
53.540        27
53.550        20
53.560        13
53.570        20
53.580        13
53.590        27
53.600        33
53.610        20
53.620         7
53.630        13
53.640        20
53.650        20
53.660        13
53.670         7
53.680         7
53.690         0
53.700        27
53.710         7
53.720        13
53.730        13
53.740        13
53.750         7
53.760         7
53.770         7
53.780        33
53.790        13
53.800         7
53.810        13
53.820        13
53.830        27
53.840        13
53.850        13
53.860        13
53.870        20
53.880        33
53.890        33
53.900         7
53.910        20
53.920        33
53.930         7
53.940        40
53.950        27
53.960        20
53.970        40
53.980        13
53.990        20
54.000         7
54.010        13
54.020        27
54.030        20
54.040        33
54.050        13
54.060        20
54.070        20
54.080        13
54.090        13
54.100        60
54.110         0
54.120        13
54.130        47
54.140         0
54.150        13
54.160        27
54.170        60
54.180        27
54.190        27
54.200        13
54.210         7
54.220        27
54.230        40
54.240        13
54.250        13
54.260        27
54.270        27
54.280        20
54.290        40
54.300        13
54.310        13
54.320        13
54.330        27
54.340         7
54.350         0
54.360         7
54.370         0
54.380        40
54.390        20
54.400         7
54.410        27
54.420        40
54.430        33
54.440        33
54.450        27
54.460        13
54.470        27
54.480        27
54.490        13
54.500        20
54.510        13
54.520        20
54.530        13
54.540        13
54.550        20
54.560        53
54.570        20
54.580        20
54.590        40
54.600         0
54.610        13
54.620        13
54.630         7
54.640        13
54.650         7
54.660        13
54.670        27
54.680        20
54.690        20
54.700         7
54.710        20
54.720        20
54.730        13
54.740         0
54.750        13
54.760        33
54.770        13
54.780        13
54.790         7
54.800        20
54.810        27
54.820         7
54.830        27
54.840        13
54.850         7
54.860        33
54.870         7
54.880        33
54.890         7
54.900        20
54.910         7
54.920        33
54.930         7
54.940        20
54.950         7
54.960        20
54.970         7
54.980        13
54.990         7
55.000        27
55.010         7
55.020        33
55.030        13
55.040         7
55.050        20
55.060        27
55.070        20
55.080         7
55.090         0
55.100        27
55.110         7
55.120        20
55.130         7
55.140        27
55.150        20
55.160        27
55.170         7
55.180        13
55.190        13
55.200        20
55.210         0
55.220         7
55.230         7
55.240        13
55.250        20
55.260         0
55.270        33
55.280        13
55.290        40
55.300        13
55.310        13
55.320        40
55.330         7
55.340         7
55.350        20
55.360        13
55.370        33
55.380         7
55.390         7
55.400        20
55.410         7
55.420        20
55.430         7
55.440        20
55.450         0
55.460        20
55.470         7
55.480        40
55.490        13
55.500         7
55.510        20
55.520        20
55.530        20
55.540        20
55.550         7
55.560        27
55.570        13
55.580        20
55.590        13
55.600        13
55.610         7
55.620        13
55.630        20
55.640        20
55.650        13
55.660        13
55.670         0
55.680        20
55.690         0
55.700         7
55.710        27
55.720        20
55.730        27
55.740        20
55.750        13
55.760        40
55.770         0
55.780         7
55.790        27
55.800        13
55.810        13
55.820        20
55.830        27
55.840        20
55.850        20
55.860        13
55.870         7
55.880         7
55.890        20
55.900        40
55.910         7
55.920        33
55.930         7
55.940         0
55.950         7
55.960        13
55.970        13
55.980        13
55.990        20
56.000         0
56.010        20
56.020        20
56.030        33
56.040        27
56.050        13
56.060        27
56.070        27
56.080         0
56.090        13
56.100        33
56.110        27
56.120        20
56.130         7
56.140        13
56.150        27
56.160         7
56.170        20
56.180         0
56.190        20
56.200        13
56.210        13
56.220         0
56.230        27
56.240        27
56.250         7
56.260        13
56.270        27
56.280        33
56.290        20
56.300        40
56.310         0
56.320        13
56.330        20
56.340        13
56.350        13
56.360        20
56.370        20
56.380        20
56.390         7
56.400        20
56.410        13
56.420        13
56.430        27
56.440        47
56.450        27
56.460        27
56.470         7
56.480        27
56.490        20
56.500        20
56.510        27
56.520        13
56.530        33
56.540        13
56.550        20
56.560        13
56.570        20
56.580        27
56.590        20
56.600        13
56.610         7
56.620        20
56.630        33
56.640        27
56.650        20
56.660         0
56.670        20
56.680        27
56.690        20
56.700        13
56.710        40
56.720        33
56.730        27
56.740        20
56.750        13
56.760        27
56.770         7
56.780        13
56.790        13
56.800        20
56.810        13
56.820        27
56.830        27
56.840        33
56.850        13
56.860         0
56.870        13
56.880        40
56.890        27
56.900        27
56.910         7
56.920        20
56.930        27
56.940        27
56.950        20
56.960         7
56.970        13
56.980        33
56.990        13
57.000        13
57.010        20
57.020        13
57.030        20
57.040        20
57.050        13
57.060        13
57.070        13
57.080        20
57.090        20
57.100        20
57.110        20
57.120         0
57.130        20
57.140        33
57.150         7
57.160        13
57.170        40
57.180        33
57.190        20
57.200        20
57.210        27
57.220        20
57.230        33
57.240        40
57.250        40
57.260        47
57.270        47
57.280        47
57.290        33
57.300        53
57.310        67
57.320        47
57.330        47
57.340        13
57.350        60
57.360        80
57.370        73
57.380        33
57.390        47
57.400        60
57.410        87
57.420        73
57.430       127
57.440       213
57.450       187
57.460       247
57.470       347
57.480       320
57.490       273
57.500       400
57.510       453
57.520       446
57.530       480
57.540       473
57.550       393
57.560       353
57.570       260
57.580       220
57.590       193
57.600       233
57.610       180
57.620       180
57.630       147
57.640       127
57.650       193
57.660       227
57.670       280
57.680       220
57.690       227
57.700       193
57.710       187
57.720       153
57.730       107
57.740       133
57.750        87
57.760        87
57.770        73
57.780        40
57.790        47
57.800        13
57.810        67
57.820        20
57.830        40
57.840        13
57.850        40
57.860        60
57.870        27
57.880        47
57.890        40
57.900        20
57.910        20
57.920        40
57.930        20
57.940        27
57.950        33
57.960        33
57.970        40
57.980        33
57.990        27
58.000        33
58.010        27
58.020        13
58.030        33
58.040        27
58.050        27
58.060        13
58.070        20
58.080        27
58.090         7
58.100        13
58.110         7
58.120        13
58.130        27
58.140         7
58.150        13
58.160        13
58.170         7
58.180         7
58.190        47
58.200        13
58.210        40
58.220        27
58.230        13
58.240        13
58.250         7
58.260        20
58.270         7
58.280        40
58.290        13
58.300        27
58.310        20
58.320        27
58.330        27
58.340        13
58.350        20
58.360        13
58.370        53
58.380         7
58.390        13
58.400        13
58.410        33
58.420        13
58.430        20
58.440        40
58.450         7
58.460        20
58.470        20
58.480        20
58.490        33
58.500         7
58.510        20
58.520        27
58.530         7
58.540        40
58.550         7
58.560        20
58.570         7
58.580         7
58.590         7
58.600        27
58.610        13
58.620        13
58.630        20
58.640         0
58.650         7
58.660         7
58.670         7
58.680         7
58.690         7
58.700        13
58.710         7
58.720        33
58.730        13
58.740        13
58.750        13
58.760        13
58.770         7
58.780        20
58.790        13
58.800        27
58.810         7
58.820        13
58.830        27
58.840        20
58.850        20
58.860        27
58.870        20
58.880        33
58.890        13
58.900        13
58.910         7
58.920         0
58.930         7
58.940        13
58.950         0
58.960        20
58.970        13
58.980         0
58.990        20
59.000        20
59.010        20
59.020         7
59.030         0
59.040        27
59.050        20
59.060        13
59.070         7
59.080         7
59.090        13
59.100        27
59.110         7
59.120        13
59.130         7
59.140        13
59.150        33
59.160         0
59.170         7
59.180        13
59.190         7
59.200         7
59.210        20
59.220         7
59.230        47
59.240         7
59.250         7
59.260         7
59.270         7
59.280        13
59.290         7
59.300         7
59.310        13
59.320         7
59.330        47
59.340        20
59.350        53
59.360        33
59.370         7
59.380        20
59.390        40
59.400        20
59.410        13
59.420        13
59.430        27
59.440         7
59.450         0
59.460        13
59.470        27
59.480         0
59.490        27
59.500        13
59.510        13
59.520        33
59.530         0
59.540        13
59.550         0
59.560        13
59.570        40
59.580        27
59.590        13
59.600        13
59.610        27
59.620        27
59.630        20
59.640        20
59.650         0
59.660         7
59.670        27
59.680        20
59.690        13
59.700        13
59.710         7
59.720        20
59.730        27
59.740        27
59.750        33
59.760        27
59.770        27
59.780        27
59.790        27
59.800        33
59.810        33
59.820        20
59.830        20
59.840        33
59.850         7
59.860        20
59.870        20
59.880        27
59.890        20
59.900        13
59.910        20
59.920         7
59.930        13
59.940         7
59.950        20
59.960        33
59.970        27
59.980        13
59.990        33
60.000        33
