20.000        40
20.010        40
20.020        47
20.030        67
20.040        60
20.050        40
20.060        73
20.070        60
20.080        73
20.090        93
20.100       107
20.110        73
20.120        87
20.130       100
20.140        80
20.150        53
20.160       107
20.170        13
20.180        53
20.190        80
20.200        53
20.210        87
20.220        93
20.230        40
20.240        80
20.250        87
20.260        67
20.270        60
20.280        93
20.290        47
20.300       120
20.310        53
20.320        53
20.330       100
20.340       107
20.350        47
20.360        67
20.370        73
20.380       100
20.390        60
20.400        73
20.410        60
20.420        93
20.430        80
20.440        87
20.450        80
20.460       107
20.470        47
20.480        73
20.490       100
20.500        73
20.510       133
20.520       133
20.530        87
20.540        27
20.550        40
20.560       113
20.570        87
20.580        80
20.590       100
20.600        87
20.610       107
20.620        40
20.630        47
20.640        93
20.650        47
20.660       120
20.670        73
20.680        47
20.690        47
20.700        87
20.710       113
20.720        67
20.730        73
20.740       100
20.750        80
20.760        53
20.770        40
20.780        47
20.790        73
20.800        53
20.810        67
20.820        47
20.830       113
20.840        67
20.850        67
20.860        60
20.870        80
20.880       107
20.890        47
20.900        60
20.910        87
20.920        60
20.930        93
20.940        80
20.950        87
20.960        33
20.970        80
20.980        47
20.990        93
21.000        53
21.010        93
21.020        60
21.030        47
21.040        67
21.050        20
21.060        73
21.070       107
21.080        40
21.090        60
21.100        40
21.110       100
21.120        47
21.130        40
21.140        73
21.150        47
21.160        73
21.170       113
21.180        60
21.190       100
21.200        80
21.210        80
21.220        73
21.230        87
21.240        87
21.250        53
21.260        53
21.270        73
21.280       107
21.290        53
21.300       120
21.310        87
21.320       120
21.330        53
21.340        67
21.350        60
21.360        67
21.370        47
21.380        93
21.390       113
21.400        40
21.410        87
21.420       120
21.430        73
21.440       113
21.450        80
21.460        87
21.470        67
21.480        80
21.490        80
21.500       107
21.510        67
21.520        80
21.530        87
21.540        47
21.550        67
21.560        73
21.570        87
21.580        33
21.590        93
21.600        73
21.610       100
21.620       100
21.630        93
21.640       120
21.650        53
21.660       113
21.670        93
21.680       100
21.690        80
21.700        47
21.710       107
21.720        80
21.730       107
21.740        60
21.750        47
21.760        80
21.770        53
21.780       113
21.790        40
21.800       153
21.810        87
21.820        53
21.830       107
21.840       100
21.850       113
21.860        80
21.870        60
21.880        80
21.890       100
21.900       113
21.910       100
21.920        60
21.930        87
21.940       113
21.950        53
21.960        47
21.970        87
21.980       113
21.990        67
22.000        80
22.010        87
22.020        67
22.030        73
22.040       100
22.050        93
22.060        67
22.070       133
22.080        87
22.090        87
22.100       120
22.110        60
22.120        87
22.130        87
22.140        87
22.150        93
22.160        80
22.170        87
22.180        40
22.190       100
22.200       107
22.210        80
22.220       100
22.230        93
22.240        87
22.250        93
22.260        60
22.270        73
22.280       100
22.290        93
22.300        93
22.310       120
22.320       127
22.330       127
22.340        93
22.350       107
22.360       127
22.370       133
22.380       127
22.390       100
22.400       173
22.410       140
22.420       107
22.430       120
22.440        80
22.450       133
22.460       140
22.470       160
22.480       147
22.490       127
22.500       167
22.510       120
22.520       153
22.530       160
22.540       200
22.550       153
22.560       140
22.570       153
22.580       173
22.590       240
22.600       260
22.610       260
22.620       193
22.630       287
22.640       380
22.650       440
22.660       373
22.670       393
22.680       420
22.690       353
22.700       433
22.710       360
22.720       333
22.730       373
22.740       313
22.750       307
22.760       333
22.770       300
22.780       333
22.790       273
22.800       233
22.810       193
22.820       180
22.830       147
22.840       153
22.850       167
22.860       207
22.870       193
22.880       233
22.890       233
22.900       120
22.910       153
22.920       193
22.930       213
22.940       213
22.950       180
22.960       207
22.970       220
22.980       187
22.990       173
23.000       220
23.010       167
23.020       180
23.030       173
23.040       213
23.050       220
23.060       393
23.070       473
23.080       706
23.090       993
23.100      1060
23.110      1060
23.120      1313
23.130      1166
23.140       933
23.150       726
23.160       626
23.170       340
23.180       207
23.190       240
23.200       233
23.210       200
23.220       193
23.230       220
23.240       133
23.250       133
23.260       120
23.270       167
23.280       100
23.290       147
23.300       153
23.310       127
23.320       147
23.330       187
23.340       107
23.350       113
23.360       140
23.370       133
23.380       113
23.390       140
23.400        93
23.410       133
23.420       153
23.430        87
23.440       140
23.450       207
23.460       127
23.470       107
23.480       107
23.490       140
23.500       100
23.510       100
23.520       113
23.530       100
23.540       120
23.550        93
23.560        87
23.570       160
23.580       140
23.590       133
23.600       133
23.610       133
23.620       127
23.630       120
23.640       133
23.650       180
23.660       147
23.670       153
23.680       187
23.690        93
23.700       127
23.710        73
23.720        80
23.730       167
23.740       113
23.750       107
23.760       160
23.770        67
23.780       107
23.790       127
23.800       187
23.810       100
23.820       127
23.830       153
23.840       127
23.850       133
23.860       127
23.870        73
23.880       113
23.890       100
23.900        80
23.910        73
23.920       140
23.930       100
23.940       133
23.950        93
23.960        87
23.970        80
23.980       100
23.990        67
24.000       160
24.010        53
24.020       127
24.030       133
24.040       100
24.050       100
24.060       120
24.070       133
24.080       167
24.090       113
24.100        80
24.110        93
24.120       140
24.130        67
24.140        80
24.150        87
24.160        93
24.170       113
24.180        67
24.190       113
24.200        93
24.210       133
24.220       100
24.230       107
24.240        80
24.250       140
24.260       140
24.270       107
24.280       147
24.290       100
24.300        73
24.310        80
24.320       113
24.330       133
24.340       147
24.350        93
24.360       133
24.370       107
24.380       147
24.390       100
24.400       133
24.410        87
24.420        60
24.430       147
24.440       127
24.450       120
24.460       107
24.470       133
24.480       100
24.490       140
24.500       120
24.510       167
24.520       120
24.530       173
24.540       107
24.550       140
24.560       153
24.570       140
24.580       133
24.590        80
24.600       120
24.610       127
24.620       147
24.630       147
24.640       160
24.650       127
24.660       133
24.670       160
24.680       140
24.690       133
24.700       167
24.710       247
24.720       300
24.730       407
24.740       320
24.750       440
24.760       493
24.770       420
24.780       606
24.790       526
24.800       520
24.810       713
24.820       493
24.830       566
24.840       633
24.850       593
24.860       533
24.870       520
24.880       606
24.890       540
24.900       660
24.910       686
24.920       473
24.930       560
24.940       640
24.950       606
24.960       626
24.970       473
24.980       613
24.990       586
25.000       626
25.010       553
25.020       606
25.030       586
25.040       593
25.050       620
25.060       546
25.070       613
25.080       573
25.090       653
25.100       646
25.110       713
25.120       693
25.130       646
25.140       713
25.150       520
25.160       673
25.170       733
25.180       500
25.190       766
25.200       580
25.210       733
25.220       713
25.230       700
25.240       640
25.250       620
25.260       766
25.270       800
25.280       866
25.290       693
25.300       706
25.310       666
25.320       866
25.330       986
25.340       933
25.350      1140
25.360      1293
25.370      1726
25.380      2019
25.390      2446
25.400      2779
25.410      3679
25.420      3952
25.430      4365
25.440      5338
25.450      5644
25.460      6777
25.470      6924
25.480      7770
25.490      8370
25.500      8790
25.510      8936
25.520      9936
25.530     10123
25.540     11462
25.550     14274
25.560     22744
25.570     46455
25.580     80061
25.590    109356
25.600    127409
25.610    136605
25.620    140044
25.630    143516
25.640    144269
25.650    135419
25.660    114974
25.670     95075
25.680     86845
25.690     80914
25.700     77496
25.710     65920
25.720     46795
25.730     26723
25.740     13968
25.750      8543
25.760      6384
25.770      5311
25.780      4358
25.790      3599
25.800      3172
25.810      2532
25.820      2186
25.830      1853
25.840      1546
25.850      1579
25.860      1273
25.870      1273
25.880       993
25.890      1206
25.900      1146
25.910      1006
25.920      1106
25.930       813
25.940       940
25.950       940
25.960       860
25.970       913
25.980       946
25.990       686
26.000       880
26.010       853
26.020       673
26.030       926
26.040       686
26.050       846
26.060       686
26.070       660
26.080       753
26.090       693
26.100       620
26.110       620
26.120       660
26.130       680
26.140       626
26.150       640
26.160       593
26.170       600
26.180       493
26.190       553
26.200       593
26.210       646
26.220       560
26.230       420
26.240       546
26.250       387
26.260       586
26.270       640
26.280       586
26.290       553
26.300       613
26.310       493
26.320       546
26.330       573
26.340       546
26.350       540
26.360       560
26.370       480
26.380       486
26.390       500
26.400       420
26.410       473
26.420       640
26.430       420
26.440       566
26.450       493
26.460       506
26.470       460
26.480       420
26.490       553
26.500       493
26.510       407
26.520       546
26.530       513
26.540       413
26.550       533
26.560       520
26.570       453
26.580       493
26.590       393
26.600       486
26.610       373
26.620       513
26.630       473
26.640       367
26.650       506
26.660       333
26.670       347
26.680       480
26.690       466
26.700       533
26.710       426
26.720       513
26.730       393
26.740       287
26.750       413
26.760       460
26.770       393
26.780       367
26.790       360
26.800       453
26.810       327
26.820       453
26.830       466
26.840       506
26.850       440
26.860       446
26.870       373
26.880       327
26.890       333
26.900       446
26.910       380
26.920       453
26.930       440
26.940       313
26.950       367
26.960       400
26.970       400
26.980       407
26.990       400
27.000       440
27.010       513
27.020       360
27.030       387
27.040       466
27.050       407
27.060       333
27.070       433
27.080       353
27.090       440
27.100       347
27.110       387
27.120       387
27.130       367
27.140       413
27.150       413
27.160       340
27.170       393
27.180       380
27.190       420
27.200       380
27.210       353
27.220       486
27.230       473
27.240       393
27.250       413
27.260       407
27.270       280
27.280       307
27.290       387
27.300       387
27.310       466
27.320       387
27.330       373
27.340       287
27.350       413
27.360       380
27.370       453
27.380       360
27.390       400
27.400       500
27.410       426
27.420       387
27.430       373
27.440       367
27.450       313
27.460       340
27.470       340
27.480       393
27.490       400
27.500       360
27.510       340
27.520       300
27.530       313
27.540       373
27.550       426
27.560       380
27.570       333
27.580       333
27.590       327
27.600       353
27.610       293
27.620       347
27.630       300
27.640       440
27.650       367
27.660       413
27.670       367
27.680       313
27.690       340
27.700       340
27.710       207
27.720       393
27.730       307
27.740       333
27.750       347
27.760       407
27.770       313
27.780       400
27.790       353
27.800       267
27.810       327
27.820       280
27.830       300
27.840       313
27.850       393
27.860       300
27.870       360
27.880       300
27.890       420
27.900       327
27.910       240
27.920       360
27.930       307
27.940       320
27.950       387
27.960       347
27.970       420
27.980       307
27.990       367
28.000       340
28.010       233
28.020       313
28.030       347
28.040       387
28.050       267
28.060       227
28.070       313
28.080       273
28.090       300
28.100       253
28.110       360
28.120       420
28.130       367
28.140       340
28.150       367
28.160       393
28.170       287
28.180       373
28.190       273
28.200       307
28.210       340
28.220       380
28.230       327
28.240       347
28.250       220
28.260       293
28.270       347
28.280       273
28.290       327
28.300       273
28.310       353
28.320       347
28.330       360
28.340       333
28.350       307
28.360       287
28.370       267
28.380       300
28.390       287
28.400       267
28.410       360
28.420       260
28.430       280
28.440       280
28.450       253
28.460       360
28.470       253
28.480       333
28.490       220
28.500       300
28.510       333
28.520       260
28.530       227
28.540       273
28.550       273
28.560       253
28.570       273
28.580       253
28.590       360
28.600       313
28.610       320
28.620       407
28.630       247
28.640       387
28.650       253
28.660       333
28.670       293
28.680       327
28.690       300
28.700       293
28.710       313
28.720       300
28.730       213
28.740       333
28.750       347
28.760       187
28.770       240
28.780       287
28.790       213
28.800       333
28.810       347
28.820       307
28.830       347
28.840       333
28.850       267
28.860       193
28.870       300
28.880       353
28.890       260
28.900       273
28.910       233
28.920       253
28.930       247
28.940       193
28.950       240
28.960       313
28.970       307
28.980       227
28.990       233
29.000       307
29.010       267
29.020       227
29.030       340
29.040       327
29.050       247
29.060       293
29.070       280
29.080       327
29.090       280
29.100       247
29.110       313
29.120       260
29.130       307
29.140       347
29.150       280
29.160       220
29.170       253
29.180       287
29.190       280
29.200       267
29.210       320
29.220       307
29.230       320
29.240       280
29.250       333
29.260       220
29.270       293
29.280       187
29.290       220
29.300       267
29.310       287
29.320       180
29.330       307
29.340       293
29.350       233
29.360       207
29.370       273
29.380       213
29.390       260
29.400       247
29.410       247
29.420       213
29.430       227
29.440       240
29.450       300
29.460       273
29.470       213
29.480       227
29.490       260
29.500       247
29.510       260
29.520       253
29.530       293
29.540       313
29.550       300
29.560       253
29.570       240
29.580       220
29.590       273
29.600       220
29.610       213
29.620       213
29.630       233
29.640       173
29.650       287
29.660       307
29.670       267
29.680       267
29.690       353
29.700       227
29.710       200
29.720       260
29.730       193
29.740       233
29.750       227
29.760       193
29.770       193
29.780       233
29.790       213
29.800       133
29.810       233
29.820       273
29.830       287
29.840       193
29.850       233
29.860       300
29.870       253
29.880       267
29.890       207
29.900       327
29.910       253
29.920       227
29.930       280
29.940       193
29.950       227
29.960       200
29.970       233
29.980       253
29.990       200
30.000       240
30.010       180
30.020       233
30.030       207
30.040       180
30.050       240
30.060       220
30.070       227
30.080       207
30.090       227
30.100       220
30.110       233
30.120       213
30.130       227
30.140       160
30.150       260
30.160       227
30.170       313
30.180       213
30.190       227
30.200       173
30.210       247
30.220       280
30.230       200
30.240       273
30.250       400
30.260       140
30.270       280
30.280       200
30.290       260
30.300       220
30.310       287
30.320       273
30.330       260
30.340       200
30.350       220
30.360       253
30.370       307
30.380       187
30.390       167
30.400       213
30.410       200
30.420       167
30.430       213
30.440       253
30.450       247
30.460       240
30.470       300
30.480       193
30.490       233
30.500       213
30.510       200
30.520       187
30.530       180
30.540       213
30.550       273
30.560       240
30.570       233
30.580       267
30.590       220
30.600       167
30.610       207
30.620       200
30.630       253
30.640       147
30.650       233
30.660       187
30.670       140
30.680       253
30.690       287
30.700       227
30.710       233
30.720       187
30.730       200
30.740       220
30.750       233
30.760       147
30.770       213
30.780       173
30.790       247
30.800       273
30.810       253
30.820       173
30.830       193
30.840       173
30.850       240
30.860       193
30.870       220
30.880       173
30.890       227
30.900       180
30.910       220
30.920       167
30.930       160
30.940       100
30.950       220
30.960       187
30.970       187
30.980       207
30.990       140
31.000       207
31.010       200
31.020       220
31.030       253
31.040       187
31.050       200
31.060       113
31.070       207
31.080       213
31.090       260
31.100       220
31.110       147
31.120       133
31.130       173
31.140       180
31.150       153
31.160       227
31.170       167
31.180       140
31.190       193
31.200       187
31.210       180
31.220       220
31.230       187
31.240       120
31.250       180
31.260       220
31.270       167
31.280       153
31.290       200
31.300       173
31.310       153
31.320       227
31.330       220
31.340       213
31.350       200
31.360       200
31.370       160
31.380       147
31.390       213
31.400       153
31.410       260
31.420       207
31.430       160
31.440       213
31.450       180
31.460       113
31.470       260
31.480       173
31.490       147
31.500       233
31.510       187
31.520       220
31.530       193
31.540       213
31.550       233
31.560       220
31.570       193
31.580       247
31.590       173
31.600       200
31.610       167
31.620       133
31.630       167
31.640       240
31.650       153
31.660       153
31.670       140
31.680       153
31.690       167
31.700       153
31.710       187
31.720       160
31.730       213
31.740       147
31.750       140
31.760       213
31.770       200
31.780       187
31.790       153
31.800       120
31.810       213
31.820       173
31.830       187
31.840       200
31.850       213
31.860       200
31.870       207
31.880       233
31.890       220
31.900       173
31.910       227
31.920       193
31.930       240
31.940       213
31.950       147
31.960       247
31.970       193
31.980       213
31.990       193
32.000       253
32.010       207
32.020       207
32.030       240
32.040       273
32.050       280
32.060       333
32.070       313
32.080       213
32.090       380
32.100       287
32.110       367
32.120       327
32.130       313
32.140       426
32.150       440
32.160       333
32.170       500
32.180       480
32.190       600
32.200       506
32.210       486
32.220       600
32.230       586
32.240       720
32.250       766
32.260       693
32.270      1053
32.280      1033
32.290      1033
32.300      1253
32.310      1439
32.320      1166
32.330      1359
32.340      1693
32.350      1586
32.360      1613
32.370      1726
32.380      1719
32.390      1846
32.400      1686
32.410      1833
32.420      1813
32.430      1753
32.440      1613
32.450      1786
32.460      1626
32.470      1519
32.480      1426
32.490      1286
32.500      1399
32.510      1180
32.520      1046
32.530      1126
32.540       840
32.550       733
32.560       900
32.570       653
32.580       706
32.590       626
32.600       546
32.610       526
32.620       560
32.630       460
32.640       387
32.650       387
32.660       320
32.670       327
32.680       300
32.690       333
32.700       267
32.710       280
32.720       233
32.730       227
32.740       213
32.750       213
32.760       173
32.770       267
32.780       267
32.790       193
32.800       293
32.810       187
32.820       187
32.830       220
32.840       167
32.850       273
32.860       173
32.870       173
32.880       180
32.890       167
32.900       187
32.910       220
32.920       207
32.930       187
32.940       147
32.950       220
32.960       200
32.970       173
32.980       160
32.990       187
33.000       160
33.010       173
33.020       227
33.030       173
33.040       187
33.050       180
33.060       100
33.070       180
33.080       173
33.090       180
33.100       100
33.110       160
33.120       147
33.130       140
33.140       140
33.150       147
33.160       140
33.170       153
33.180       153
33.190       113
33.200       113
33.210       173
33.220       127
33.230       180
33.240       100
33.250       147
33.260       200
33.270       140
33.280       120
33.290       140
33.300       140
33.310       133
33.320       160
33.330       147
33.340       113
33.350       167
33.360       187
33.370       113
33.380       167
33.390       153
33.400       160
33.410       113
33.420       147
33.430       120
33.440       113
33.450       127
33.460       133
33.470        93
33.480       100
33.490       140
33.500       153
33.510       107
33.520       173
33.530        93
33.540       120
33.550       147
33.560       113
33.570       153
33.580       127
33.590       120
33.600       173
33.610       113
33.620       173
33.630       100
33.640       180
33.650       147
33.660       153
33.670       213
33.680       107
33.690       120
33.700        73
33.710       160
33.720       167
33.730       153
33.740       173
33.750        80
33.760       133
33.770       160
33.780        67
33.790        80
33.800       167
33.810       113
33.820        67
33.830       120
33.840        80
33.850       153
33.860       120
33.870       120
33.880       100
33.890       147
33.900        80
33.910       113
33.920       140
33.930       153
33.940       107
33.950       193
33.960       147
33.970       147
33.980       100
33.990       153
34.000       113
34.010       120
34.020       120
34.030       133
34.040       120
34.050       120
34.060       100
34.070       133
34.080       127
34.090        73
34.100       133
34.110       160
34.120       107
34.130       147
34.140       120
34.150       140
34.160       107
34.170       100
34.180       127
34.190       160
34.200       107
34.210        93
34.220       100
34.230        60
34.240       113
34.250       113
34.260       113
34.270       153
34.280       140
34.290        73
34.300       120
34.310       107
34.320       113
34.330       113
34.340        67
34.350       120
34.360        87
34.370       127
34.380       113
34.390       107
34.400       127
34.410        93
34.420       153
34.430        67
34.440       107
34.450       120
34.460       127
34.470       127
34.480       180
34.490        87
34.500        67
34.510       127
34.520       113
34.530       107
34.540       140
34.550       100
34.560       107
34.570       107
34.580        80
34.590       127
34.600        93
34.610        93
34.620       167
34.630       153
34.640       147
34.650       153
34.660       180
34.670        67
34.680       113
34.690       140
34.700       100
34.710        93
34.720        60
34.730       140
34.740        93
34.750       127
34.760       107
34.770        93
34.780       147
34.790       120
34.800       127
34.810       127
34.820       113
34.830        80
34.840        80
34.850       147
34.860       100
34.870        73
34.880       107
34.890        93
34.900       100
34.910        87
34.920       120
34.930        93
34.940        47
34.950        60
34.960       133
34.970        93
34.980       120
34.990       100
35.000       113
35.010       120
35.020       120
35.030       153
35.040       120
35.050        93
35.060       127
35.070       107
35.080       173
35.090       120
35.100       120
35.110        73
35.120        93
35.130        80
35.140       100
35.150        87
35.160       120
35.170       107
35.180        93
35.190        67
35.200       107
35.210       113
35.220       147
35.230       120
35.240       107
35.250        80
35.260       140
35.270        93
35.280        93
35.290       133
35.300       127
35.310       100
35.320       120
35.330        67
35.340        87
35.350       100
35.360        67
35.370       113
35.380       100
35.390       113
35.400        87
35.410       107
35.420       147
35.430        53
35.440        53
35.450        80
35.460       127
35.470       113
35.480        67
35.490       113
35.500        80
35.510        33
35.520       107
35.530        67
35.540        67
35.550        53
35.560       107
35.570        80
35.580        87
35.590        73
35.600       120
35.610       107
35.620        80
35.630       113
35.640        80
35.650        87
35.660        67
35.670        73
35.680        67
35.690       100
35.700       100
35.710       120
35.720        67
35.730       100
35.740       127
35.750        67
35.760       100
35.770        93
35.780       113
35.790        47
35.800        87
35.810       147
35.820        40
35.830       113
35.840       140
35.850        80
35.860        80
35.870       147
35.880        53
35.890       107
35.900       113
35.910       100
35.920        73
35.930        73
35.940        73
35.950        87
35.960        80
35.970       100
35.980        80
35.990       107
36.000        93
36.010        47
36.020        47
36.030        73
36.040        47
36.050        87
36.060        67
36.070       113
36.080        47
36.090       107
36.100        80
36.110        87
36.120        80
36.130        73
36.140        60
36.150        73
36.160        67
36.170        87
36.180        53
36.190        33
36.200        67
36.210        53
36.220        73
36.230        40
36.240       160
36.250       100
36.260        87
36.270       113
36.280       127
36.290        93
36.300       107
36.310       120
36.320       100
36.330        73
36.340        87
36.350        73
36.360       127
36.370        73
36.380        53
36.390        87
36.400        67
36.410        73
36.420        60
36.430       100
36.440        60
36.450        93
36.460        87
36.470        80
36.480        60
36.490        67
36.500        73
36.510        60
36.520       107
36.530        60
36.540       107
36.550        93
36.560        80
36.570        80
36.580        93
36.590        73
36.600       140
36.610        67
36.620        93
36.630        67
36.640        73
36.650       107
36.660        73
36.670        73
36.680        80
36.690       113
36.700        53
36.710       100
36.720        47
36.730        87
36.740        40
36.750        60
36.760       100
36.770        73
36.780        73
36.790       100
36.800        67
36.810        60
36.820        80
36.830       120
36.840        33
36.850        53
36.860        87
36.870        60
36.880        53
36.890        87
36.900       100
36.910       100
36.920        87
36.930       100
36.940        87
36.950        53
36.960        20
36.970        73
36.980       140
36.990        67
37.000        33
37.010        93
37.020        40
37.030       113
37.040       180
37.050        73
37.060        67
37.070       107
37.080        67
37.090        87
37.100        73
37.110       107
37.120       120
37.130        53
37.140        67
37.150        47
37.160        73
37.170        33
37.180        87
37.190        53
37.200        80
37.210        40
37.220       127
37.230        87
37.240        47
37.250        33
37.260        73
37.270        40
37.280        80
37.290        80
37.300       113
37.310       107
37.320        67
37.330        67
37.340        67
37.350       107
37.360        53
37.370        53
37.380        40
37.390        60
37.400        27
37.410        93
37.420        67
37.430        67
37.440        53
37.450        87
37.460        60
37.470        67
37.480        73
37.490        87
37.500       107
37.510        40
37.520        53
37.530        60
37.540        67
37.550        53
37.560        60
37.570        53
37.580        80
37.590        73
37.600        93
37.610        60
37.620        47
37.630        33
37.640        53
37.650        60
37.660        73
37.670        87
37.680        73
37.690        80
37.700        53
37.710        80
37.720        73
37.730        67
37.740        67
37.750        87
37.760        20
37.770        53
37.780        53
37.790        87
37.800        73
37.810        60
37.820        33
37.830        73
37.840        60
37.850        87
37.860        93
37.870        60
37.880        73
37.890        67
37.900        33
37.910        67
37.920        67
37.930        73
37.940        93
37.950        73
37.960        40
37.970        40
37.980        73
37.990        73
38.000        60
38.010       100
38.020        60
38.030        73
38.040        47
38.050        67
38.060        40
38.070        67
38.080        60
38.090        73
38.100        73
38.110        27
38.120       113
38.130        47
38.140        53
38.150        27
38.160        40
38.170        47
38.180        80
38.190        60
38.200        53
38.210        80
38.220        53
38.230        47
38.240        40
38.250        33
38.260        33
38.270        73
38.280        47
38.290        47
38.300        53
38.310        60
38.320        87
38.330        47
38.340        27
38.350        33
38.360       127
38.370        33
38.380        67
38.390        73
38.400        80
38.410        47
38.420        33
38.430        53
38.440        80
38.450        53
38.460        47
38.470        67
38.480        73
38.490        53
38.500        60
38.510        73
38.520        80
38.530        73
38.540        53
38.550        73
38.560        40
38.570        33
38.580        87
38.590        53
38.600        73
38.610        40
38.620        47
38.630        40
38.640        20
38.650        33
38.660        73
38.670        60
38.680        67
38.690        60
38.700        67
38.710        47
38.720        27
38.730        60
38.740        80
38.750        33
38.760        27
38.770        60
38.780        67
38.790        80
38.800        53
38.810        73
38.820        60
38.830        33
38.840        40
38.850        73
38.860        67
38.870        27
38.880        40
38.890        40
38.900        80
38.910        80
38.920        60
38.930        73
38.940        53
38.950        40
38.960       107
38.970        67
38.980        47
38.990        47
39.000        60
39.010        60
39.020        67
39.030        67
39.040        33
39.050        67
39.060        53
39.070        33
39.080        33
39.090        60
39.100        47
39.110        60
39.120        40
39.130        27
39.140        47
39.150        67
39.160        47
39.170        47
39.180        40
39.190        60
39.200        33
39.210        47
39.220        67
39.230        87
39.240        33
39.250        53
39.260        40
39.270        53
39.280        33
39.290        40
39.300        60
39.310        40
39.320        40
39.330        27
39.340        27
39.350        73
39.360        27
39.370        27
39.380        53
39.390        67
39.400        33
39.410        33
39.420        40
39.430        40
39.440        27
39.450        33
39.460        27
39.470        53
39.480        27
39.490        47
39.500        20
39.510        53
39.520        80
39.530        73
39.540        20
39.550        40
39.560        47
39.570        67
39.580        27
39.590        47
39.600        73
39.610        67
39.620        67
39.630        80
39.640        60
39.650        67
39.660        67
39.670        40
39.680        40
39.690        67
39.700        53
39.710        67
39.720        33
39.730        73
39.740        60
39.750        73
39.760        67
39.770        60
39.780        73
39.790        60
39.800        53
39.810        20
39.820        80
39.830        47
39.840        60
39.850        13
39.860        47
39.870        67
39.880        67
39.890        40
39.900        67
39.910        73
39.920       107
39.930        53
39.940       113
39.950        53
39.960        60
39.970        40
39.980        47
39.990        93
40.000        67
40.010        53
40.020        53
40.030        80
40.040        53
40.050        60
40.060        67
40.070        87
40.080        80
40.090        60
40.100        73
40.110        60
40.120        40
40.130        93
40.140        47
40.150        60
40.160       100
40.170       113
40.180        67
40.190        40
40.200        73
40.210        60
40.220        53
40.230        40
40.240        53
40.250        47
40.260        47
40.270        53
40.280        53
40.290       100
40.300        67
40.310        27
40.320        20
40.330        47
40.340        47
40.350        80
40.360        13
40.370        53
40.380        67
40.390        53
40.400        53
40.410        47
40.420        27
40.430        53
40.440        20
40.450        53
40.460        60
40.470        53
40.480        33
40.490        67
40.500        40
40.510        67
40.520        73
40.530        53
40.540        87
40.550        67
40.560        33
40.570        47
40.580        47
40.590        60
40.600        40
40.610        53
40.620        53
40.630        60
40.640        40
40.650        53
40.660        27
40.670        47
40.680        60
40.690         7
40.700        27
40.710        53
40.720        60
40.730        47
40.740        33
40.750        60
40.760        60
40.770        27
40.780        60
40.790        40
40.800        67
40.810        33
40.820        40
40.830        33
40.840        27
40.850        53
40.860        73
40.870        40
40.880        47
40.890        20
40.900        73
40.910        53
40.920        33
40.930        67
40.940        47
40.950        53
40.960        33
40.970        33
40.980        40
40.990        60
41.000        47
41.010        40
41.020        27
41.030        53
41.040        40
41.050        40
41.060        27
41.070        80
41.080        27
41.090        13
41.100        53
41.110        47
41.120        20
41.130        13
41.140        53
41.150        20
41.160        80
41.170        60
41.180        13
41.190        33
41.200        53
41.210        33
41.220        40
41.230        33
41.240        47
41.250        53
41.260        60
41.270        67
41.280        47
41.290        13
41.300        27
41.310        47
41.320        33
41.330        40
41.340        40
41.350        53
41.360        53
41.370        53
41.380        33
41.390        33
41.400        53
41.410        80
41.420        73
41.430        87
41.440        67
41.450        60
41.460        80
41.470        53
41.480        67
41.490        87
41.500        60
41.510        87
41.520        40
41.530        60
41.540        60
41.550        60
41.560        67
41.570        67
41.580        73
41.590        67
41.600        33
41.610        73
41.620        67
41.630        53
41.640        33
41.650        40
41.660        33
41.670        73
41.680        47
41.690        40
41.700        67
41.710        67
41.720        53
41.730        47
41.740        73
41.750        87
41.760        80
41.770        67
41.780        53
41.790       100
41.800        87
41.810        53
41.820        87
41.830        47
41.840        53
41.850        67
41.860        73
41.870        40
41.880        40
41.890        47
41.900        87
41.910        53
41.920        40
41.930        33
41.940        47
41.950        47
41.960        20
41.970        27
41.980        53
41.990        33
42.000        60
42.010        33
42.020        33
42.030        40
42.040        67
42.050        53
42.060        53
42.070        67
42.080        40
42.090        80
42.100        47
42.110        73
42.120        40
42.130        33
42.140        13
42.150        20
42.160        27
42.170        40
42.180        27
42.190        13
42.200        40
42.210        33
42.220        27
42.230        33
42.240        47
42.250        73
42.260        40
42.270        33
42.280        33
42.290        53
42.300        40
42.310        73
42.320        40
42.330        47
42.340        80
42.350        47
42.360        67
42.370        33
42.380        33
42.390        47
42.400        40
42.410        67
42.420        13
42.430        13
42.440        33
42.450        60
42.460        47
42.470        40
42.480        33
42.490        40
42.500        27
42.510        27
42.520        33
42.530        27
42.540        80
42.550        40
42.560        33
42.570        33
42.580        13
42.590        27
42.600        80
42.610        33
42.620        47
42.630        13
42.640        13
42.650        33
42.660        40
42.670        40
42.680         7
42.690        40
42.700        60
42.710        40
42.720        20
42.730        47
42.740        33
42.750        33
42.760         7
42.770        80
42.780        87
42.790        40
42.800        53
42.810        53
42.820        27
42.830        13
42.840        33
42.850        60
42.860        47
42.870        60
42.880        47
42.890        20
42.900        40
42.910        53
42.920        20
42.930        33
42.940        13
42.950        33
42.960        40
42.970        27
42.980        40
42.990        53
43.000        53
43.010        67
43.020        33
43.030        33
43.040        40
43.050        60
43.060        40
43.070        20
43.080        60
43.090        20
43.100        53
43.110        40
43.120        40
43.130        40
43.140        67
43.150        33
43.160        40
43.170        53
43.180        20
43.190        27
43.200        40
43.210        67
43.220        27
43.230        47
43.240        20
43.250        27
43.260        27
43.270        60
43.280        47
43.290        47
43.300        47
43.310        87
43.320        40
43.330        47
43.340        60
43.350        40
43.360        67
43.370        33
43.380        73
43.390        13
43.400        13
43.410        47
43.420        40
43.430        53
43.440        47
43.450        60
43.460        33
43.470        67
43.480        53
43.490        67
43.500        47
43.510        33
43.520         7
43.530        47
43.540        60
43.550        40
43.560        33
43.570        33
43.580        27
43.590        27
43.600        53
43.610        13
43.620        40
43.630        40
43.640        33
43.650        47
43.660        40
43.670        67
43.680        40
43.690        33
43.700        27
43.710        33
43.720        53
43.730        40
43.740         0
43.750        47
43.760        47
43.770        20
43.780        27
43.790        73
43.800        33
43.810        20
43.820        27
43.830         0
43.840        27
43.850        40
43.860        27
43.870        27
43.880        80
43.890        27
43.900        53
43.910        60
43.920        27
43.930        47
43.940        33
43.950        47
43.960        67
43.970        13
43.980        27
43.990       107
44.000        73
44.010        33
44.020        53
44.030        40
44.040        40
44.050        33
44.060        47
44.070        47
44.080        40
44.090        53
44.100        40
44.110        27
44.120        47
44.130        53
44.140        40
44.150        47
44.160        40
44.170        33
44.180        67
44.190        53
44.200        33
44.210        67
44.220        53
44.230        47
44.240        27
44.250        40
44.260        13
44.270        53
44.280        67
44.290        33
44.300        53
44.310        60
44.320        27
44.330        47
44.340        33
44.350         7
44.360        33
44.370        40
44.380        80
44.390        13
44.400        33
44.410        53
44.420        27
44.430        40
44.440        47
44.450        33
44.460        67
44.470        47
44.480        33
44.490        47
44.500        33
44.510        53
44.520        33
44.530        27
44.540        60
44.550        27
44.560        80
44.570        40
44.580        53
44.590        60
44.600        33
44.610        47
44.620        53
44.630        60
44.640        60
44.650        60
44.660        60
44.670       107
44.680        80
44.690        33
44.700        60
44.710        40
44.720        47
44.730        80
44.740        53
44.750        73
44.760        80
44.770        33
44.780        53
44.790        67
44.800        73
44.810        73
44.820        73
44.830        93
44.840        40
44.850        67
44.860        53
44.870        73
44.880       100
44.890        40
44.900        40
44.910        33
44.920        80
44.930       113
44.940        53
44.950        67
44.960        47
44.970        40
44.980        67
44.990        53
45.000        67
45.010        80
45.020        67
45.030        60
45.040        73
45.050        40
45.060        93
45.070        53
45.080        73
45.090       100
45.100        33
45.110        80
45.120        93
45.130       147
45.140       127
45.150        67
45.160        67
45.170        60
45.180        47
45.190        80
45.200       100
45.210        60
45.220        47
45.230        73
45.240        73
45.250       127
45.260        80
45.270        80
45.280        87
45.290       100
45.300        67
45.310        87
45.320       127
45.330        80
45.340        67
45.350       140
45.360        73
45.370        80
45.380       107
45.390        53
45.400        73
45.410        53
45.420        47
45.430       107
45.440        73
45.450        80
45.460       100
45.470        73
45.480       113
45.490       140
45.500       113
45.510       127
45.520       147
45.530       120
45.540       127
45.550        60
45.560       153
45.570       213
45.580       147
45.590       153
45.600       200
45.610       107
45.620       153
45.630       140
45.640       173
45.650       160
45.660       153
45.670       133
45.680       133
45.690       200
45.700       213
45.710       267
45.720       213
45.730       173
45.740       320
45.750       227
45.760       240
45.770       253
45.780       220
45.790       253
45.800       247
45.810       280
45.820       353
45.830       267
45.840       307
45.850       327
45.860       393
45.870       440
45.880       360
45.890       473
45.900       433
45.910       407
45.920       413
45.930       433
45.940       466
45.950       533
45.960       606
45.970       533
45.980       646
45.990       720
46.000       786
46.010       753
46.020       846
46.030       780
46.040       906
46.050      1026
46.060       973
46.070      1240
46.080      1100
46.090      1220
46.100      1306
46.110      1273
46.120      1293
46.130      1579
46.140      1559
46.150      1553
46.160      1586
46.170      1933
46.180      1733
46.190      1946
46.200      2112
46.210      2192
46.220      2172
46.230      2166
46.240      2126
46.250      2439
46.260      2359
46.270      2672
46.280      2572
46.290      2699
46.300      2779
46.310      2432
46.320      2739
46.330      2526
46.340      2812
46.350      2799
46.360      2852
46.370      2752
46.380      2806
46.390      2732
46.400      2499
46.410      2432
46.420      2572
46.430      2579
46.440      2532
46.450      2252
46.460      2506
46.470      2192
46.480      2292
46.490      2126
46.500      1919
46.510      1813
46.520      1813
46.530      1913
46.540      1546
46.550      1686
46.560      1633
46.570      1446
46.580      1293
46.590      1299
46.600      1206
46.610      1206
46.620      1186
46.630      1086
46.640      1006
46.650       946
46.660       940
46.670       706
46.680       940
46.690       840
46.700       780
46.710       800
46.720       673
46.730       600
46.740       586
46.750       473
46.760       573
46.770       593
46.780       580
46.790       506
46.800       533
46.810       533
46.820       533
46.830       440
46.840       446
46.850       380
46.860       453
46.870       367
46.880       273
46.890       333
46.900       307
46.910       333
46.920       247
46.930       247
46.940       327
46.950       247
46.960       353
46.970       313
46.980       280
46.990       293
47.000       287
47.010       267
47.020       173
47.030       280
47.040       293
47.050       227
47.060       193
47.070       307
47.080       280
47.090       187
47.100       173
47.110       260
47.120       327
47.130       293
47.140       373
47.150       566
47.160       733
47.170       966
47.180      1293
47.190      1513
47.200      1393
47.210      1606
47.220      1366
47.230      1293
47.240      1200
47.250       993
47.260       626
47.270       400
47.280       353
47.290       327
47.300       220
47.310       260
47.320       213
47.330       227
47.340       180
47.350       140
47.360       147
47.370       140
47.380       140
47.390       180
47.400       133
47.410       153
47.420       133
47.430       120
47.440        80
47.450        93
47.460       113
47.470       100
47.480       120
47.490       107
47.500       133
47.510       147
47.520       113
47.530        80
47.540       113
47.550       113
47.560        87
47.570       120
47.580       100
47.590        80
47.600       113
47.610       113
47.620       107
47.630       113
47.640       127
47.650        40
47.660       113
47.670        53
47.680        93
47.690        93
47.700        67
47.710        53
47.720       120
47.730        80
47.740        33
47.750        40
47.760        93
47.770        87
47.780        73
47.790       100
47.800        67
47.810        60
47.820        47
47.830       127
47.840        87
47.850        87
47.860       100
47.870        67
47.880       100
47.890        73
47.900       113
47.910        60
47.920        80
47.930        53
47.940        60
47.950        47
47.960        33
47.970        60
47.980        73
47.990        60
48.000        53
48.010        73
48.020        87
48.030       100
48.040        67
48.050        73
48.060        60
48.070        67
48.080        67
48.090        53
48.100        67
48.110        87
48.120        67
48.130        40
48.140        67
48.150        67
48.160        40
48.170        80
48.180        67
48.190        40
48.200        67
48.210       100
48.220        40
48.230        47
48.240        80
48.250        47
48.260       100
48.270        60
48.280        67
48.290        60
48.300        60
48.310        33
48.320       107
48.330        47
48.340        40
48.350        53
48.360        67
48.370        67
48.380        13
48.390        67
48.400        47
48.410        87
48.420        53
48.430        27
48.440        60
48.450        40
48.460        53
48.470        33
48.480        87
48.490        60
48.500        47
48.510       113
48.520        40
48.530        53
48.540        80
48.550        80
48.560        80
48.570        40
48.580        87
48.590        40
48.600        67
48.610        53
48.620        53
48.630        40
48.640        40
48.650        47
48.660        53
48.670        67
48.680        33
48.690        53
48.700        20
48.710        33
48.720        47
48.730        67
48.740        73
48.750        80
48.760        67
48.770        33
48.780        47
48.790        47
48.800        67
48.810        33
48.820        27
48.830        73
48.840        87
48.850        67
48.860        67
48.870        33
48.880        73
48.890        47
48.900        60
48.910        60
48.920        73
48.930        73
48.940        67
48.950        87
48.960        53
48.970        33
48.980        67
48.990        60
49.000        47
49.010        53
49.020        73
49.030         0
49.040        47
49.050        20
49.060        53
49.070        40
49.080        27
49.090        73
49.100        40
49.110        87
49.120        20
49.130        80
49.140        93
49.150        60
49.160        27
49.170        73
49.180        27
49.190        80
49.200        67
49.210        47
49.220        53
49.230        67
49.240        67
49.250        33
49.260        60
49.270        53
49.280        53
49.290        67
49.300        47
49.310        40
49.320        53
49.330        60
49.340        40
49.350        67
49.360        33
49.370        40
49.380        80
49.390        53
49.400        73
49.410        40
49.420        40
49.430        60
49.440        20
49.450        53
49.460        20
49.470        53
49.480        60
49.490        53
49.500        60
49.510        53
49.520        60
49.530        47
49.540        53
49.550        47
49.560        53
49.570        47
49.580        40
49.590        80
49.600        60
49.610        67
49.620        27
49.630        40
49.640        13
49.650        27
49.660        27
49.670        60
49.680        53
49.690        67
49.700        13
49.710        53
49.720        53
49.730        40
49.740        40
49.750        33
49.760        67
49.770        60
49.780        73
49.790        53
49.800        47
49.810        40
49.820        73
49.830        13
49.840        60
49.850        60
49.860        47
49.870        73
49.880        60
49.890        40
49.900        40
49.910        53
49.920        93
49.930        73
49.940        33
49.950        67
49.960        47
49.970        47
49.980        40
49.990        27
50.000        40
50.010        20
50.020        53
50.030        73
50.040        60
50.050        40
50.060        47
50.070        40
50.080        27
50.090        60
50.100        47
50.110        53
50.120        40
50.130        73
50.140        27
50.150        27
50.160        53
50.170        60
50.180        27
50.190        33
50.200        53
50.210        53
50.220        67
50.230        67
50.240        27
50.250        27
50.260        40
50.270        53
50.280        73
50.290        67
50.300        53
50.310        60
50.320        80
50.330        27
50.340        67
50.350        47
50.360        73
50.370        40
50.380        53
50.390        20
50.400        53
50.410        33
50.420        33
50.430        47
50.440        40
50.450        47
50.460        53
50.470        33
50.480        53
50.490        33
50.500        80
50.510        53
50.520        33
50.530       107
50.540        60
50.550        73
50.560        53
50.570        67
50.580        53
50.590        60
50.600       127
50.610        47
50.620       107
50.630        93
50.640       113
50.650       160
50.660       173
50.670       193
50.680       153
50.690       273
50.700       313
50.710       360
50.720       360
50.730       327
50.740       280
50.750       380
50.760       380
50.770       413
50.780       333
50.790       387
50.800       353
50.810       433
50.820       300
50.830       486
50.840       340
50.850       360
50.860       360
50.870       327
50.880       420
50.890       353
50.900       413
50.910       293
50.920       380
50.930       393
50.940       327
50.950       420
50.960       360
50.970       380
50.980       387
50.990       287
51.000       360
51.010       347
51.020       400
51.030       387
51.040       347
51.050       320
51.060       373
51.070       407
51.080       313
51.090       340
51.100       426
51.110       400
51.120       353
51.130       380
51.140       413
51.150       393
51.160       340
51.170       347
51.180       413
51.190       360
51.200       353
51.210       426
51.220       387
51.230       380
51.240       340
51.250       407
51.260       433
51.270       446
51.280       420
51.290       347
51.300       367
51.310       340
51.320       367
51.330       373
51.340       440
51.350       373
51.360       426
51.370       380
51.380       426
51.390       426
51.400       387
51.410       307
51.420       426
51.430       453
51.440       333
51.450       353
51.460       513
51.470       400
51.480       420
51.490       407
51.500       433
51.510       380
51.520       413
51.530       440
51.540       413
51.550       387
51.560       407
51.570       426
51.580       426
51.590       460
51.600       440
51.610       413
51.620       360
51.630       433
51.640       407
51.650       473
51.660       466
51.670       453
51.680       413
51.690       426
51.700       333
51.710       493
51.720       420
51.730       466
51.740       493
51.750       486
51.760       526
51.770       393
51.780       460
51.790       426
51.800       460
51.810       480
51.820       367
51.830       420
51.840       433
51.850       360
51.860       493
51.870       393
51.880       513
51.890       540
51.900       453
51.910       486
51.920       533
51.930       466
51.940       493
51.950       600
51.960       426
51.970       613
51.980       553
51.990       573
52.000       653
52.010       486
52.020       566
52.030       620
52.040       513
52.050       560
52.060       633
52.070       606
52.080       553
52.090       573
52.100       593
52.110       606
52.120       733
52.130       746
52.140       773
52.150       773
52.160       693
52.170       820
52.180       840
52.190       813
52.200       860
52.210      1040
52.220       873
52.230      1066
52.240      1093
52.250      1100
52.260      1200
52.270      1379
52.280      1533
52.290      1566
52.300      1893
52.310      2046
52.320      2272
52.330      2932
52.340      3212
52.350      3519
52.360      4018
52.370      4552
52.380      4998
52.390      5644
52.400      5718
52.410      6064
52.420      6297
52.430      6784
52.440      7157
52.450      7890
52.460      7963
52.470      8796
52.480      9330
52.490     10163
52.500     11715
52.510     14568
52.520     18286
52.530     25383
52.540     39204
52.550     64707
52.560     97021
52.570    128795
52.580    152319
52.590    165201
52.600    169832
52.610    167613
52.620    157450
52.630    133160
52.640    100546
52.650     68406
52.660     46835
52.670     36039
52.680     35939
52.690     45022
52.700     60949
52.710     76303
52.720     90024
52.730     96341
52.740     98707
52.750     97148
52.760     88071
52.770     73750
52.780     54258
52.790     36919
52.800     23151
52.810     16114
52.820     11102
52.830      8537
52.840      6817
52.850      5731
52.860      5198
52.870      4625
52.880      4025
52.890      3179
52.900      3132
52.910      2719
52.920      2099
52.930      2112
52.940      1953
52.950      1759
52.960      1746
52.970      1633
52.980      1379
52.990      1359
53.000      1259
53.010      1259
53.020      1106
53.030      1286
53.040      1073
53.050      1086
53.060       906
53.070       900
53.080       913
53.090       946
53.100       873
53.110       733
53.120       840
53.130       800
53.140       880
53.150       880
53.160       820
53.170       720
53.180       693
53.190       733
53.200       586
53.210       780
53.220       606
53.230       640
53.240       680
53.250       653
53.260       713
53.270       580
53.280       680
53.290       680
53.300       560
53.310       653
53.320       580
53.330       580
53.340       613
53.350       613
53.360       540
53.370       593
53.380       580
53.390       613
53.400       526
53.410       473
53.420       540
53.430       493
53.440       533
53.450       466
53.460       613
53.470       520
53.480       360
53.490       446
53.500       440
53.510       560
53.520       460
53.530       426
53.540       433
53.550       407
53.560       533
53.570       480
53.580       380
53.590       433
53.600       433
53.610       446
53.620       486
53.630       446
53.640       353
53.650       400
53.660       413
53.670       400
53.680       340
53.690       327
53.700       380
53.710       440
53.720       307
53.730       347
53.740       313
53.750       327
53.760       220
53.770       373
53.780       327
53.790       333
53.800       333
53.810       280
53.820       313
53.830       387
53.840       300
53.850       313
53.860       273
53.870       327
53.880       413
53.890       387
53.900       387
53.910       420
53.920       333
53.930       380
53.940       473
53.950       333
53.960       367
53.970       320
53.980       260
53.990       387
54.000       247
54.010       333
54.020       387
54.030       347
54.040       407
54.050       293
54.060       307
54.070       413
54.080       373
54.090       240
54.100       320
54.110       280
54.120       400
54.130       240
54.140       260
54.150       327
54.160       360
54.170       353
54.180       247
54.190       333
54.200       227
54.210       367
54.220       347
54.230       320
54.240       260
54.250       313
54.260       347
54.270       233
54.280       327
54.290       313
54.300       227
54.310       340
54.320       333
54.330       333
54.340       293
54.350       227
54.360       340
54.370       233
54.380       293
54.390       240
54.400       293
54.410       273
54.420       347
54.430       280
54.440       307
54.450       313
54.460       307
54.470       267
54.480       280
54.490       253
54.500       307
54.510       327
54.520       347
54.530       327
54.540       340
54.550       220
54.560       233
54.570       280
54.580       280
54.590       300
54.600       240
54.610       173
54.620       287
54.630       193
54.640       267
54.650       193
54.660       333
54.670       267
54.680       220
54.690       293
54.700       160
54.710       253
54.720       267
54.730       267
54.740       247
54.750       227
54.760       200
54.770       347
54.780       213
54.790       240
54.800       213
54.810       287
54.820       160
54.830       267
54.840       167
54.850       300
54.860       207
54.870       300
54.880       273
54.890       213
54.900       300
54.910       287
54.920       267
54.930       287
54.940       293
54.950       273
54.960       253
54.970       220
54.980       220
54.990       280
55.000       240
55.010       320
55.020       173
55.030       173
55.040       307
55.050       300
55.060       227
55.070       280
55.080       353
55.090       247
55.100       207
55.110       187
55.120       207
55.130       240
55.140       233
55.150       280
55.160       220
55.170       207
55.180       267
55.190       207
55.200       213
55.210       200
55.220       213
55.230       267
55.240       247
55.250       213
55.260       213
55.270       300
55.280       173
55.290       307
55.300       273
55.310       200
55.320       207
55.330       273
55.340       167
55.350       193
55.360       200
55.370       327
55.380       273
55.390       200
55.400       160
55.410       180
55.420       233
55.430       247
55.440       240
55.450       233
55.460       233
55.470       220
55.480       247
55.490       193
55.500       287
55.510       180
55.520       227
55.530       213
55.540       300
55.550       273
55.560       220
55.570       260
55.580       207
55.590       180
55.600       213
55.610       167
55.620       193
55.630       253
55.640       267
55.650       227
55.660       240
55.670       253
55.680       247
55.690       207
55.700       120
55.710       253
55.720       240
55.730       213
55.740       187
55.750       213
55.760       253
55.770       193
55.780       153
55.790       260
55.800       207
55.810       160
55.820       233
55.830       180
55.840       193
55.850       207
55.860       247
55.870       193
55.880       207
55.890       180
55.900       227
55.910       220
55.920       173
55.930       173
55.940       180
55.950       120
55.960       160
55.970       220
55.980       240
55.990       187
56.000       247
56.010       207
56.020       173
56.030       227
56.040       293
56.050       207
56.060       173
56.070       113
56.080       193
56.090       173
56.100       240
56.110       227
56.120       200
56.130       227
56.140       200
56.150       180
56.160       200
56.170       173
56.180       193
56.190       200
56.200       167
56.210       153
56.220       167
56.230       167
56.240       167
56.250       160
56.260       160
56.270       167
56.280       200
56.290       220
56.300       153
56.310       193
56.320       207
56.330       200
56.340       167
56.350       247
56.360       220
56.370       213
56.380       213
56.390       213
56.400       227
56.410       200
56.420       187
56.430       100
56.440       140
56.450       227
56.460       213
56.470       133
56.480       253
56.490       147
56.500       193
56.510       147
56.520       247
56.530       167
56.540       207
56.550       173
56.560       167
56.570       180
56.580       193
56.590       113
56.600        93
56.610       193
56.620       160
56.630       173
56.640       173
56.650       187
56.660       227
56.670       220
56.680       180
56.690       180
56.700       167
56.710       167
56.720       173
56.730       193
56.740       227
56.750       193
56.760       167
56.770       207
56.780       167
56.790       207
56.800       233
56.810       193
56.820       207
56.830       187
56.840       133
56.850       167
56.860       200
56.870       160
56.880       207
56.890       207
56.900       133
56.910       240
56.920       153
56.930       187
56.940       153
56.950       233
56.960       207
56.970       220
56.980       140
56.990       147
57.000       213
57.010       167
57.020       153
57.030       100
57.040       147
57.050       180
57.060       167
57.070       147
57.080       207
57.090       180
57.100       153
57.110       127
57.120       160
57.130       127
57.140       180
57.150       127
57.160       120
57.170       220
57.180       173
57.190       133
57.200       187
57.210       167
57.220       173
57.230       200
57.240       160
57.250       147
57.260       153
57.270       200
57.280       147
57.290       113
57.300       227
57.310       200
57.320       140
57.330       107
57.340       200
57.350       180
57.360       200
57.370       173
57.380       227
57.390       120
57.400       213
57.410       153
57.420       180
57.430       220
57.440       167
57.450       133
57.460       167
57.470       200
57.480       107
57.490       207
57.500       187
57.510       127
57.520        87
57.530       153
57.540       160
57.550       213
57.560       127
57.570       113
57.580       160
57.590       147
57.600       173
57.610       180
57.620       153
57.630       140
57.640       107
57.650       227
57.660       180
57.670       147
57.680       260
57.690       140
57.700       167
57.710       153
57.720       140
57.730       207
57.740       153
57.750       200
57.760       240
57.770       200
57.780       153
57.790       167
57.800       127
57.810       187
57.820       153
57.830       180
57.840       147
57.850       147
57.860       153
57.870       147
57.880       260
57.890       160
57.900       167
57.910       140
57.920       153
57.930       207
57.940       107
57.950       187
57.960       187
57.970       153
57.980       227
57.990       133
58.000       133
58.010       113
58.020       173
58.030       127
58.040       207
58.050       147
58.060       147
58.070       160
58.080       167
58.090       173
58.100       147
58.110       153
58.120       193
58.130       167
58.140       153
58.150       160
58.160       153
58.170       133
58.180       200
58.190       173
58.200       133
58.210       107
58.220       100
58.230       160
58.240       240
58.250       147
58.260       167
58.270       167
58.280       127
58.290       113
58.300       173
58.310       120
58.320       173
58.330       140
58.340       160
58.350       173
58.360       153
58.370       140
58.380       133
58.390        93
58.400       160
58.410        87
58.420       193
58.430       133
58.440       127
58.450       113
58.460       187
58.470       167
58.480       187
58.490       133
58.500       120
58.510       140
58.520       100
58.530       153
58.540       153
58.550       220
58.560       127
58.570       153
58.580       160
58.590       120
58.600       127
58.610       167
58.620       120
58.630       107
58.640       173
58.650       160
58.660        93
58.670       133
58.680       153
58.690       153
58.700       133
58.710       140
58.720        87
58.730       153
58.740       140
58.750       193
58.760       147
58.770       127
58.780       133
58.790       127
58.800       167
58.810       160
58.820       153
58.830       133
58.840       140
58.850       113
58.860       193
58.870       113
58.880       147
58.890       187
58.900        93
58.910       153
58.920       133
58.930       127
58.940       140
58.950       140
58.960        87
58.970        93
58.980       100
58.990        80
59.000       147
59.010       180
59.020       120
59.030       167
59.040       147
59.050        93
59.060       107
59.070        80
59.080       127
59.090       173
59.100       133
59.110       140
59.120       167
59.130       107
59.140       107
59.150       167
59.160       127
59.170       200
59.180       153
59.190       147
59.200        80
59.210       167
59.220       120
59.230       120
59.240       107
59.250       133
59.260       113
59.270       147
59.280       153
59.290       153
59.300       147
59.310       160
59.320       120
59.330       167
59.340       133
59.350       113
59.360        93
59.370       113
59.380       153
59.390       200
59.400       107
59.410        80
59.420       167
59.430       127
59.440       153
59.450       133
59.460       153
59.470       180
59.480       100
59.490       127
59.500       133
59.510        93
59.520       100
59.530       153
59.540       100
59.550       113
59.560       160
59.570       200
59.580       153
59.590       113
59.600       120
59.610       147
59.620       140
59.630       120
59.640       153
59.650       127
59.660       180
59.670       113
59.680       160
59.690       133
59.700       180
59.710       147
59.720       120
59.730       167
59.740       147
59.750       113
59.760       107
59.770       140
59.780       113
59.790       173
59.800       107
59.810       127
59.820       107
59.830       100
59.840       153
59.850       113
59.860       100
59.870       160
59.880        87
59.890       113
59.900       113
59.910       133
59.920       120
59.930       113
59.940       107
59.950       153
59.960       107
59.970       120
59.980       147
59.990        93
60.000       127
