20.000        33
20.010        47
20.020        27
20.030        60
20.040        33
20.050        53
20.060        33
20.070        27
20.080        40
20.090        33
20.100        40
20.110        27
20.120        47
20.130        53
20.140        67
20.150        47
20.160        47
20.170        73
20.180        27
20.190        47
20.200        73
20.210        67
20.220        40
20.230        47
20.240        40
20.250        27
20.260        67
20.270        40
20.280        47
20.290        47
20.300        40
20.310        53
20.320        27
20.330        67
20.340        27
20.350        40
20.360        60
20.370        53
20.380        47
20.390        53
20.400        60
20.410        47
20.420        27
20.430        73
20.440        60
20.450        20
20.460        13
20.470        80
20.480        13
20.490        53
20.500         7
20.510        73
20.520        33
20.530        33
20.540        13
20.550        40
20.560        93
20.570        53
20.580        33
20.590        33
20.600        33
20.610        47
20.620        40
20.630        20
20.640        27
20.650        27
20.660        60
20.670        47
20.680        27
20.690        33
20.700        47
20.710        40
20.720        60
20.730        33
20.740        20
20.750        53
20.760        40
20.770         7
20.780        33
20.790        60
20.800        40
20.810        40
20.820        47
20.830        47
20.840        40
20.850        53
20.860        33
20.870        67
20.880        33
20.890        33
20.900        47
20.910        27
20.920        27
20.930        40
20.940        60
20.950        73
20.960        40
20.970        53
20.980        67
20.990        40
21.000        13
21.010        40
21.020        47
21.030        27
21.040        60
21.050        40
21.060        40
21.070        20
21.080        67
21.090        47
21.100        53
21.110        20
21.120        13
21.130        53
21.140        73
21.150        33
21.160        53
21.170        40
21.180        53
21.190        40
21.200        67
21.210        67
21.220        27
21.230        33
21.240        93
21.250        13
21.260        93
21.270        27
21.280        60
21.290        20
21.300        20
21.310        47
21.320        33
21.330        53
21.340        40
21.350        47
21.360        53
21.370        33
21.380        60
21.390        33
21.400        20
21.410        20
21.420        47
21.430        33
21.440        47
21.450        60
21.460        67
21.470        80
21.480        27
21.490        40
21.500        27
21.510        33
21.520        13
21.530        33
21.540        33
21.550        27
21.560        13
21.570        33
21.580        47
21.590        47
21.600        40
21.610        47
21.620        40
21.630        60
21.640        47
21.650        80
21.660        27
21.670        40
21.680        53
21.690        47
21.700        33
21.710        13
21.720        13
21.730        33
21.740        53
21.750        27
21.760        27
21.770        20
21.780        47
21.790        40
21.800        27
21.810        13
21.820        33
21.830        67
21.840        47
21.850        40
21.860        20
21.870        27
21.880        67
21.890        27
21.900        40
21.910        60
21.920         7
21.930        20
21.940        53
21.950        13
21.960        33
21.970        53
21.980        27
21.990        80
22.000        33
22.010        33
22.020        40
22.030        53
22.040        33
22.050        13
22.060        53
22.070        53
22.080        53
22.090        33
22.100        27
22.110        27
22.120        33
22.130        20
22.140        33
22.150        53
22.160        53
22.170        33
22.180        40
22.190        20
22.200        27
22.210        53
22.220        67
22.230        27
22.240        47
22.250        53
22.260        13
22.270        20
22.280        53
22.290        33
22.300        27
22.310        33
22.320        33
22.330        47
22.340        20
22.350        53
22.360        20
22.370        73
22.380        27
22.390        27
22.400        27
22.410        13
22.420        20
22.430        60
22.440        33
22.450        27
22.460        47
22.470        40
22.480        40
22.490        40
22.500        33
22.510        33
22.520        47
22.530        33
22.540        20
22.550        33
22.560        27
22.570        40
22.580        33
22.590        33
22.600        47
22.610        13
22.620        33
22.630        60
22.640        40
22.650        40
22.660        27
22.670        47
22.680        33
22.690        20
22.700         7
22.710        20
22.720        67
22.730        40
22.740        60
22.750        73
22.760        53
22.770        40
22.780        40
22.790        13
22.800        13
22.810        40
22.820        13
22.830        67
22.840        33
22.850        47
22.860        33
22.870        53
22.880        27
22.890        40
22.900        40
22.910        60
22.920        13
22.930        27
22.940        20
22.950        20
22.960        60
22.970        33
22.980        53
22.990        40
23.000        27
23.010        33
23.020        40
23.030        53
23.040         7
23.050        33
23.060        33
23.070        60
23.080        40
23.090        33
23.100        53
23.110        33
23.120        33
23.130        67
23.140        33
23.150        47
23.160        33
23.170        47
23.180        33
23.190        47
23.200        40
23.210        60
23.220        27
23.230        60
23.240        13
23.250        13
23.260        33
23.270        33
23.280        20
23.290        33
23.300        40
23.310        67
23.320        47
23.330        40
23.340        33
23.350        27
23.360        40
23.370        47
23.380        40
23.390        33
23.400        27
23.410        20
23.420         7
23.430        33
23.440        47
23.450        33
23.460        53
23.470        27
23.480        53
23.490        20
23.500        33
23.510        47
23.520        20
23.530        20
23.540        33
23.550        53
23.560        33
23.570        33
23.580        40
23.590        13
23.600        33
23.610         7
23.620        27
23.630        20
23.640        20
23.650        53
23.660        27
23.670        33
23.680        27
23.690        53
23.700         7
23.710        47
23.720        20
23.730        27
23.740        27
23.750        67
23.760        13
23.770        33
23.780        33
23.790        47
23.800        67
23.810        13
23.820        27
23.830        13
23.840        13
23.850        40
23.860        13
23.870        40
23.880        47
23.890        33
23.900        40
23.910        40
23.920        33
23.930        20
23.940        20
23.950        40
23.960         7
23.970        33
23.980        47
23.990        80
24.000        27
24.010        40
24.020        33
24.030        60
24.040        53
24.050        33
24.060        33
24.070        27
24.080        20
24.090        53
24.100        40
24.110        20
24.120        40
24.130        13
24.140        27
24.150        40
24.160        33
24.170        53
24.180        53
24.190        47
24.200        20
24.210        40
24.220        20
24.230        60
24.240        33
24.250        33
24.260        27
24.270        33
24.280        20
24.290        20
24.300        27
24.310        27
24.320        40
24.330        13
24.340        27
24.350        47
24.360        20
24.370        20
24.380        20
24.390        60
24.400        40
24.410        13
24.420        33
24.430        67
24.440        27
24.450        27
24.460        40
24.470        27
24.480        67
24.490        27
24.500        33
24.510        33
24.520        47
24.530        13
24.540        47
24.550        27
24.560        40
24.570        13
24.580        53
24.590        33
24.600        47
24.610        40
24.620        20
24.630        20
24.640        27
24.650        60
24.660        40
24.670        67
24.680        20
24.690        53
24.700        27
24.710        33
24.720        40
24.730        27
24.740        13
24.750        47
24.760        20
24.770        53
24.780        20
24.790        40
24.800        20
24.810         7
24.820        47
24.830        33
24.840        40
24.850        13
24.860        40
24.870        20
24.880        33
24.890         7
24.900         7
24.910        53
24.920        40
24.930        40
24.940        60
24.950        27
24.960        20
24.970        20
24.980        47
24.990        47
25.000        47
25.010        33
25.020        27
25.030        33
25.040        20
25.050        13
25.060        27
25.070        20
25.080        13
25.090        13
25.100        33
25.110        13
25.120        27
25.130        40
25.140        33
25.150        27
25.160        20
25.170        67
25.180        27
25.190        27
25.200        27
25.210        20
25.220        13
25.230        33
25.240        27
25.250        53
25.260        40
25.270        53
25.280        87
25.290        47
25.300        13
25.310        60
25.320        20
25.330        27
25.340        47
25.350        73
25.360        40
25.370        67
25.380        60
25.390        47
25.400        47
25.410        27
25.420        27
25.430        40
25.440        73
25.450        67
25.460        40
25.470        40
25.480        87
25.490       100
25.500       100
25.510        73
25.520       100
25.530       113
25.540       180
25.550       187
25.560       193
25.570       173
25.580       173
25.590       173
25.600       233
25.610       213
25.620       173
25.630       133
25.640       193
25.650       127
25.660       107
25.670       147
25.680        73
25.690        80
25.700       100
25.710        73
25.720        67
25.730        40
25.740        53
25.750        47
25.760        33
25.770        60
25.780        33
25.790        47
25.800        33
25.810         7
25.820        27
25.830        20
25.840        33
25.850        53
25.860        13
25.870        13
25.880        27
25.890        80
25.900        33
25.910        13
25.920        67
25.930        40
25.940        33
25.950        20
25.960        40
25.970        13
25.980        13
25.990        33
26.000        20
26.010        13
26.020        27
26.030        47
26.040        33
26.050        27
26.060        33
26.070        20
26.080        47
26.090        27
26.100        13
26.110        27
26.120        27
26.130        27
26.140        40
26.150        33
26.160        40
26.170        20
26.180        33
26.190        20
26.200        47
26.210        20
26.220        40
26.230        27
26.240        40
26.250        40
26.260        27
26.270        27
26.280        27
26.290        20
26.300        47
26.310        27
26.320        53
26.330        33
26.340        13
26.350        27
26.360        40
26.370        40
26.380        13
26.390        33
26.400        20
26.410        33
26.420        27
26.430         7
26.440        27
26.450        20
26.460        40
26.470        47
26.480        27
26.490         7
26.500        47
26.510        20
26.520        13
26.530        40
26.540        27
26.550        27
26.560        53
26.570        27
26.580        60
26.590        13
26.600        27
26.610         7
26.620        47
26.630        20
26.640        13
26.650        27
26.660        20
26.670        67
26.680        27
26.690         7
26.700        40
26.710        27
26.720        20
26.730        27
26.740        20
26.750         7
26.760        53
26.770        47
26.780        27
26.790        47
26.800        40
26.810        47
26.820        27
26.830        40
26.840        27
26.850        20
26.860        53
26.870        33
26.880        20
26.890        27
26.900        40
26.910        47
26.920        13
26.930         7
26.940        33
26.950        20
26.960        40
26.970        13
26.980        40
26.990        33
27.000         7
27.010         7
27.020        40
27.030        67
27.040        27
27.050        13
27.060        27
27.070        20
27.080        13
27.090        80
27.100        13
27.110        40
27.120        27
27.130        13
27.140        20
27.150         0
27.160        33
27.170        27
27.180         7
27.190        13
27.200        20
27.210        53
27.220        27
27.230        27
27.240        13
27.250        60
27.260        27
27.270        20
27.280        40
27.290        33
27.300        33
27.310        20
27.320        13
27.330        13
27.340        33
27.350        40
27.360        33
27.370        33
27.380        13
27.390        13
27.400        20
27.410        47
27.420        53
27.430        40
27.440        20
27.450        33
27.460        33
27.470         7
27.480        40
27.490        13
27.500        40
27.510        13
27.520        33
27.530        20
27.540        13
27.550         7
27.560        20
27.570        33
27.580        40
27.590        27
27.600        13
27.610         0
27.620        33
27.630        13
27.640        13
27.650        13
27.660        40
27.670        47
27.680        13
27.690        27
27.700        20
27.710        53
27.720        33
27.730         7
27.740        33
27.750        27
27.760        13
27.770        27
27.780        60
27.790        20
27.800        53
27.810         7
27.820        27
27.830        40
27.840        13
27.850        20
27.860        20
27.870        13
27.880        40
27.890        27
27.900        33
27.910        13
27.920        20
27.930        33
27.940         7
27.950        47
27.960         7
27.970        27
27.980        33
27.990         7
28.000         7
28.010        27
28.020        20
28.030        20
28.040        20
28.050        20
28.060        40
28.070        27
28.080        40
28.090        60
28.100        40
28.110        33
28.120        33
28.130        20
28.140        27
28.150        20
28.160        33
28.170        53
28.180        20
28.190        27
28.200        40
28.210        13
28.220        33
28.230        33
28.240        33
28.250        47
28.260        40
28.270        13
28.280        13
28.290        20
28.300        47
28.310        20
28.320        13
28.330        33
28.340        20
28.350        33
28.360        40
28.370        27
28.380         7
28.390        40
28.400        27
28.410        13
28.420        13
28.430         7
28.440        33
28.450        40
28.460        13
28.470        47
28.480        13
28.490        13
28.500        53
28.510        27
28.520        20
28.530        27
28.540        13
28.550        40
28.560        27
28.570        20
28.580        13
28.590        33
28.600        33
28.610        27
28.620        53
28.630        13
28.640        13
28.650        33
28.660        20
28.670        40
28.680        27
28.690        20
28.700        47
28.710        27
28.720        33
28.730        27
28.740        33
28.750        13
28.760        27
28.770        13
28.780        13
28.790        33
28.800        13
28.810        20
28.820        27
28.830         7
28.840        13
28.850        20
28.860        20
28.870        33
28.880        33
28.890        27
28.900        53
28.910        47
28.920        27
28.930        60
28.940        40
28.950        20
28.960        27
28.970        27
28.980        33
28.990        13
29.000        27
29.010        20
29.020        33
29.030        47
29.040        47
29.050        40
29.060        27
29.070        40
29.080        53
29.090        33
29.100        20
29.110        13
29.120        27
29.130        53
29.140        40
29.150        27
29.160        20
29.170        27
29.180        13
29.190        40
29.200        20
29.210        27
29.220         0
29.230        20
29.240         7
29.250        13
29.260        47
29.270        33
29.280        53
29.290        27
29.300        40
29.310        20
29.320        27
29.330         7
29.340        27
29.350        27
29.360        27
29.370        20
29.380         7
29.390        40
29.400        13
29.410        20
29.420        20
29.430        27
29.440        20
29.450        40
29.460        33
29.470        40
29.480        20
29.490         7
29.500        20
29.510        27
29.520        20
29.530        20
29.540        33
29.550        33
29.560        20
29.570         7
29.580        27
29.590        27
29.600        20
29.610        47
29.620        20
29.630        33
29.640        53
29.650        13
29.660        27
29.670        27
29.680        80
29.690        53
29.700        20
29.710        20
29.720        13
29.730        27
29.740        13
29.750        40
29.760        27
29.770        20
29.780        20
29.790        20
29.800        33
29.810        27
29.820        27
29.830        33
29.840        40
29.850        33
29.860        33
29.870        40
29.880         7
29.890         7
29.900        27
29.910        33
29.920        20
29.930        40
29.940        33
29.950        20
29.960        13
29.970        33
29.980        20
29.990        47
30.000        27
30.010         0
30.020        27
30.030        40
30.040         7
30.050        27
30.060        20
30.070        20
30.080        20
30.090        27
30.100        20
30.110        27
30.120        27
30.130        27
30.140        33
30.150         7
30.160        20
30.170        20
30.180        40
30.190        13
30.200         7
30.210        27
30.220        53
30.230        20
30.240        27
30.250        20
30.260        13
30.270         7
30.280        20
30.290        20
30.300        13
30.310        27
30.320        27
30.330        27
30.340        13
30.350        27
30.360        13
30.370        20
30.380        33
30.390        13
30.400        27
30.410        53
30.420        27
30.430        20
30.440        33
30.450         7
30.460        33
30.470        20
30.480        20
30.490        20
30.500        13
30.510        13
30.520        40
30.530        47
30.540        33
30.550        40
30.560        27
30.570        13
30.580        13
30.590        33
30.600        33
30.610        40
30.620        27
30.630        27
30.640        40
30.650        13
30.660        33
30.670        13
30.680        20
30.690        13
30.700        33
30.710        20
30.720        27
30.730         7
30.740        13
30.750         7
30.760        20
30.770        33
30.780        20
30.790        27
30.800        13
30.810        53
30.820        13
30.830        47
30.840        53
30.850        27
30.860        40
30.870        27
30.880        47
30.890        47
30.900        60
30.910        13
30.920        27
30.930        27
30.940        53
30.950        27
30.960        20
30.970        40
30.980        47
30.990        40
31.000        33
31.010        40
31.020         7
31.030        27
31.040        27
31.050        27
31.060        20
31.070        20
31.080        27
31.090        53
31.100        47
31.110        40
31.120        47
31.130        13
31.140        20
31.150        33
31.160        27
31.170        33
31.180        40
31.190        13
31.200        27
31.210        13
31.220        13
31.230        33
31.240        33
31.250        13
31.260        20
31.270        20
31.280        27
31.290        13
31.300        13
31.310        13
31.320         7
31.330        33
31.340        13
31.350        20
31.360        47
31.370        53
31.380        33
31.390        20
31.400        40
31.410        53
31.420        33
31.430        27
31.440        13
31.450        33
31.460        53
31.470        40
31.480        27
31.490        33
31.500        60
31.510         7
31.520        40
31.530        40
31.540        13
31.550        27
31.560        47
31.570        20
31.580        47
31.590        73
31.600        47
31.610        80
31.620        47
31.630        13
31.640        27
31.650        33
31.660        27
31.670        27
31.680        60
31.690        60
31.700        27
31.710        47
31.720        60
31.730        73
31.740        67
31.750        33
31.760        73
31.770        20
31.780        13
31.790        27
31.800        80
31.810        67
31.820        40
31.830        40
31.840        40
31.850        60
31.860        47
31.870        47
31.880       113
31.890        53
31.900        60
31.910       113
31.920        87
31.930        27
31.940        73
31.950        87
31.960       127
31.970        60
31.980        80
31.990       127
32.000       133
32.010       220
32.020       167
32.030       133
32.040       187
32.050       260
32.060       200
32.070       213
32.080       227
32.090       213
32.100       233
32.110       267
32.120       313
32.130       247
32.140       260
32.150       280
32.160       253
32.170       367
32.180       353
32.190       367
32.200       420
32.210       360
32.220       260
32.230       347
32.240       446
32.250       413
32.260       333
32.270       400
32.280       313
32.290       307
32.300       413
32.310       300
32.320       380
32.330       280
32.340       273
32.350       327
32.360       367
32.370       307
32.380       280
32.390       200
32.400       227
32.410       207
32.420       233
32.430       153
32.440       173
32.450       187
32.460       173
32.470       220
32.480       167
32.490       173
32.500       147
32.510        93
32.520       153
32.530       147
32.540       160
32.550        40
32.560       107
32.570       153
32.580        93
32.590        53
32.600        67
32.610        67
32.620        80
32.630        53
32.640        53
32.650        60
32.660        73
32.670        60
32.680        53
32.690        27
32.700        27
32.710        40
32.720        53
32.730        80
32.740        60
32.750        53
32.760        73
32.770        73
32.780        60
32.790        40
32.800        27
32.810        33
32.820        27
32.830        33
32.840        47
32.850        80
32.860        53
32.870        53
32.880        40
32.890        47
32.900        33
32.910        53
32.920        53
32.930        40
32.940        40
32.950        33
32.960        27
32.970        40
32.980        27
32.990        33
33.000        53
33.010        40
33.020         7
33.030        60
33.040        27
33.050        53
33.060        20
33.070        33
33.080        13
33.090        13
33.100        47
33.110        33
33.120        20
33.130        13
33.140        27
33.150        20
33.160        67
33.170        13
33.180        27
33.190        67
33.200         7
33.210        20
33.220        33
33.230        47
33.240        20
33.250        53
33.260        13
33.270        20
33.280        47
33.290        33
33.300        20
33.310        47
33.320        20
33.330        20
33.340        13
33.350        27
33.360        40
33.370         7
33.380        20
33.390        27
33.400        47
33.410        60
33.420        20
33.430        40
33.440        40
33.450        20
33.460        20
33.470        33
33.480        20
33.490        33
33.500        20
33.510        20
33.520        27
33.530        27
33.540        20
33.550        47
33.560        20
33.570        27
33.580         7
33.590        33
33.600        27
33.610         7
33.620        47
33.630        33
33.640        27
33.650        47
33.660         0
33.670        33
33.680        13
33.690         7
33.700         0
33.710        27
33.720        27
33.730        20
33.740        13
33.750        27
33.760        27
33.770         0
33.780        47
33.790        33
33.800        27
33.810        13
33.820         7
33.830        40
33.840        53
33.850         7
33.860        27
33.870        33
33.880        20
33.890        47
33.900        20
33.910        47
33.920        20
33.930        53
33.940        47
33.950         7
33.960        47
33.970        20
33.980        33
33.990        27
34.000        40
34.010        27
34.020        47
34.030        53
34.040        33
34.050        20
34.060        20
34.070        20
34.080         7
34.090        27
34.100        20
34.110        27
34.120        20
34.130         0
34.140        47
34.150        27
34.160        40
34.170        20
34.180        27
34.190        40
34.200        53
34.210        47
34.220        40
34.230        20
34.240        53
34.250        13
34.260        40
34.270        27
34.280        27
34.290        27
34.300        40
34.310         7
34.320        33
34.330        13
34.340        27
34.350        33
34.360        40
34.370        27
34.380        27
34.390        20
34.400        33
34.410        27
34.420        33
34.430        27
34.440        13
34.450        60
34.460        20
34.470         7
34.480        27
34.490        47
34.500        13
34.510        40
34.520        33
34.530        13
34.540        27
34.550        40
34.560        27
34.570        20
34.580        13
34.590        20
34.600        27
34.610        33
34.620        33
34.630        27
34.640         7
34.650        27
34.660        47
34.670        20
34.680        40
34.690        13
34.700         7
34.710        20
34.720         0
34.730        13
34.740         7
34.750         7
34.760        20
34.770        53
34.780        20
34.790        33
34.800        20
34.810        20
34.820        27
34.830        33
34.840        47
34.850        47
34.860        20
34.870        47
34.880        33
34.890        13
34.900        13
34.910        60
34.920        33
34.930        40
34.940        80
34.950        33
34.960       153
34.970        67
34.980       100
34.990       127
35.000       127
35.010       127
35.020       147
35.030       140
35.040       180
35.050       187
35.060       220
35.070       200
35.080       313
35.090       287
35.100       293
35.110       500
35.120       700
35.130       873
35.140      1013
35.150      1206
35.160      1213
35.170      1100
35.180      1086
35.190      1013
35.200       933
35.210       966
35.220       773
35.230       700
35.240       633
35.250       546
35.260       633
35.270       533
35.280       566
35.290       367
35.300       287
35.310       293
35.320       180
35.330       100
35.340        87
35.350        47
35.360        47
35.370        60
35.380        47
35.390        47
35.400        87
35.410        60
35.420        33
35.430        20
35.440        40
35.450        20
35.460        53
35.470        40
35.480        40
35.490        20
35.500        47
35.510         7
35.520        33
35.530        20
35.540        33
35.550        53
35.560        27
35.570        47
35.580        13
35.590        27
35.600        13
35.610        60
35.620        33
35.630        13
35.640        60
35.650        20
35.660        33
35.670        27
35.680        13
35.690        40
35.700        13
35.710        20
35.720        47
35.730        33
35.740        33
35.750        20
35.760        13
35.770        40
35.780         7
35.790        53
35.800        20
35.810        27
35.820        40
35.830        33
35.840         7
35.850        47
35.860        33
35.870        33
35.880        47
35.890        27
35.900        13
35.910         0
35.920        40
35.930        20
35.940        33
35.950        40
35.960         7
35.970        47
35.980        20
35.990        13
36.000        27
36.010        47
36.020        20
36.030        27
36.040        40
36.050        20
36.060         7
36.070         7
36.080         7
36.090        20
36.100        20
36.110        13
36.120        13
36.130        13
36.140        40
36.150         7
36.160        47
36.170        27
36.180        20
36.190        20
36.200        33
36.210        33
36.220        27
36.230        33
36.240        47
36.250        20
36.260        33
36.270        20
36.280        20
36.290        33
36.300        33
36.310        20
36.320         7
36.330        27
36.340         7
36.350         7
36.360        20
36.370        20
36.380        13
36.390        20
36.400        27
36.410        27
36.420        20
36.430        47
36.440        20
36.450        47
36.460        13
36.470        33
36.480        47
36.490        27
36.500         7
36.510        20
36.520        33
36.530        20
36.540        20
36.550        20
36.560        20
36.570        13
36.580        20
36.590        40
36.600        20
36.610        33
36.620        53
36.630        27
36.640        33
36.650        33
36.660        13
36.670        40
36.680        13
36.690        40
36.700        47
36.710        20
36.720        13
36.730         0
36.740        20
36.750        13
36.760        33
36.770        20
36.780        13
36.790        47
36.800        27
36.810         0
36.820        27
36.830        20
36.840         7
36.850        13
36.860        53
36.870        27
36.880        20
36.890        27
36.900        33
36.910        27
36.920        40
36.930        20
36.940        27
36.950        40
36.960        20
36.970        27
36.980        27
36.990         7
37.000        40
37.010        53
37.020        47
37.030         7
37.040        20
37.050         7
37.060        47
37.070        13
37.080        27
37.090        40
37.100        20
37.110        40
37.120        40
37.130        20
37.140        33
37.150        20
37.160        20
37.170        33
37.180        20
37.190        27
37.200        47
37.210        40
37.220        33
37.230        33
37.240        20
37.250        13
37.260        13
37.270        13
37.280        33
37.290        47
37.300        20
37.310        27
37.320        20
37.330        27
37.340        27
37.350         7
37.360        20
37.370        20
37.380        20
37.390        40
37.400        20
37.410        20
37.420        20
37.430        27
37.440        20
37.450        20
37.460        33
37.470        27
37.480        13
37.490        20
37.500        40
37.510        27
37.520        47
37.530        33
37.540        27
37.550        40
37.560        13
37.570        20
37.580         7
37.590        20
37.600        67
37.610         0
37.620        13
37.630        27
37.640        13
37.650        40
37.660        40
37.670        20
37.680        60
37.690        53
37.700        53
37.710        67
37.720        80
37.730        53
37.740        73
37.750       100
37.760        87
37.770        93
37.780       133
37.790       113
37.800       220
37.810       180
37.820       327
37.830       120
37.840       167
37.850        93
37.860       133
37.870        93
37.880       107
37.890       133
37.900       173
37.910       127
37.920        93
37.930       127
37.940        93
37.950        67
37.960        47
37.970        13
37.980        40
37.990        33
38.000        27
38.010        47
38.020        20
38.030        20
38.040        47
38.050        20
38.060        20
38.070        40
38.080        13
38.090        20
38.100        20
38.110         0
38.120        27
38.130        40
38.140        40
38.150        13
38.160        33
38.170        27
38.180         7
38.190        20
38.200        13
38.210        27
38.220         0
38.230        27
38.240        20
38.250         7
38.260        47
38.270        13
38.280        27
38.290        13
38.300        13
38.310        40
38.320        20
38.330        13
38.340        13
38.350        27
38.360        27
38.370         7
38.380        20
38.390         7
38.400        20
38.410        33
38.420        27
38.430        20
38.440        13
38.450        27
38.460        40
38.470         7
38.480        13
38.490        53
38.500        13
38.510        13
38.520        13
38.530         7
38.540        27
38.550         7
38.560         7
38.570        13
38.580        27
38.590        20
38.600        27
38.610        20
38.620        20
38.630        33
38.640        47
38.650        20
38.660        13
38.670        13
38.680        20
38.690        20
38.700        13
38.710        13
38.720        33
38.730        13
38.740        20
38.750        27
38.760        13
38.770        20
38.780        20
38.790        13
38.800        27
38.810        13
38.820        40
38.830        13
38.840        33
38.850        13
38.860        33
38.870         7
38.880        27
38.890        20
38.900        20
38.910        13
38.920         7
38.930        47
38.940        13
38.950        20
38.960        33
38.970         7
38.980        20
38.990        33
39.000        20
39.010        40
39.020        13
39.030        20
39.040         7
39.050        13
39.060        20
39.070        47
39.080        53
39.090         7
39.100        20
39.110        27
39.120        20
39.130         0
39.140        47
39.150        47
39.160        40
39.170         7
39.180        13
39.190        13
39.200        20
39.210        40
39.220        27
39.230        33
39.240        27
39.250        20
39.260         7
39.270        20
39.280        20
39.290        20
39.300        27
39.310        20
39.320         7
39.330        27
39.340         7
39.350        20
39.360         7
39.370        27
39.380        20
39.390        20
39.400        27
39.410         7
39.420        13
39.430        20
39.440        20
39.450        27
39.460        20
39.470        20
39.480        40
39.490        13
39.500        27
39.510        13
39.520        40
39.530        33
39.540        20
39.550        13
39.560        53
39.570        20
39.580        47
39.590        20
39.600         7
39.610        27
39.620        20
39.630        40
39.640        33
39.650        40
39.660        40
39.670        53
39.680        13
39.690        33
39.700        33
39.710        13
39.720        33
39.730        27
39.740        33
39.750        47
39.760        47
39.770        53
39.780         7
39.790        47
39.800        40
39.810        33
39.820        20
39.830        40
39.840        73
39.850        40
39.860        33
39.870        27
39.880        20
39.890        33
39.900        80
39.910        40
39.920        27
39.930        80
39.940        67
39.950        47
39.960        33
39.970        40
39.980        27
39.990         7
40.000        53
40.010        27
40.020        47
40.030         7
40.040        40
40.050         7
40.060        47
40.070        20
40.080        47
40.090        20
40.100        27
40.110        20
40.120        27
40.130        20
40.140        13
40.150        13
40.160        13
40.170        27
40.180        33
40.190         7
40.200        27
40.210        33
40.220        33
40.230        33
40.240        20
40.250        13
40.260        20
40.270        13
40.280        47
40.290        20
40.300        33
40.310        20
40.320        13
40.330        13
40.340        33
40.350        33
40.360        60
40.370         7
40.380        40
40.390         7
40.400        20
40.410        13
40.420        20
40.430        40
40.440        33
40.450        20
40.460        40
40.470        47
40.480        20
40.490         7
40.500        27
40.510        20
40.520        13
40.530        13
40.540        13
40.550         7
40.560        33
40.570        13
40.580        20
40.590        27
40.600        20
40.610        13
40.620         7
40.630         7
40.640        13
40.650        13
40.660        13
40.670        47
40.680        20
40.690        20
40.700        27
40.710        20
40.720        27
40.730        20
40.740        27
40.750        33
40.760         7
40.770         0
40.780        27
40.790        13
40.800        27
40.810        20
40.820        33
40.830        33
40.840        13
40.850        20
40.860         7
40.870        20
40.880        27
40.890        13
40.900        13
40.910        27
40.920        13
40.930        20
40.940        13
40.950         7
40.960        33
40.970        40
40.980        20
40.990        33
41.000         7
41.010        20
41.020         7
41.030        20
41.040        33
41.050         0
41.060        20
41.070        13
41.080        27
41.090        40
41.100        27
41.110        13
41.120        20
41.130         0
41.140        13
41.150        13
41.160        53
41.170        27
41.180        27
41.190         7
41.200        13
41.210        13
41.220         0
41.230        33
41.240        40
41.250        13
41.260        27
41.270        13
41.280        60
41.290         7
41.300         7
41.310        20
41.320        27
41.330        13
41.340        20
41.350        33
41.360        20
41.370        20
41.380         7
41.390        13
41.400         7
41.410         7
41.420        27
41.430        40
41.440        33
41.450        13
41.460        13
41.470        27
41.480        53
41.490        20
41.500        40
41.510        47
41.520        27
41.530        40
41.540        27
41.550        40
41.560        33
41.570         7
41.580        73
41.590        40
41.600        27
41.610        47
41.620        60
41.630        80
41.640       100
41.650        80
41.660       127
41.670        60
41.680       107
41.690        93
41.700       113
41.710        80
41.720        80
41.730       100
41.740       100
41.750       107
41.760        67
41.770        33
41.780        53
41.790        60
41.800        60
41.810        93
41.820        73
41.830        47
41.840        27
41.850        40
41.860        27
41.870        33
41.880        20
41.890        40
41.900        13
41.910         7
41.920        27
41.930        20
41.940        20
41.950        20
41.960        20
41.970        20
41.980        40
41.990        13
42.000        40
42.010        27
42.020        33
42.030        20
42.040        20
42.050         7
42.060        47
42.070         7
42.080        20
42.090        13
42.100        27
42.110        13
42.120        20
42.130        20
42.140        33
42.150        27
42.160        40
42.170        13
42.180        53
42.190        13
42.200        53
42.210        20
42.220        13
42.230        27
42.240        13
42.250         7
42.260        40
42.270        13
42.280        13
42.290        13
42.300        13
42.310        13
42.320        13
42.330        20
42.340        13
42.350        27
42.360         7
42.370        13
42.380        13
42.390        20
42.400         7
42.410        13
42.420         7
42.430         7
42.440         7
42.450        33
42.460        20
42.470        20
42.480        33
42.490        13
42.500        13
42.510         7
42.520        27
42.530        13
42.540        27
42.550        20
42.560        20
42.570        20
42.580         7
42.590        13
42.600        47
42.610        13
42.620        27
42.630        13
42.640        27
42.650        20
42.660        53
42.670        47
42.680        27
42.690        27
42.700        20
42.710        13
42.720        27
42.730        20
42.740        33
42.750        13
42.760        20
42.770        27
42.780        27
42.790        33
42.800        27
42.810        27
42.820        27
42.830        13
42.840        13
42.850        27
42.860        53
42.870        13
42.880         7
42.890         7
42.900        27
42.910        13
42.920        13
42.930        53
42.940        13
42.950        40
42.960        13
42.970        33
42.980        13
42.990        20
43.000        20
43.010        13
43.020         0
43.030        27
43.040        27
43.050        20
43.060        20
43.070        13
43.080        13
43.090        33
43.100        33
43.110        27
43.120        27
43.130        47
43.140        27
43.150        33
43.160        60
43.170        40
43.180        33
43.190        87
43.200        67
43.210        60
43.220        53
43.230        60
43.240        53
43.250        93
43.260        67
43.270        47
43.280       107
43.290        93
43.300        93
43.310       120
43.320       173
43.330       213
43.340       320
43.350       420
43.360       407
43.370       526
43.380       466
43.390       486
43.400       460
43.410       287
43.420       413
43.430       340
43.440       267
43.450       233
43.460       200
43.470       247
43.480       260
43.490       220
43.500       300
43.510       240
43.520       187
43.530       253
43.540       133
43.550       133
43.560       140
43.570       113
43.580        73
43.590        13
43.600        20
43.610        27
43.620        20
43.630        20
43.640        20
43.650        13
43.660        27
43.670        13
43.680         7
43.690        27
43.700        53
43.710        40
43.720        27
43.730         0
43.740        60
43.750        13
43.760        20
43.770        20
43.780        40
43.790        13
43.800        33
43.810        20
43.820        27
43.830        33
43.840        20
43.850        33
43.860        13
43.870        20
43.880         7
43.890        13
43.900        20
43.910        13
43.920        53
43.930        27
43.940         7
43.950         7
43.960         0
43.970        40
43.980        20
43.990        13
44.000        47
44.010        40
44.020        27
44.030         7
44.040        20
44.050        33
44.060        20
44.070        20
44.080        27
44.090        27
44.100        13
44.110         7
44.120        27
44.130        13
44.140        20
44.150         7
44.160        33
44.170        20
44.180         7
44.190        13
44.200        27
44.210        13
44.220        13
44.230         7
44.240         7
44.250        40
44.260        27
44.270        33
44.280        20
44.290        13
44.300        13
44.310         7
44.320         0
44.330         7
44.340         0
44.350        27
44.360        20
44.370        20
44.380         7
44.390        20
44.400        27
44.410        60
44.420        20
44.430        13
44.440        40
44.450        20
44.460        13
44.470         0
44.480        20
44.490        20
44.500        13
44.510         0
44.520        40
44.530        27
44.540        20
44.550         7
44.560        20
44.570        13
44.580         7
44.590        20
44.600         7
44.610        13
44.620        13
44.630         7
44.640         7
44.650        20
44.660        33
44.670        13
44.680         7
44.690         7
44.700         7
44.710        27
44.720        20
44.730         7
44.740         7
44.750         7
44.760        27
44.770        20
44.780        20
44.790        13
44.800        27
44.810        33
44.820        27
44.830        13
44.840        20
44.850        27
44.860        13
44.870        20
44.880        13
44.890        27
44.900        27
44.910        27
44.920        27
44.930        20
44.940        20
44.950        13
44.960        27
44.970        33
44.980         7
44.990        47
45.000        20
45.010        47
45.020        40
45.030        33
45.040         7
45.050        27
45.060        13
45.070        13
45.080        27
45.090        13
45.100         0
45.110        33
45.120        33
45.130         7
45.140        33
45.150        27
45.160        33
45.170        13
45.180        13
45.190        13
45.200         0
45.210        13
45.220        13
45.230        40
45.240        40
45.250        13
45.260        20
45.270         7
45.280         7
45.290        13
45.300        13
45.310        33
45.320         7
45.330        53
45.340        20
45.350        13
45.360         7
45.370        27
45.380         7
45.390        13
45.400        20
45.410        27
45.420        13
45.430        20
45.440        20
45.450        33
45.460        13
45.470        27
45.480        20
45.490        20
45.500        53
45.510        27
45.520        13
45.530        27
45.540        13
45.550        47
45.560        27
45.570         7
45.580        40
45.590        20
45.600        33
45.610         7
45.620        47
45.630        27
45.640        33
45.650        33
45.660        27
45.670        33
45.680         7
45.690        20
45.700        20
45.710        27
45.720        60
45.730         0
45.740        33
45.750        40
45.760        33
45.770        47
45.780        27
45.790        27
45.800        40
45.810        20
45.820        40
45.830        27
45.840         7
45.850        40
45.860        40
45.870        13
45.880        53
45.890        40
45.900        80
45.910        20
45.920        47
45.930        40
45.940        87
45.950        33
45.960        13
45.970        47
45.980        27
45.990         7
46.000        80
46.010        33
46.020        53
46.030        40
46.040        33
46.050        20
46.060        33
46.070        27
46.080        20
46.090        73
46.100        40
46.110        60
46.120        53
46.130        20
46.140        27
46.150        60
46.160        20
46.170        13
46.180        60
46.190        60
46.200        27
46.210        67
46.220        53
46.230        20
46.240        73
46.250        73
46.260        40
46.270        67
46.280        40
46.290        47
46.300        60
46.310        53
46.320        60
46.330        60
46.340        47
46.350        40
46.360        80
46.370        33
46.380        13
46.390        53
46.400        40
46.410        27
46.420        27
46.430        47
46.440        20
46.450        40
46.460        33
46.470        53
46.480        27
46.490        20
46.500        47
46.510        33
46.520        47
46.530        60
46.540        13
46.550        27
46.560        20
46.570        33
46.580        27
46.590        53
46.600        27
46.610        60
46.620        40
46.630        27
46.640        47
46.650        47
46.660        13
46.670        13
46.680        33
46.690        33
46.700        33
46.710        33
46.720        47
46.730        20
46.740        27
46.750         0
46.760        33
46.770        60
46.780        13
46.790        33
46.800        20
46.810         7
46.820        13
46.830        13
46.840        27
46.850        27
46.860        40
46.870        20
46.880        13
46.890        40
46.900        33
46.910        13
46.920        33
46.930        13
46.940        27
46.950        13
46.960        33
46.970        27
46.980         7
46.990        40
47.000        20
47.010         7
47.020         7
47.030        33
47.040        60
47.050        33
47.060        27
47.070        27
47.080        33
47.090         7
47.100        20
47.110        33
47.120         7
47.130        13
47.140         7
47.150        27
47.160        27
47.170        27
47.180         7
47.190        27
47.200        27
47.210         7
47.220        40
47.230         7
47.240        40
47.250        33
47.260        40
47.270         7
47.280        13
47.290        27
47.300        27
47.310        13
47.320        20
47.330        33
47.340        53
47.350        20
47.360        40
47.370        33
47.380        13
47.390        13
47.400        33
47.410        27
47.420         7
47.430         7
47.440        13
47.450        20
47.460        27
47.470        13
47.480        13
47.490        20
47.500        27
47.510        13
47.520        20
47.530        13
47.540        13
47.550        47
47.560         7
47.570        27
47.580         0
47.590        13
47.600         7
47.610        33
47.620        13
47.630        20
47.640         0
47.650         7
47.660        20
47.670        13
47.680        33
47.690        20
47.700        20
47.710        47
47.720        13
47.730        33
47.740        20
47.750        27
47.760        33
47.770         7
47.780         7
47.790        27
47.800        27
47.810        27
47.820        20
47.830         7
47.840         7
47.850        20
47.860        13
47.870         7
47.880        27
47.890        20
47.900         7
47.910        13
47.920         7
47.930        33
47.940         0
47.950         7
47.960        47
47.970        13
47.980        13
47.990        13
48.000        13
48.010        20
48.020        13
48.030         7
48.040        13
48.050         0
48.060        13
48.070        13
48.080         7
48.090        13
48.100        13
48.110        47
48.120        47
48.130        20
48.140        20
48.150        33
48.160         7
48.170        13
48.180         7
48.190        20
48.200        13
48.210        13
48.220         7
48.230        47
48.240        27
48.250        13
48.260        27
48.270         7
48.280        20
48.290        40
48.300        27
48.310        27
48.320         0
48.330        27
48.340        33
48.350        33
48.360         7
48.370        13
48.380         7
48.390        33
48.400         7
48.410        20
48.420        20
48.430        13
48.440        20
48.450        27
48.460         7
48.470        13
48.480         0
48.490        47
48.500         7
48.510        20
48.520         7
48.530        13
48.540        20
48.550        20
48.560        13
48.570        33
48.580        20
48.590        27
48.600        13
48.610        27
48.620        20
48.630         7
48.640        40
48.650        13
48.660        13
48.670         7
48.680         0
48.690        33
48.700        13
48.710        40
48.720        20
48.730        13
48.740        13
48.750        27
48.760        33
48.770        27
48.780        20
48.790         7
48.800        33
48.810        27
48.820         7
48.830        13
48.840        13
48.850        13
48.860         0
48.870        27
48.880        33
48.890         0
48.900        13
48.910        53
48.920        13
48.930        20
48.940        20
48.950        13
48.960        20
48.970         7
48.980        13
48.990        27
49.000         7
49.010         0
49.020        20
49.030         0
49.040         0
49.050         0
49.060         0
49.070        13
49.080        20
49.090        13
49.100        40
49.110         0
49.120        20
49.130        13
49.140        13
49.150        20
49.160        27
49.170        20
49.180        13
49.190         7
49.200        13
49.210         0
49.220        13
49.230        27
49.240        13
49.250        20
49.260        20
49.270        33
49.280         0
49.290         7
49.300         7
49.310        20
49.320         7
49.330        13
49.340        27
49.350        13
49.360         7
49.370        13
49.380        40
49.390         7
49.400        13
49.410        27
49.420        20
49.430        20
49.440        20
49.450         7
49.460         7
49.470        13
49.480        13
49.490        20
49.500        13
49.510        13
49.520        20
49.530        27
49.540        20
49.550        13
49.560        33
49.570        13
49.580        20
49.590        13
49.600        13
49.610        13
49.620        27
49.630        27
49.640        40
49.650        27
49.660        20
49.670        13
49.680        27
49.690         0
49.700         7
49.710        13
49.720        40
49.730        13
49.740         7
49.750         7
49.760         0
49.770         0
49.780        13
49.790         7
49.800        13
49.810         7
49.820        13
49.830        13
49.840        27
49.850        13
49.860         0
49.870         7
49.880        27
49.890         7
49.900         0
49.910        47
49.920         7
49.930        13
49.940        20
49.950        13
49.960         0
49.970         0
49.980        40
49.990        13
50.000        13
50.010        13
50.020        33
50.030        20
50.040        13
50.050        27
50.060        20
50.070         7
50.080         7
50.090        33
50.100        27
50.110         7
50.120         7
50.130        13
50.140         7
50.150        47
50.160         7
50.170        13
50.180        13
50.190        33
50.200        20
50.210        13
50.220        20
50.230        20
50.240         7
50.250         0
50.260        20
50.270        13
50.280        20
50.290        27
50.300         7
50.310        20
50.320        27
50.330        27
50.340        13
50.350         7
50.360        13
50.370         7
50.380        27
50.390        20
50.400        33
50.410        13
50.420         0
50.430         7
50.440        13
50.450         7
50.460         7
50.470         0
50.480         7
50.490        20
50.500        13
50.510        13
50.520        13
50.530        20
50.540         7
50.550        33
50.560        20
50.570        33
50.580         7
50.590         7
50.600        20
50.610        40
50.620        13
50.630        20
50.640        33
50.650        20
50.660         7
50.670        13
50.680         0
50.690         7
50.700         7
50.710        13
50.720        13
50.730        27
50.740        20
50.750        20
50.760        13
50.770        13
50.780         7
50.790        27
50.800        13
50.810         0
50.820        20
50.830        27
50.840        40
50.850         0
50.860        20
50.870         7
50.880        13
50.890        20
50.900         7
50.910        27
50.920        13
50.930        20
50.940        13
50.950        27
50.960         7
50.970        13
50.980        20
50.990        13
51.000         0
51.010         7
51.020        27
51.030        40
51.040        27
51.050        33
51.060        13
51.070        47
51.080        20
51.090         7
51.100        33
51.110        20
51.120        20
51.130        13
51.140         7
51.150        47
51.160        20
51.170        20
51.180         0
51.190        27
51.200         7
51.210        13
51.220        20
51.230        13
51.240        13
51.250        13
51.260        27
51.270        20
51.280        20
51.290         7
51.300         7
51.310        20
51.320        27
51.330        27
51.340         7
51.350        27
51.360         7
51.370         7
51.380        13
51.390        13
51.400        20
51.410        13
51.420        13
51.430         7
51.440         7
51.450        27
51.460        20
51.470        13
51.480         7
51.490        13
51.500        13
51.510        33
51.520        33
51.530        13
51.540        40
51.550        20
51.560        80
51.570         7
51.580        27
51.590        33
51.600        13
51.610         7
51.620        20
51.630        13
51.640        20
51.650         7
51.660         7
51.670        13
51.680        13
51.690         7
51.700        13
51.710        13
51.720         0
51.730        27
51.740         7
51.750        13
51.760         7
51.770        13
51.780        40
51.790        20
51.800         0
51.810        27
51.820         7
51.830         7
51.840        27
51.850        13
51.860        13
51.870         7
51.880        13
51.890        13
51.900        20
51.910        20
51.920        40
51.930         7
51.940        20
51.950         7
51.960         7
51.970        20
51.980        33
51.990        13
52.000        13
52.010        13
52.020         7
52.030         7
52.040        20
52.050         7
52.060         7
52.070         7
52.080         7
52.090        13
52.100        33
52.110        13
52.120         0
52.130         0
52.140        20
52.150        47
52.160         7
52.170         7
52.180        13
52.190        13
52.200         7
52.210         7
52.220        20
52.230         7
52.240        27
52.250        20
52.260        13
52.270        33
52.280        40
52.290        13
52.300         7
52.310        20
52.320        33
52.330        33
52.340         7
52.350         7
52.360        13
52.370        20
52.380        27
52.390        33
52.400        40
52.410        20
52.420        27
52.430        60
52.440         7
52.450        13
52.460        53
52.470        33
52.480        53
52.490        53
52.500        53
52.510        60
52.520        67
52.530        80
52.540       153
52.550       220
52.560       267
52.570       320
52.580       307
52.590       353
52.600       327
52.610       373
52.620       287
52.630       233
52.640       200
52.650        87
52.660       133
52.670        93
52.680        67
52.690       113
52.700       147
52.710       193
52.720       207
52.730       160
52.740       140
52.750       220
52.760       160
52.770        73
52.780       100
52.790        67
52.800        53
52.810        47
52.820        33
52.830        13
52.840        40
52.850        33
52.860        47
52.870        13
52.880        20
52.890        20
52.900        13
52.910        27
52.920        27
52.930         0
52.940         7
52.950         0
52.960        13
52.970         7
52.980        13
52.990        20
53.000         7
53.010         7
53.020        13
53.030        33
53.040         0
53.050         7
53.060        20
53.070         7
53.080         0
53.090        40
53.100         7
53.110         0
53.120         7
53.130        47
53.140        13
53.150        20
53.160        20
53.170         0
53.180        13
53.190        20
53.200        20
53.210         7
53.220         0
53.230        13
53.240        13
53.250        13
53.260        13
53.270        27
53.280         7
53.290        20
53.300         0
53.310         7
53.320        20
53.330         7
53.340         7
53.350        20
53.360         0
53.370        20
53.380         7
53.390         0
53.400         7
53.410        20
53.420         7
53.430         0
53.440         0
53.450        20
53.460        27
53.470        27
53.480        13
53.490        20
53.500        27
53.510         0
53.520        13
53.530         7
53.540        27
53.550         7
53.560        33
53.570        20
53.580        27
53.590        13
53.600        20
53.610        33
53.620         7
53.630         0
53.640        33
53.650        13
53.660        13
53.670        27
53.680        13
53.690        20
53.700        20
53.710        20
53.720        20
53.730         0
53.740         7
53.750        20
53.760        27
53.770         7
53.780         7
53.790        20
53.800        13
53.810        13
53.820        13
53.830        20
53.840        40
53.850        13
53.860        13
53.870         7
53.880        13
53.890        13
53.900        33
53.910        27
53.920        20
53.930         0
53.940         0
53.950         7
53.960        20
53.970        13
53.980         0
53.990        27
54.000         0
54.010        60
54.020        20
54.030        13
54.040         7
54.050        13
54.060         7
54.070        20
54.080        13
54.090        13
54.100        13
54.110         7
54.120        20
54.130         7
54.140         0
54.150        13
54.160        13
54.170        27
54.180         0
54.190        27
54.200        27
54.210        27
54.220        27
54.230         7
54.240        27
54.250        20
54.260         0
54.270        13
54.280        20
54.290         7
54.300         7
54.310        20
54.320         0
54.330        27
54.340        27
54.350        20
54.360         7
54.370         0
54.380        20
54.390        13
54.400         0
54.410         7
54.420        13
54.430        33
54.440         7
54.450        27
54.460        13
54.470        13
54.480         7
54.490        20
54.500        13
54.510         0
54.520        33
54.530         7
54.540        20
54.550        20
54.560         0
54.570        13
54.580        13
54.590         7
54.600        20
54.610        13
54.620        13
54.630         7
54.640        20
54.650        20
54.660         7
54.670         7
54.680        27
54.690         7
54.700        13
54.710         7
54.720        20
54.730        27
54.740         0
54.750         0
54.760         7
54.770         7
54.780        33
54.790        13
54.800        13
54.810        67
54.820         0
54.830        27
54.840         7
54.850        13
54.860         7
54.870         7
54.880        13
54.890        20
54.900        27
54.910         7
54.920        13
54.930         0
54.940        33
54.950        13
54.960        13
54.970        27
54.980        33
54.990        13
55.000        13
55.010        27
55.020         7
55.030        27
55.040        20
55.050        20
55.060         7
55.070        13
55.080        27
55.090         7
55.100        13
55.110         0
55.120         0
55.130        13
55.140         7
55.150        40
55.160         7
55.170         0
55.180         7
55.190        20
55.200        13
55.210        33
55.220         7
55.230        20
55.240         7
55.250        20
55.260         7
55.270        20
55.280         7
55.290        20
55.300        13
55.310        20
55.320        13
55.330        20
55.340         7
55.350        20
55.360        20
55.370        13
55.380         7
55.390        40
55.400        13
55.410         7
55.420         7
55.430         0
55.440        20
55.450        40
55.460         7
55.470         7
55.480         7
55.490        27
55.500        13
55.510        20
55.520        20
55.530        33
55.540        13
55.550         7
55.560        20
55.570        27
55.580        20
55.590        13
55.600         7
55.610         0
55.620         7
55.630         7
55.640        27
55.650        13
55.660         7
55.670        27
55.680         7
55.690         7
55.700         0
55.710        13
55.720        47
55.730         0
55.740        20
55.750        13
55.760         0
55.770        20
55.780        33
55.790         7
55.800         0
55.810        27
55.820        53
55.830         7
55.840        20
55.850        27
55.860        33
55.870        13
55.880        33
55.890        33
55.900        33
55.910        20
55.920        20
55.930        20
55.940        13
55.950        20
55.960        27
55.970         0
55.980         7
55.990        13
56.000         0
56.010        13
56.020        13
56.030         0
56.040        27
56.050        27
56.060        27
56.070        27
56.080         7
56.090        13
56.100        20
56.110        13
56.120         0
56.130         0
56.140        27
56.150        13
56.160        20
56.170        27
56.180        13
56.190        33
56.200         0
56.210        53
56.220        20
56.230        40
56.240        20
56.250         7
56.260        20
56.270        13
56.280         7
56.290         7
56.300        33
56.310        13
56.320         7
56.330        20
56.340        27
56.350        20
56.360        27
56.370        20
56.380        20
56.390        13
56.400        13
56.410        27
56.420         7
56.430        20
56.440        20
56.450        13
56.460        20
56.470         7
56.480         7
56.490         7
56.500        27
56.510        33
56.520        33
56.530        13
56.540        20
56.550        13
56.560        33
56.570        13
56.580        13
56.590         7
56.600        33
56.610         7
56.620         7
56.630        13
56.640         7
56.650         7
56.660        13
56.670         7
56.680        20
56.690         7
56.700        47
56.710        13
56.720        13
56.730        20
56.740        20
56.750         0
56.760        20
56.770         0
56.780        33
56.790         7
56.800        33
56.810        40
56.820        33
56.830        40
56.840        20
56.850         7
56.860        40
56.870         0
56.880        20
56.890        53
56.900        13
56.910        13
56.920         7
56.930        27
56.940         0
56.950         7
56.960        13
56.970         7
56.980        20
56.990        27
57.000        13
57.010        13
57.020        40
57.030        20
57.040        20
57.050        27
57.060        20
57.070        20
57.080         0
57.090        27
57.100        40
57.110        33
57.120        33
57.130        20
57.140        13
57.150        27
57.160        20
57.170        27
57.180        40
57.190        27
57.200        47
57.210        40
57.220        27
57.230        60
57.240        60
57.250        60
57.260        47
57.270        53
57.280        27
57.290        27
57.300        40
57.310        33
57.320        47
57.330        33
57.340        60
57.350        40
57.360        93
57.370        40
57.380        80
57.390       113
57.400        53
57.410       127
57.420       107
57.430       153
57.440       220
57.450       253
57.460       293
57.470       360
57.480       526
57.490       686
57.500       933
57.510       900
57.520      1073
57.530      1200
57.540      1206
57.550      1319
57.560      1160
57.570       986
57.580       633
57.590       407
57.600       380
57.610       387
57.620       253
57.630       287
57.640       300
57.650       393
57.660       473
57.670       560
57.680       513
57.690       560
57.700       466
57.710       706
57.720       513
57.730       407
57.740       353
57.750       267
57.760       133
57.770        80
57.780       147
57.790        93
57.800        33
57.810        40
57.820        60
57.830        47
57.840        40
57.850        33
57.860        27
57.870        40
57.880        33
57.890        20
57.900        33
57.910        47
57.920        27
57.930        33
57.940        27
57.950        40
57.960        47
57.970        33
57.980         7
57.990        20
58.000         7
58.010        33
58.020        33
58.030        40
58.040        13
58.050        20
58.060        20
58.070        33
58.080         7
58.090        13
58.100        20
58.110         7
58.120        20
58.130         7
58.140        40
58.150        20
58.160        20
58.170         0
58.180        13
58.190        33
58.200        33
58.210        13
58.220        47
58.230        13
58.240        27
58.250        20
58.260        13
58.270        13
58.280        20
58.290         7
58.300         7
58.310        20
58.320        27
58.330         7
58.340        13
58.350        33
58.360         0
58.370         0
58.380         0
58.390        13
58.400         7
58.410        13
58.420         7
58.430         7
58.440        20
58.450        20
58.460        20
58.470        13
58.480        13
58.490         7
58.500        13
58.510        20
58.520         7
58.530        27
58.540         7
58.550        20
58.560        27
58.570        20
58.580         0
58.590         7
58.600        27
58.610        13
58.620        20
58.630         7
58.640        33
58.650        13
58.660         7
58.670        13
58.680         0
58.690        13
58.700        20
58.710         7
58.720        33
58.730         7
58.740        13
58.750        33
58.760        13
58.770        13
58.780         0
58.790         7
58.800         7
58.810        13
58.820         0
58.830         7
58.840        13
58.850        20
58.860        20
58.870        20
58.880         0
58.890         7
58.900         7
58.910        33
58.920        20
58.930         0
58.940         7
58.950        13
58.960        13
58.970        33
58.980         7
58.990        13
59.000         7
59.010        20
59.020        27
59.030         0
59.040        33
59.050        20
59.060        13
59.070        20
59.080         7
59.090        13
59.100        27
59.110        20
59.120         7
59.130        27
59.140        27
59.150         7
59.160         7
59.170        13
59.180         0
59.190         7
59.200         7
59.210        20
59.220        20
59.230         7
59.240        13
59.250        20
59.260        20
59.270        33
59.280        13
59.290        20
59.300        27
59.310         7
59.320         0
59.330        13
59.340        13
59.350        20
59.360        20
59.370         7
59.380        20
59.390         7
59.400        20
59.410         0
59.420        20
59.430         7
59.440        13
59.450        13
59.460        13
59.470         7
59.480         0
59.490        20
59.500         7
59.510         7
59.520         7
59.530        20
59.540        13
59.550        27
59.560        13
59.570         7
59.580         0
59.590        13
59.600        20
59.610        20
59.620        13
59.630         0
59.640        13
59.650        13
59.660         7
59.670        27
59.680        33
59.690        40
59.700        13
59.710         7
59.720        27
59.730        33
59.740        47
59.750        20
59.760         7
59.770        27
59.780         7
59.790        47
59.800        67
59.810        20
59.820        33
59.830        33
59.840        13
59.850        27
59.860        13
59.870        27
59.880        20
59.890         7
59.900         7
59.910        27
59.920        33
59.930         7
59.940        27
59.950        27
59.960         7
59.970        20
59.980        27
59.990         7
60.000         7
