20.000        40
20.010        40
20.020        47
20.030        33
20.040        53
20.050        53
20.060        73
20.070        20
20.080        60
20.090        67
20.100        40
20.110        67
20.120        33
20.130        60
20.140        67
20.150        33
20.160        47
20.170        20
20.180        53
20.190        40
20.200        33
20.210        53
20.220        40
20.230        20
20.240        80
20.250        53
20.260        60
20.270        27
20.280        33
20.290        67
20.300        53
20.310         7
20.320        93
20.330        20
20.340        67
20.350        53
20.360        27
20.370        40
20.380        47
20.390        47
20.400        33
20.410        67
20.420        13
20.430        47
20.440        40
20.450        20
20.460        60
20.470        33
20.480        27
20.490        67
20.500        53
20.510         7
20.520        60
20.530        60
20.540        60
20.550        40
20.560         7
20.570        80
20.580        20
20.590        40
20.600        33
20.610        33
20.620        27
20.630        80
20.640        47
20.650        20
20.660        40
20.670        73
20.680        33
20.690        60
20.700        20
20.710        47
20.720        33
20.730        73
20.740        47
20.750        60
20.760        47
20.770        47
20.780        27
20.790        40
20.800        47
20.810        20
20.820        40
20.830        67
20.840        60
20.850        53
20.860        40
20.870        60
20.880        47
20.890       100
20.900        53
20.910        40
20.920        47
20.930        33
20.940        27
20.950        33
20.960        47
20.970        20
20.980        47
20.990        40
21.000        27
21.010        27
21.020        60
21.030        40
21.040        60
21.050        60
21.060        33
21.070        33
21.080        53
21.090        40
21.100        40
21.110        60
21.120        13
21.130        27
21.140        40
21.150        40
21.160        33
21.170        47
21.180        60
21.190        53
21.200        40
21.210        53
21.220        53
21.230        33
21.240        40
21.250        60
21.260        33
21.270        20
21.280        80
21.290        47
21.300        33
21.310        40
21.320        47
21.330        60
21.340        53
21.350        60
21.360        53
21.370        27
21.380        67
21.390        47
21.400        73
21.410        67
21.420        87
21.430        80
21.440        60
21.450        67
21.460        27
21.470        67
21.480       107
21.490       120
21.500       120
21.510        80
21.520        93
21.530       120
21.540       107
21.550        67
21.560       200
21.570        87
21.580       133
21.590       127
21.600       167
21.610       213
21.620       160
21.630       300
21.640       207
21.650       173
21.660       240
21.670       273
21.680       280
21.690       200
21.700       227
21.710       253
21.720       313
21.730       307
21.740       240
21.750       287
21.760       213
21.770       220
21.780       187
21.790       173
21.800       153
21.810       147
21.820        93
21.830       113
21.840       107
21.850        60
21.860       100
21.870        60
21.880        93
21.890        60
21.900        93
21.910        47
21.920        33
21.930        60
21.940        53
21.950        73
21.960        40
21.970        40
21.980        60
21.990        67
22.000        33
22.010        27
22.020        53
22.030        40
22.040        53
22.050        87
22.060        47
22.070        33
22.080        33
22.090        13
22.100        53
22.110        13
22.120        33
22.130        53
22.140        53
22.150        20
22.160        40
22.170        67
22.180        13
22.190        20
22.200        27
22.210        40
22.220        40
22.230        13
22.240        40
22.250        53
22.260        20
22.270        40
22.280        53
22.290        33
22.300        67
22.310        47
22.320        47
22.330        27
22.340        33
22.350         7
22.360        73
22.370        53
22.380        27
22.390        20
22.400        27
22.410        80
22.420        20
22.430        40
22.440        47
22.450        13
22.460        33
22.470        13
22.480        27
22.490        47
22.500         7
22.510        40
22.520        67
22.530        47
22.540        53
22.550        73
22.560        27
22.570        13
22.580        47
22.590        60
22.600        33
22.610        13
22.620        27
22.630        40
22.640        33
22.650        80
22.660        27
22.670         7
22.680        27
22.690        93
22.700        53
22.710        27
22.720        27
22.730        60
22.740        33
22.750        13
22.760        47
22.770        27
22.780        53
22.790        40
22.800        27
22.810        33
22.820        33
22.830        47
22.840        33
22.850        20
22.860        27
22.870        47
22.880        40
22.890        47
22.900        13
22.910        27
22.920        40
22.930        20
22.940        33
22.950        33
22.960        60
22.970        47
22.980        27
22.990        20
23.000        27
23.010        53
23.020        47
23.030        27
23.040        20
23.050         7
23.060        40
23.070        20
23.080        47
23.090        40
23.100        40
23.110        20
23.120        47
23.130        27
23.140        40
23.150        47
23.160        27
23.170        27
23.180        27
23.190        13
23.200        60
23.210        27
23.220        60
23.230        13
23.240        33
23.250        13
23.260        20
23.270        20
23.280        47
23.290        33
23.300        13
23.310        27
23.320        53
23.330        67
23.340        33
23.350        53
23.360        40
23.370        53
23.380        27
23.390         7
23.400        27
23.410        33
23.420        33
23.430        13
23.440        27
23.450        53
23.460        33
23.470        53
23.480        53
23.490        47
23.500        47
23.510         7
23.520        47
23.530        33
23.540        47
23.550        33
23.560        33
23.570        33
23.580        53
23.590        80
23.600        40
23.610        27
23.620        20
23.630        33
23.640        33
23.650        40
23.660        13
23.670        13
23.680        27
23.690        53
23.700        33
23.710        47
23.720        33
23.730        53
23.740        53
23.750        33
23.760        33
23.770        40
23.780        47
23.790        40
23.800        47
23.810        40
23.820        27
23.830        27
23.840        33
23.850        33
23.860        33
23.870        20
23.880        40
23.890        60
23.900        80
23.910        40
23.920        27
23.930        13
23.940        40
23.950        13
23.960        53
23.970        33
23.980        13
23.990        27
24.000        20
24.010        67
24.020        40
24.030        40
24.040        13
24.050        13
24.060        33
24.070         7
24.080        40
24.090        27
24.100        27
24.110        13
24.120        33
24.130        40
24.140        33
24.150        20
24.160        20
24.170        60
24.180        27
24.190        27
24.200        33
24.210        53
24.220        47
24.230        27
24.240        20
24.250        13
24.260        40
24.270        27
24.280        47
24.290        47
24.300        33
24.310        47
24.320        47
24.330        40
24.340        27
24.350        53
24.360        27
24.370        47
24.380        27
24.390        60
24.400        40
24.410        20
24.420        47
24.430        53
24.440        33
24.450        67
24.460        20
24.470        27
24.480        53
24.490        27
24.500         7
24.510        33
24.520        53
24.530        20
24.540        40
24.550        40
24.560        20
24.570        33
24.580        33
24.590        27
24.600        20
24.610        53
24.620        47
24.630        60
24.640        40
24.650        27
24.660        27
24.670        33
24.680        20
24.690        67
24.700        33
24.710        13
24.720        13
24.730        33
24.740        33
24.750        27
24.760        33
24.770        27
24.780        13
24.790        27
24.800        47
24.810        40
24.820        60
24.830        20
24.840        27
24.850        27
24.860         0
24.870        40
24.880        27
24.890        20
24.900        13
24.910        53
24.920        33
24.930        27
24.940        33
24.950        20
24.960        40
24.970        33
24.980        27
24.990        20
25.000        40
25.010        13
25.020        20
25.030        27
25.040        27
25.050        47
25.060        13
25.070        40
25.080        47
25.090        20
25.100        27
25.110        47
25.120        13
25.130        33
25.140        27
25.150        27
25.160        13
25.170        33
25.180        33
25.190        60
25.200        47
25.210        27
25.220        33
25.230        20
25.240        40
25.250        13
25.260        27
25.270        60
25.280        40
25.290        47
25.300        20
25.310        33
25.320        13
25.330        27
25.340        33
25.350        33
25.360        27
25.370        27
25.380        33
25.390        13
25.400        20
25.410        27
25.420        27
25.430        27
25.440        13
25.450        40
25.460        20
25.470        13
25.480        13
25.490        40
25.500        40
25.510        53
25.520        60
25.530        47
25.540        13
25.550        40
25.560        27
25.570        40
25.580        80
25.590        33
25.600        33
25.610        40
25.620        33
25.630        53
25.640        40
25.650        33
25.660        80
25.670         7
25.680        47
25.690        40
25.700        40
25.710        20
25.720        40
25.730        53
25.740        40
25.750        47
25.760        33
25.770        13
25.780        67
25.790        13
25.800        20
25.810        47
25.820        27
25.830        40
25.840        27
25.850        53
25.860        27
25.870        33
25.880        13
25.890        40
25.900        40
25.910         7
25.920        20
25.930        27
25.940        53
25.950        13
25.960        13
25.970        13
25.980        20
25.990        13
26.000        27
26.010        40
26.020        73
26.030        27
26.040        53
26.050        47
26.060        13
26.070        33
26.080        33
26.090        47
26.100        60
26.110        20
26.120        33
26.130        73
26.140        47
26.150        40
26.160        13
26.170        40
26.180        27
26.190        47
26.200        47
26.210        40
26.220        27
26.230        27
26.240        33
26.250        33
26.260        13
26.270        47
26.280        27
26.290        27
26.300        13
26.310        33
26.320        27
26.330        20
26.340         0
26.350        73
26.360        13
26.370        53
26.380        33
26.390        13
26.400        13
26.410        40
26.420        20
26.430        47
26.440        27
26.450         0
26.460        33
26.470        20
26.480        40
26.490        20
26.500        20
26.510        27
26.520         7
26.530         7
26.540        47
26.550        53
26.560        47
26.570        47
26.580        20
26.590        47
26.600        20
26.610        33
26.620        33
26.630        27
26.640        33
26.650        27
26.660        27
26.670        40
26.680        40
26.690        40
26.700        20
26.710        20
26.720        33
26.730        27
26.740        27
26.750        33
26.760        33
26.770        40
26.780        20
26.790        13
26.800        47
26.810         7
26.820        40
26.830        40
26.840        13
26.850        27
26.860        33
26.870         7
26.880        40
26.890        47
26.900        27
26.910        20
26.920         7
26.930        40
26.940        20
26.950        40
26.960        27
26.970        13
26.980        20
26.990        53
27.000        33
27.010        53
27.020        13
27.030        20
27.040        20
27.050        47
27.060        27
27.070        27
27.080        13
27.090        27
27.100        20
27.110        27
27.120        27
27.130        80
27.140        47
27.150        20
27.160        60
27.170        20
27.180        47
27.190        20
27.200        40
27.210        27
27.220        87
27.230        53
27.240        33
27.250        27
27.260        13
27.270        27
27.280        60
27.290        47
27.300        40
27.310        20
27.320        27
27.330        47
27.340        40
27.350        27
27.360        20
27.370        33
27.380        33
27.390        47
27.400        33
27.410        20
27.420        33
27.430        40
27.440        27
27.450        40
27.460        40
27.470        33
27.480         7
27.490        13
27.500        47
27.510        47
27.520        27
27.530        27
27.540        47
27.550        27
27.560        27
27.570        13
27.580        60
27.590        40
27.600        27
27.610        13
27.620        27
27.630        20
27.640        33
27.650        20
27.660        20
27.670        27
27.680        13
27.690        40
27.700        40
27.710        20
27.720        27
27.730        33
27.740        27
27.750        40
27.760        13
27.770        40
27.780        33
27.790         0
27.800        27
27.810        40
27.820        60
27.830        67
27.840        20
27.850        27
27.860        33
27.870        33
27.880        13
27.890        33
27.900        47
27.910        33
27.920        13
27.930        20
27.940        20
27.950         7
27.960        33
27.970        33
27.980        40
27.990        27
28.000        47
28.010        53
28.020        13
28.030        20
28.040        33
28.050         7
28.060         7
28.070        27
28.080        27
28.090        20
28.100        47
28.110        40
28.120        13
28.130        27
28.140        13
28.150        67
28.160        53
28.170        40
28.180        60
28.190        27
28.200        73
28.210        20
28.220        47
28.230        33
28.240        27
28.250        13
28.260         7
28.270        47
28.280        33
28.290         0
28.300        27
28.310        20
28.320        13
28.330        67
28.340        20
28.350        33
28.360        40
28.370        27
28.380        47
28.390        47
28.400        27
28.410        40
28.420        20
28.430        33
28.440        33
28.450        27
28.460        20
28.470        20
28.480        27
28.490        27
28.500        20
28.510        47
28.520        20
28.530        40
28.540        47
28.550        13
28.560         7
28.570        27
28.580        27
28.590        20
28.600        47
28.610        40
28.620        13
28.630        47
28.640        13
28.650        53
28.660        73
28.670        40
28.680        60
28.690        27
28.700        47
28.710        33
28.720        20
28.730        27
28.740        53
28.750        33
28.760        40
28.770        27
28.780        60
28.790        27
28.800        20
28.810        60
28.820        20
28.830        27
28.840        27
28.850        33
28.860        47
28.870        33
28.880        40
28.890        40
28.900        47
28.910        40
28.920        40
28.930        33
28.940        13
28.950        47
28.960        33
28.970        13
28.980        27
28.990        20
29.000         7
29.010        40
29.020        33
29.030         7
29.040        33
29.050        20
29.060        27
29.070        33
29.080        47
29.090        40
29.100        13
29.110        13
29.120        47
29.130        13
29.140        13
29.150        40
29.160        20
29.170        27
29.180        13
29.190        33
29.200        20
29.210        20
29.220        27
29.230         0
29.240        40
29.250        27
29.260        27
29.270        13
29.280        27
29.290        27
29.300        13
29.310        33
29.320        27
29.330        20
29.340        20
29.350        33
29.360        40
29.370        40
29.380        33
29.390        13
29.400        33
29.410        27
29.420        40
29.430        13
29.440        20
29.450        27
29.460        27
29.470        40
29.480        47
29.490        33
29.500        13
29.510        40
29.520        13
29.530        67
29.540        47
29.550        33
29.560        27
29.570        33
29.580        60
29.590        27
29.600        13
29.610        27
29.620        40
29.630        13
29.640        33
29.650        33
29.660        13
29.670        20
29.680        13
29.690        20
29.700        40
29.710        27
29.720        33
29.730        33
29.740        33
29.750        40
29.760        33
29.770        33
29.780        60
29.790        33
29.800        73
29.810        33
29.820        53
29.830        13
29.840        13
29.850        40
29.860        60
29.870        33
29.880        40
29.890        40
29.900        60
29.910        47
29.920        20
29.930        33
29.940        33
29.950        60
29.960        20
29.970        33
29.980        20
29.990        47
30.000        27
30.010        33
30.020        47
30.030        27
30.040        47
30.050        13
30.060        27
30.070        33
30.080        27
30.090        27
30.100        47
30.110        20
30.120        27
30.130        40
30.140        53
30.150         7
30.160        60
30.170        20
30.180        33
30.190        53
30.200        80
30.210        40
30.220        47
30.230        47
30.240        60
30.250        40
30.260        53
30.270        67
30.280        67
30.290        33
30.300        73
30.310        73
30.320        53
30.330        47
30.340        53
30.350        27
30.360        33
30.370        53
30.380        40
30.390        27
30.400        73
30.410        73
30.420        67
30.430        80
30.440        40
30.450       100
30.460        67
30.470        87
30.480       100
30.490       100
30.500        40
30.510       140
30.520       140
30.530       100
30.540       107
30.550        73
30.560       133
30.570       140
30.580       173
30.590       240
30.600       140
30.610       247
30.620       207
30.630       267
30.640       367
30.650       387
30.660       380
30.670       453
30.680       480
30.690       500
30.700       393
30.710       620
30.720       593
30.730       666
30.740       673
30.750       726
30.760       840
30.770       900
30.780      1086
30.790      1033
30.800      1073
30.810      1206
30.820      1266
30.830      1266
30.840      1293
30.850      1433
30.860      1499
30.870      1333
30.880      1393
30.890      1313
30.900      1633
30.910      1253
30.920      1180
30.930      1120
30.940       986
30.950       866
30.960       760
30.970       766
30.980       673
30.990       626
31.000       500
31.010       493
31.020       373
31.030       307
31.040       207
31.050       180
31.060       147
31.070       200
31.080       140
31.090       120
31.100       113
31.110       107
31.120       107
31.130        60
31.140        60
31.150        73
31.160       107
31.170        80
31.180        40
31.190        53
31.200        73
31.210        53
31.220        33
31.230        33
31.240        53
31.250        60
31.260        27
31.270        40
31.280        67
31.290        33
31.300        47
31.310        53
31.320        40
31.330        47
31.340        60
31.350        47
31.360        53
31.370        53
31.380        40
31.390        27
31.400        47
31.410        47
31.420        67
31.430        27
31.440        60
31.450        27
31.460        47
31.470        67
31.480        40
31.490        80
31.500        60
31.510        40
31.520        67
31.530        40
31.540        47
31.550        67
31.560        27
31.570        47
31.580        53
31.590        33
31.600        47
31.610        13
31.620        33
31.630        33
31.640        53
31.650        33
31.660        40
31.670        27
31.680        53
31.690        80
31.700        13
31.710        27
31.720        47
31.730        27
31.740        20
31.750        40
31.760        33
31.770        53
31.780        13
31.790        47
31.800        33
31.810        33
31.820        33
31.830        40
31.840        40
31.850        40
31.860        33
31.870        27
31.880        27
31.890        47
31.900        27
31.910        33
31.920        13
31.930        67
31.940        60
31.950        60
31.960        53
31.970        40
31.980        40
31.990        33
32.000        33
32.010        27
32.020        27
32.030        40
32.040        27
32.050        33
32.060        27
32.070        47
32.080        27
32.090         7
32.100        27
32.110         7
32.120        33
32.130        27
32.140        27
32.150        27
32.160        47
32.170        20
32.180        40
32.190        27
32.200        27
32.210        33
32.220        40
32.230        13
32.240        27
32.250        47
32.260        27
32.270        13
32.280        20
32.290        33
32.300        47
32.310        20
32.320        13
32.330        40
32.340        53
32.350        13
32.360         7
32.370        27
32.380        40
32.390        33
32.400        20
32.410        60
32.420        33
32.430         7
32.440        13
32.450        33
32.460        27
32.470        13
32.480        13
32.490        27
32.500        27
32.510        20
32.520        53
32.530        73
32.540        40
32.550        33
32.560        40
32.570        20
32.580        13
32.590        27
32.600        80
32.610         7
32.620        33
32.630        33
32.640        40
32.650        67
32.660        33
32.670        33
32.680        47
32.690        40
32.700        40
32.710        13
32.720        60
32.730        13
32.740        27
32.750        53
32.760        33
32.770        20
32.780        40
32.790        20
32.800        27
32.810        27
32.820         7
32.830        20
32.840        13
32.850        53
32.860        20
32.870        47
32.880        20
32.890        47
32.900        47
32.910        67
32.920        20
32.930        40
32.940        13
32.950        33
32.960        67
32.970        27
32.980        27
32.990        47
33.000        13
33.010        27
33.020        20
33.030        27
33.040        33
33.050        33
33.060        47
33.070        33
33.080        60
33.090        20
33.100        33
33.110        13
33.120        13
33.130        27
33.140        20
33.150        27
33.160        13
33.170        27
33.180        27
33.190        13
33.200        20
33.210        40
33.220        20
33.230         7
33.240        67
33.250        27
33.260        40
33.270        13
33.280        13
33.290        27
33.300        20
33.310        20
33.320        20
33.330        20
33.340        40
33.350         7
33.360        27
33.370        33
33.380        13
33.390        27
33.400        53
33.410        33
33.420        20
33.430        27
33.440         0
33.450        20
33.460        20
33.470        27
33.480        27
33.490        33
33.500         7
33.510        13
33.520        47
33.530         0
33.540         7
33.550        20
33.560        20
33.570        20
33.580        53
33.590        20
33.600        40
33.610        20
33.620        20
33.630        27
33.640        13
33.650        33
33.660        13
33.670        27
33.680        67
33.690        33
33.700        33
33.710        13
33.720        27
33.730        13
33.740        33
33.750        27
33.760        33
33.770        27
33.780        53
33.790        33
33.800        13
33.810        20
33.820        13
33.830        40
33.840        13
33.850        27
33.860        13
33.870        27
33.880        27
33.890        40
33.900         7
33.910        27
33.920        33
33.930        33
33.940        13
33.950        20
33.960        40
33.970        33
33.980        47
33.990        33
34.000        27
34.010        33
34.020        40
34.030         7
34.040        33
34.050        40
34.060        13
34.070        27
34.080        13
34.090        27
34.100        40
34.110        40
34.120        20
34.130        13
34.140        20
34.150        20
34.160        27
34.170        20
34.180        40
34.190        47
34.200        20
34.210        40
34.220        13
34.230        33
34.240        33
34.250        27
34.260        13
34.270         0
34.280        40
34.290        27
34.300        13
34.310        53
34.320        13
34.330        13
34.340        13
34.350        53
34.360        27
34.370        47
34.380        27
34.390        33
34.400        33
34.410        20
34.420        13
34.430        33
34.440        13
34.450        13
34.460        13
34.470        40
34.480        13
34.490        47
34.500        40
34.510        33
34.520        27
34.530        40
34.540        33
34.550        27
34.560        13
34.570        20
34.580         7
34.590        20
34.600        27
34.610        13
34.620        53
34.630        33
34.640        27
34.650        40
34.660        33
34.670        13
34.680        40
34.690        13
34.700        20
34.710        40
34.720        33
34.730        27
34.740        33
34.750        47
34.760        33
34.770         7
34.780        13
34.790        27
34.800        33
34.810        20
34.820        13
34.830        27
34.840        27
34.850         0
34.860         7
34.870        27
34.880        33
34.890        13
34.900        27
34.910        20
34.920        33
34.930        40
34.940        47
34.950        20
34.960        40
34.970        33
34.980        33
34.990        33
35.000        67
35.010        53
35.020        47
35.030        67
35.040        53
35.050        33
35.060        27
35.070        80
35.080        53
35.090        80
35.100       100
35.110       107
35.120       160
35.130       180
35.140       113
35.150       100
35.160       153
35.170       167
35.180       133
35.190        80
35.200        87
35.210       167
35.220       187
35.230        80
35.240        93
35.250        20
35.260        93
35.270       107
35.280        40
35.290        73
35.300        53
35.310        60
35.320        47
35.330        27
35.340        47
35.350        47
35.360        33
35.370         7
35.380        53
35.390        20
35.400         7
35.410        13
35.420        27
35.430        20
35.440        40
35.450        13
35.460        33
35.470        33
35.480        27
35.490        13
35.500        13
35.510        20
35.520         7
35.530        20
35.540         7
35.550        20
35.560        20
35.570        53
35.580        40
35.590        13
35.600        13
35.610        20
35.620        13
35.630        27
35.640         7
35.650        20
35.660        20
35.670         7
35.680        27
35.690        60
35.700         7
35.710        20
35.720        13
35.730        33
35.740         7
35.750        20
35.760        27
35.770         7
35.780         7
35.790        13
35.800        20
35.810        20
35.820        73
35.830        33
35.840         0
35.850        40
35.860        27
35.870        27
35.880         7
35.890        33
35.900        27
35.910        33
35.920        33
35.930        20
35.940        20
35.950        47
35.960        13
35.970        27
35.980         7
35.990         7
36.000        20
36.010        27
36.020        33
36.030        20
36.040         7
36.050        27
36.060        13
36.070        40
36.080        40
36.090        13
36.100        20
36.110        13
36.120        53
36.130        27
36.140         7
36.150         7
36.160        13
36.170        20
36.180        20
36.190         7
36.200        27
36.210         7
36.220        20
36.230        13
36.240        13
36.250        33
36.260        27
36.270        27
36.280        27
36.290        33
36.300        13
36.310        13
36.320         0
36.330        27
36.340        20
36.350         7
36.360        33
36.370        27
36.380        13
36.390         7
36.400        27
36.410        20
36.420        53
36.430        27
36.440        13
36.450        20
36.460        13
36.470        20
36.480        27
36.490        13
36.500         7
36.510         7
36.520        20
36.530        40
36.540        33
36.550        27
36.560        47
36.570        60
36.580        40
36.590        13
36.600         7
36.610        40
36.620        33
36.630         7
36.640        20
36.650         7
36.660        13
36.670        20
36.680         7
36.690        27
36.700        40
36.710        20
36.720        47
36.730        27
36.740        27
36.750        13
36.760        27
36.770        20
36.780        20
36.790         7
36.800        20
36.810        33
36.820        27
36.830        33
36.840        13
36.850        40
36.860        13
36.870        13
36.880        40
36.890         7
36.900        27
36.910        33
36.920        33
36.930        27
36.940        13
36.950        53
36.960         7
36.970        27
36.980        40
36.990        13
37.000        33
37.010        13
37.020        33
37.030        20
37.040        13
37.050        20
37.060        40
37.070        20
37.080        40
37.090        33
37.100        33
37.110        47
37.120        20
37.130        13
37.140        40
37.150        13
37.160        20
37.170        47
37.180        20
37.190        27
37.200        27
37.210         0
37.220        27
37.230        33
37.240        13
37.250         7
37.260        33
37.270        20
37.280        40
37.290        20
37.300        20
37.310        33
37.320        40
37.330        27
37.340         7
37.350        33
37.360        27
37.370        13
37.380        47
37.390         7
37.400         7
37.410        27
37.420        27
37.430        20
37.440        33
37.450        13
37.460         0
37.470        13
37.480         7
37.490        20
37.500        13
37.510        20
37.520        60
37.530        33
37.540        33
37.550         7
37.560        20
37.570        33
37.580        40
37.590        20
37.600        27
37.610        33
37.620        33
37.630        33
37.640        47
37.650        27
37.660        27
37.670        40
37.680        67
37.690        60
37.700       113
37.710       100
37.720       113
37.730        67
37.740        93
37.750        53
37.760        40
37.770        73
37.780        73
37.790        73
37.800        93
37.810        73
37.820        73
37.830        87
37.840        40
37.850        47
37.860        80
37.870        47
37.880        40
37.890        40
37.900        33
37.910        47
37.920        33
37.930        60
37.940         7
37.950        33
37.960        40
37.970        40
37.980        80
37.990        40
38.000        53
38.010       107
38.020       107
38.030       113
38.040        87
38.050        93
38.060       153
38.070       100
38.080       107
38.090       173
38.100       160
38.110       180
38.120       173
38.130       167
38.140       187
38.150       113
38.160       107
38.170       133
38.180       147
38.190        93
38.200       187
38.210       127
38.220       140
38.230        93
38.240       100
38.250        60
38.260        73
38.270        80
38.280        93
38.290        93
38.300        67
38.310        53
38.320        47
38.330        20
38.340        53
38.350        87
38.360        73
38.370        33
38.380        33
38.390        27
38.400        33
38.410        27
38.420        27
38.430        33
38.440        13
38.450        47
38.460        40
38.470        20
38.480         0
38.490        20
38.500        27
38.510         7
38.520         7
38.530        13
38.540         7
38.550         7
38.560        33
38.570        33
38.580        13
38.590         7
38.600        33
38.610        27
38.620        13
38.630        33
38.640        20
38.650        33
38.660        20
38.670        33
38.680        13
38.690        33
38.700        47
38.710        20
38.720        33
38.730        13
38.740        20
38.750        13
38.760        20
38.770        47
38.780        20
38.790        13
38.800        20
38.810        27
38.820        27
38.830        13
38.840         0
38.850         7
38.860        53
38.870        33
38.880        13
38.890        13
38.900        20
38.910        13
38.920        20
38.930        13
38.940        47
38.950        27
38.960        20
38.970        13
38.980        13
38.990        33
39.000         7
39.010        20
39.020        27
39.030        13
39.040        27
39.050        33
39.060        33
39.070        33
39.080        20
39.090        20
39.100        13
39.110        13
39.120        20
39.130         7
39.140        40
39.150         7
39.160        27
39.170        33
39.180        20
39.190        20
39.200         7
39.210        13
39.220        13
39.230        20
39.240         0
39.250        20
39.260        33
39.270        20
39.280        20
39.290        13
39.300        20
39.310        13
39.320        20
39.330        13
39.340        20
39.350        20
39.360        33
39.370        20
39.380        13
39.390        20
39.400        27
39.410        13
39.420        33
39.430        33
39.440        20
39.450        20
39.460         0
39.470        20
39.480        33
39.490        13
39.500        20
39.510        13
39.520        40
39.530        27
39.540         7
39.550        40
39.560        27
39.570        20
39.580         7
39.590        27
39.600        20
39.610        60
39.620        27
39.630        27
39.640        27
39.650        13
39.660        33
39.670        27
39.680        27
39.690        33
39.700        27
39.710        13
39.720         7
39.730        40
39.740        13
39.750        33
39.760        47
39.770        27
39.780        27
39.790         7
39.800        47
39.810        27
39.820        47
39.830        27
39.840        47
39.850        40
39.860        13
39.870        13
39.880        20
39.890        47
39.900        20
39.910        20
39.920        20
39.930        27
39.940        47
39.950        20
39.960        20
39.970        13
39.980         0
39.990        20
40.000        20
40.010        20
40.020        20
40.030        13
40.040         7
40.050         0
40.060         7
40.070        33
40.080        27
40.090        13
40.100        47
40.110         7
40.120        13
40.130        33
40.140        27
40.150        13
40.160         0
40.170        27
40.180        20
40.190        20
40.200        27
40.210         7
40.220        27
40.230        13
40.240        13
40.250        20
40.260        20
40.270        13
40.280        20
40.290        27
40.300        20
40.310        20
40.320        20
40.330        33
40.340        13
40.350         7
40.360        27
40.370        33
40.380        13
40.390         0
40.400        13
40.410        13
40.420        40
40.430         7
40.440        13
40.450        20
40.460         7
40.470        20
40.480        13
40.490        47
40.500        20
40.510        33
40.520        33
40.530         0
40.540         7
40.550        20
40.560        27
40.570        53
40.580        20
40.590        33
40.600        27
40.610        13
40.620        20
40.630        47
40.640        20
40.650         7
40.660        47
40.670        47
40.680        33
40.690        13
40.700        20
40.710        13
40.720        20
40.730        27
40.740        27
40.750        20
40.760        20
40.770        20
40.780        20
40.790         7
40.800        13
40.810        13
40.820        40
40.830        27
40.840        13
40.850        27
40.860        20
40.870        40
40.880        13
40.890         0
40.900         7
40.910         7
40.920        20
40.930        27
40.940        27
40.950        20
40.960        20
40.970        27
40.980        33
40.990         7
41.000        13
41.010        13
41.020        53
41.030         7
41.040        13
41.050         7
41.060        20
41.070        27
41.080         7
41.090        27
41.100        33
41.110        53
41.120        27
41.130        13
41.140         7
41.150        47
41.160        13
41.170        40
41.180         7
41.190        13
41.200        20
41.210        13
41.220        20
41.230        40
41.240        27
41.250        20
41.260         7
41.270         7
41.280        13
41.290        33
41.300        13
41.310        20
41.320        13
41.330        20
41.340        27
41.350        40
41.360        13
41.370        33
41.380        33
41.390        20
41.400        20
41.410        33
41.420        13
41.430        27
41.440        20
41.450        27
41.460        27
41.470        20
41.480        20
41.490        20
41.500        20
41.510        33
41.520        20
41.530        33
41.540        27
41.550        27
41.560        20
41.570        20
41.580        40
41.590        33
41.600        40
41.610        27
41.620        47
41.630        33
41.640        27
41.650        33
41.660        60
41.670        73
41.680        40
41.690        80
41.700        53
41.710        40
41.720        47
41.730        33
41.740        53
41.750        53
41.760        47
41.770        73
41.780        67
41.790        33
41.800        60
41.810        73
41.820        53
41.830        60
41.840        40
41.850        33
41.860        40
41.870        53
41.880        40
41.890        20
41.900        13
41.910        13
41.920        33
41.930        13
41.940        27
41.950        27
41.960        13
41.970        47
41.980        27
41.990        20
42.000        13
42.010         7
42.020        27
42.030        33
42.040        33
42.050         7
42.060        13
42.070        33
42.080        40
42.090        13
42.100        40
42.110        27
42.120        20
42.130        13
42.140        13
42.150        27
42.160         7
42.170        47
42.180        20
42.190        13
42.200        20
42.210        33
42.220        27
42.230        20
42.240        33
42.250        20
42.260        20
42.270        13
42.280        33
42.290        13
42.300        13
42.310        27
42.320        13
42.330        13
42.340        20
42.350        13
42.360         7
42.370        20
42.380        27
42.390        13
42.400        20
42.410         7
42.420        20
42.430        20
42.440        20
42.450        27
42.460         0
42.470        33
42.480         7
42.490        33
42.500        33
42.510         0
42.520         7
42.530        13
42.540        27
42.550        13
42.560        27
42.570        20
42.580        33
42.590        13
42.600        40
42.610        27
42.620        27
42.630        33
42.640        27
42.650        27
42.660        13
42.670        20
42.680        20
42.690        67
42.700        40
42.710        53
42.720        40
42.730        27
42.740        27
42.750        13
42.760        47
42.770        13
42.780        33
42.790        33
42.800        20
42.810        13
42.820        27
42.830        40
42.840        20
42.850        33
42.860        40
42.870        20
42.880        73
42.890        20
42.900        13
42.910        27
42.920        53
42.930        47
42.940        40
42.950        33
42.960        27
42.970        20
42.980        60
42.990        27
43.000        60
43.010        53
43.020        27
43.030        33
43.040        40
43.050        20
43.060        27
43.070        33
43.080        60
43.090        80
43.100        33
43.110        33
43.120        60
43.130        53
43.140        33
43.150        53
43.160        33
43.170        60
43.180        67
43.190        47
43.200        33
43.210        60
43.220        27
43.230        67
43.240        40
43.250        73
43.260        73
43.270        60
43.280       100
43.290        60
43.300        87
43.310        53
43.320        53
43.330        80
43.340        53
43.350       120
43.360       140
43.370       273
43.380       173
43.390       233
43.400       313
43.410       213
43.420       153
43.430       133
43.440        93
43.450       100
43.460        87
43.470       113
43.480       160
43.490       180
43.500       173
43.510       160
43.520       167
43.530       127
43.540       120
43.550       127
43.560        73
43.570       107
43.580        47
43.590        93
43.600        47
43.610       107
43.620        80
43.630        73
43.640       107
43.650        80
43.660        60
43.670        93
43.680        93
43.690        60
43.700       113
43.710       127
43.720       153
43.730       120
43.740       113
43.750       107
43.760       127
43.770        93
43.780       153
43.790       100
43.800       200
43.810       153
43.820       180
43.830       153
43.840       193
43.850       253
43.860       207
43.870       320
43.880       273
43.890       267
43.900       360
43.910       273
43.920       267
43.930       287
43.940       413
43.950       440
43.960       367
43.970       473
43.980       340
43.990       480
44.000       486
44.010       533
44.020       500
44.030       613
44.040       513
44.050       680
44.060       653
44.070       653
44.080       706
44.090       580
44.100       773
44.110       786
44.120       920
44.130       893
44.140       793
44.150       920
44.160      1046
44.170       953
44.180       966
44.190      1133
44.200      1120
44.210      1113
44.220      1066
44.230      1146
44.240      1073
44.250       973
44.260      1140
44.270      1060
44.280      1126
44.290       953
44.300      1226
44.310      1013
44.320      1060
44.330       906
44.340       946
44.350       946
44.360       706
44.370       833
44.380       713
44.390       553
44.400       546
44.410       620
44.420       546
44.430       500
44.440       453
44.450       333
44.460       380
44.470       360
44.480       247
44.490       280
44.500       240
44.510       167
44.520       193
44.530       173
44.540       133
44.550       160
44.560        80
44.570        80
44.580       100
44.590       147
44.600       133
44.610       180
44.620       113
44.630        73
44.640        60
44.650        40
44.660        60
44.670        73
44.680        47
44.690        40
44.700        73
44.710        53
44.720        93
44.730        80
44.740        67
44.750        73
44.760        13
44.770        47
44.780        40
44.790        60
44.800        60
44.810        87
44.820        47
44.830        40
44.840        60
44.850        53
44.860        60
44.870        40
44.880        47
44.890        13
44.900        73
44.910        40
44.920        20
44.930        13
44.940       100
44.950        40
44.960        53
44.970        53
44.980        33
44.990        20
45.000        33
45.010        13
45.020        27
45.030        33
45.040        40
45.050         7
45.060        40
45.070        40
45.080        20
45.090        33
45.100        33
45.110        33
45.120        47
45.130        20
45.140        47
45.150        47
45.160        47
45.170        13
45.180        27
45.190        67
45.200        33
45.210        47
45.220        33
45.230        27
45.240        53
45.250        33
45.260        47
45.270        47
45.280        40
45.290        27
45.300        20
45.310        40
45.320        60
45.330        20
45.340        27
45.350        27
45.360        40
45.370        33
45.380        20
45.390        47
45.400        40
45.410        27
45.420        33
45.430        13
45.440        33
45.450        27
45.460        27
45.470        47
45.480        27
45.490        47
45.500        60
45.510        13
45.520        40
45.530        13
45.540         7
45.550        40
45.560        33
45.570        20
45.580        27
45.590        20
45.600        40
45.610        20
45.620        33
45.630        53
45.640        33
45.650        40
45.660        33
45.670        20
45.680        40
45.690        33
45.700        33
45.710        13
45.720        60
45.730        13
45.740        33
45.750        20
45.760        27
45.770        33
45.780        13
45.790        40
45.800        27
45.810        13
45.820        33
45.830        40
45.840        13
45.850        27
45.860        20
45.870        13
45.880        20
45.890        20
45.900        33
45.910        27
45.920        27
45.930         7
45.940        27
45.950         7
45.960        20
45.970        47
45.980        53
45.990        20
46.000        13
46.010        27
46.020        33
46.030        33
46.040        47
46.050        33
46.060        13
46.070         7
46.080         7
46.090        20
46.100         7
46.110        20
46.120         7
46.130        33
46.140        13
46.150        27
46.160        27
46.170        20
46.180        27
46.190        20
46.200        13
46.210        20
46.220        27
46.230        20
46.240        33
46.250        40
46.260        13
46.270        40
46.280        27
46.290        27
46.300         0
46.310        20
46.320        33
46.330        40
46.340        20
46.350        27
46.360        20
46.370        40
46.380        27
46.390        27
46.400        47
46.410        20
46.420        27
46.430        13
46.440        20
46.450        40
46.460        40
46.470        13
46.480        13
46.490         7
46.500        20
46.510        33
46.520        27
46.530        20
46.540        27
46.550        27
46.560        33
46.570         7
46.580        20
46.590        13
46.600        20
46.610        13
46.620         7
46.630         0
46.640         7
46.650        20
46.660        13
46.670        33
46.680        27
46.690        13
46.700        47
46.710        40
46.720        33
46.730        33
46.740        13
46.750         7
46.760        33
46.770        27
46.780        27
46.790        13
46.800        20
46.810        40
46.820         7
46.830        33
46.840        13
46.850        13
46.860        13
46.870        33
46.880        40
46.890        27
46.900        13
46.910         7
46.920        40
46.930        27
46.940        27
46.950        20
46.960        20
46.970        27
46.980        27
46.990        13
47.000        33
47.010        20
47.020        13
47.030        20
47.040        27
47.050        47
47.060         0
47.070        27
47.080        13
47.090        20
47.100        20
47.110        20
47.120        33
47.130         7
47.140        13
47.150         7
47.160        13
47.170        40
47.180        20
47.190        13
47.200        33
47.210         7
47.220        20
47.230        33
47.240        13
47.250        27
47.260         7
47.270         7
47.280         7
47.290        33
47.300        40
47.310        13
47.320        27
47.330        20
47.340        20
47.350        27
47.360        13
47.370        27
47.380        20
47.390         7
47.400        20
47.410        33
47.420         0
47.430        20
47.440        40
47.450        60
47.460        33
47.470        40
47.480         7
47.490         7
47.500        27
47.510        47
47.520        33
47.530        20
47.540         7
47.550         7
47.560        53
47.570         0
47.580        53
47.590        27
47.600         7
47.610        13
47.620         7
47.630        13
47.640        13
47.650         7
47.660        27
47.670        33
47.680        40
47.690        33
47.700        20
47.710        13
47.720         7
47.730        40
47.740        13
47.750        13
47.760        20
47.770        27
47.780        33
47.790        20
47.800        13
47.810         7
47.820        13
47.830         0
47.840        33
47.850        13
47.860         7
47.870        20
47.880         7
47.890        13
47.900         7
47.910         0
47.920        20
47.930        13
47.940        20
47.950        27
47.960         7
47.970        13
47.980        13
47.990        13
48.000        27
48.010        20
48.020        20
48.030        13
48.040        27
48.050        13
48.060        20
48.070        13
48.080        33
48.090         7
48.100        13
48.110        20
48.120        27
48.130        27
48.140        27
48.150        13
48.160        20
48.170        13
48.180        40
48.190        20
48.200        13
48.210        27
48.220        20
48.230         7
48.240        20
48.250        20
48.260         7
48.270        20
48.280        53
48.290        27
48.300        20
48.310        13
48.320        13
48.330        13
48.340         7
48.350        27
48.360        20
48.370         7
48.380        13
48.390        20
48.400         7
48.410        27
48.420        13
48.430        27
48.440        27
48.450        27
48.460        20
48.470        20
48.480        20
48.490        27
48.500         7
48.510         0
48.520        33
48.530        13
48.540        20
48.550        20
48.560         0
48.570        40
48.580         7
48.590         7
48.600        13
48.610        13
48.620        20
48.630        20
48.640        27
48.650         7
48.660         7
48.670        13
48.680        20
48.690         7
48.700        27
48.710         7
48.720        13
48.730        20
48.740        33
48.750        13
48.760        13
48.770        33
48.780         7
48.790         7
48.800        13
48.810        27
48.820        13
48.830        27
48.840        20
48.850        13
48.860        33
48.870        27
48.880         0
48.890        40
48.900        13
48.910        33
48.920        27
48.930        13
48.940        13
48.950        33
48.960        20
48.970        13
48.980        27
48.990        20
49.000        20
49.010        13
49.020        13
49.030         7
49.040        33
49.050        33
49.060        20
49.070        13
49.080         7
49.090        20
49.100        27
49.110        13
49.120        20
49.130        20
49.140         7
49.150         7
49.160        33
49.170        13
49.180         7
49.190        20
49.200        33
49.210         7
49.220        13
49.230        20
49.240        13
49.250        20
49.260        40
49.270         7
49.280        13
49.290        27
49.300        13
49.310        13
49.320         7
49.330         7
49.340        27
49.350        40
49.360        33
49.370        27
49.380        33
49.390        20
49.400         0
49.410        40
49.420         7
49.430        20
49.440        13
49.450        13
49.460        13
49.470        27
49.480         7
49.490        40
49.500        13
49.510         0
49.520        20
49.530        33
49.540        27
49.550        13
49.560        33
49.570        27
49.580        20
49.590        20
49.600        13
49.610        20
49.620         7
49.630         7
49.640         0
49.650         0
49.660        20
49.670         7
49.680        13
49.690        13
49.700        40
49.710         0
49.720        20
49.730        20
49.740        27
49.750        27
49.760        13
49.770        13
49.780        33
49.790         0
49.800        20
49.810        13
49.820         0
49.830        27
49.840        20
49.850        33
49.860        13
49.870         7
49.880        40
49.890        13
49.900         0
49.910        27
49.920        13
49.930        33
49.940        20
49.950        33
49.960        20
49.970        20
49.980         7
49.990         7
50.000         7
50.010         7
50.020         7
50.030        20
50.040        20
50.050        13
50.060        20
50.070         0
50.080         7
50.090         7
50.100         0
50.110        13
50.120        20
50.130        13
50.140        27
50.150        27
50.160         0
50.170        13
50.180        13
50.190        13
50.200        53
50.210        40
50.220        33
50.230        13
50.240        13
50.250        13
50.260         7
50.270        27
50.280         7
50.290        20
50.300        13
50.310        40
50.320        20
50.330        33
50.340        20
50.350         7
50.360        20
50.370        13
50.380        20
50.390         7
50.400         7
50.410        20
50.420        20
50.430        20
50.440        33
50.450        27
50.460        13
50.470        13
50.480        13
50.490        20
50.500        20
50.510         7
50.520        13
50.530        20
50.540        13
50.550        13
50.560        20
50.570        27
50.580         7
50.590        13
50.600        27
50.610         7
50.620        13
50.630         7
50.640        47
50.650        40
50.660        13
50.670         7
50.680        13
50.690         7
50.700         7
50.710        27
50.720        13
50.730         7
50.740         7
50.750         7
50.760        20
50.770        27
50.780        13
50.790        13
50.800        13
50.810         7
50.820        20
50.830         7
50.840        27
50.850        33
50.860        20
50.870        20
50.880        40
50.890        13
50.900        13
50.910        13
50.920        40
50.930        20
50.940        40
50.950        13
50.960        20
50.970        27
50.980        27
50.990        20
51.000         7
51.010        13
51.020         7
51.030        27
51.040        13
51.050        40
51.060         7
51.070        47
51.080        13
51.090         0
51.100        13
51.110        13
51.120        13
51.130        27
51.140        20
51.150        33
51.160        20
51.170        13
51.180        13
51.190        20
51.200        13
51.210        20
51.220        13
51.230         7
51.240         7
51.250        13
51.260         7
51.270        33
51.280        20
51.290         7
51.300        20
51.310        13
51.320        20
51.330        20
51.340        20
51.350        13
51.360        13
51.370        13
51.380        40
51.390        13
51.400        27
51.410        20
51.420        20
51.430        20
51.440        13
51.450        20
51.460        13
51.470         0
51.480         7
51.490         0
51.500        20
51.510        13
51.520        20
51.530        13
51.540         7
51.550        13
51.560        27
51.570        27
51.580        20
51.590        20
51.600         0
51.610        40
51.620         7
51.630        33
51.640        13
51.650        20
51.660        20
51.670         7
51.680        47
51.690        47
51.700        20
51.710         7
51.720        27
51.730        27
51.740         7
51.750        13
51.760        33
51.770        33
51.780        27
51.790        20
51.800        13
51.810        33
51.820        20
51.830         7
51.840        13
51.850        27
51.860         7
51.870        33
51.880        20
51.890        27
51.900         7
51.910        13
51.920        20
51.930        20
51.940         7
51.950         0
51.960        40
51.970        13
51.980        13
51.990        20
52.000        20
52.010        27
52.020        13
52.030         7
52.040        20
52.050         7
52.060        13
52.070        20
52.080        13
52.090        20
52.100        27
52.110         7
52.120        13
52.130         7
52.140        33
52.150        20
52.160        13
52.170        20
52.180        13
52.190        20
52.200        27
52.210        20
52.220         7
52.230        13
52.240        20
52.250        20
52.260        13
52.270        13
52.280         7
52.290        13
52.300        20
52.310         7
52.320         7
52.330        40
52.340        33
52.350        13
52.360        20
52.370        47
52.380        20
52.390         0
52.400        13
52.410        27
52.420        33
52.430        33
52.440        20
52.450         7
52.460        20
52.470        20
52.480        40
52.490        40
52.500        33
52.510        53
52.520        47
52.530       113
52.540        27
52.550        80
52.560        73
52.570        33
52.580        47
52.590        47
52.600        20
52.610        40
52.620        47
52.630        67
52.640        40
52.650        33
52.660        27
52.670        60
52.680        73
52.690        20
52.700        67
52.710        40
52.720        40
52.730        33
52.740        20
52.750        27
52.760        27
52.770         7
52.780         7
52.790        13
52.800        33
52.810        13
52.820        13
52.830        13
52.840         0
52.850         0
52.860        33
52.870         0
52.880        13
52.890        13
52.900        13
52.910        13
52.920        20
52.930        20
52.940         0
52.950         0
52.960        47
52.970        20
52.980        27
52.990         7
53.000        33
53.010         7
53.020        13
53.030        20
53.040         0
53.050        20
53.060        27
53.070        13
53.080        27
53.090        13
53.100         0
53.110         7
53.120        13
53.130        27
53.140        13
53.150        20
53.160        13
53.170        13
53.180        20
53.190         7
53.200        13
53.210         7
53.220        20
53.230        13
53.240         0
53.250        27
53.260         0
53.270        20
53.280        20
53.290        20
53.300         7
53.310        20
53.320        13
53.330        40
53.340        27
53.350        20
53.360         7
53.370        13
53.380        47
53.390        13
53.400        20
53.410         7
53.420         7
53.430        13
53.440        27
53.450        13
53.460        13
53.470         7
53.480        13
53.490         7
53.500        27
53.510        20
53.520         7
53.530        20
53.540         7
53.550        13
53.560        20
53.570        33
53.580        40
53.590         0
53.600         7
53.610         7
53.620         7
53.630         0
53.640         7
53.650        20
53.660        33
53.670        20
53.680        20
53.690         7
53.700        27
53.710         0
53.720        20
53.730        13
53.740        13
53.750        13
53.760        33
53.770        13
53.780        13
53.790        27
53.800         7
53.810        27
53.820         0
53.830         0
53.840         7
53.850        20
53.860         0
53.870         0
53.880         0
53.890         7
53.900        27
53.910        33
53.920        27
53.930        13
53.940         7
53.950         0
53.960        27
53.970        20
53.980        33
53.990        13
54.000        13
54.010        20
54.020        33
54.030         7
54.040         7
54.050        60
54.060        33
54.070         7
54.080        27
54.090        13
54.100        27
54.110        27
54.120        40
54.130         7
54.140        20
54.150        27
54.160        20
54.170        20
54.180        13
54.190        13
54.200         0
54.210        20
54.220        40
54.230        33
54.240        27
54.250         0
54.260        27
54.270        20
54.280        33
54.290        13
54.300         7
54.310        13
54.320        20
54.330        27
54.340        13
54.350         7
54.360         7
54.370        33
54.380        20
54.390        13
54.400         0
54.410        33
54.420        33
54.430         0
54.440        20
54.450        20
54.460        13
54.470        20
54.480        33
54.490        27
54.500        13
54.510        33
54.520        27
54.530        20
54.540        47
54.550        20
54.560        27
54.570        27
54.580        53
54.590        40
54.600        40
54.610        40
54.620        47
54.630        33
54.640        20
54.650        40
54.660        47
54.670        73
54.680        33
54.690        40
54.700        33
54.710        73
54.720        73
54.730        73
54.740        53
54.750        80
54.760        67
54.770        67
54.780        67
54.790        87
54.800       113
54.810        27
54.820        67
54.830       127
54.840       100
54.850       127
54.860        73
54.870       100
54.880       100
54.890       133
54.900       133
54.910       127
54.920       167
54.930       153
54.940        93
54.950       133
54.960       107
54.970       133
54.980        80
54.990       107
55.000       113
55.010       120
55.020       127
55.030       133
55.040        47
55.050       113
55.060       140
55.070        73
55.080       107
55.090        87
55.100        87
55.110        93
55.120        60
55.130       100
55.140        27
55.150        53
55.160        60
55.170        67
55.180        47
55.190        53
55.200        33
55.210        60
55.220        47
55.230        67
55.240        20
55.250        47
55.260        40
55.270        40
55.280        33
55.290        33
55.300        33
55.310        13
55.320        53
55.330        13
55.340        20
55.350        33
55.360        20
55.370        33
55.380        13
55.390        20
55.400        53
55.410        53
55.420        20
55.430         7
55.440        20
55.450        33
55.460         7
55.470        13
55.480        27
55.490        20
55.500        20
55.510        20
55.520        27
55.530        20
55.540        40
55.550        27
55.560        33
55.570        13
55.580        13
55.590         0
55.600         0
55.610         7
55.620        27
55.630        13
55.640        20
55.650        13
55.660        27
55.670        27
55.680        20
55.690         7
55.700        20
55.710        13
55.720        33
55.730        27
55.740        13
55.750         7
55.760        13
55.770        27
55.780         7
55.790        13
55.800        13
55.810        13
55.820        20
55.830        27
55.840        13
55.850        20
55.860        27
55.870        20
55.880        20
55.890         7
55.900         7
55.910         7
55.920        33
55.930        20
55.940        20
55.950         7
55.960        13
55.970         7
55.980        13
55.990         7
56.000        20
56.010        20
56.020        20
56.030         0
56.040         7
56.050        20
56.060         7
56.070        20
56.080        33
56.090        13
56.100         0
56.110        13
56.120        20
56.130        27
56.140        13
56.150         7
56.160        27
56.170        13
56.180        27
56.190        27
56.200         7
56.210         0
56.220         7
56.230         0
56.240        27
56.250        13
56.260        40
56.270        13
56.280        20
56.290        20
56.300         0
56.310         0
56.320        27
56.330        33
56.340         0
56.350         0
56.360         7
56.370        13
56.380        27
56.390        20
56.400         0
56.410        13
56.420        20
56.430        27
56.440         7
56.450        27
56.460         7
56.470        13
56.480         0
56.490         7
56.500        13
56.510         7
56.520         0
56.530         0
56.540        27
56.550        13
56.560         7
56.570         7
56.580        40
56.590        13
56.600        13
56.610         0
56.620         7
56.630        13
56.640         7
56.650         7
56.660        20
56.670        27
56.680        33
56.690        20
56.700        13
56.710         0
56.720         7
56.730        40
56.740         7
56.750         7
56.760        13
56.770         0
56.780        13
56.790        13
56.800        20
56.810        13
56.820        20
56.830         7
56.840         7
56.850        13
56.860         7
56.870         0
56.880        13
56.890         7
56.900        13
56.910         7
56.920        13
56.930         7
56.940        13
56.950         0
56.960         7
56.970        13
56.980        47
56.990        20
57.000        20
57.010        27
57.020         0
57.030        20
57.040         7
57.050        33
57.060         7
57.070         7
57.080        13
57.090        20
57.100        20
57.110        20
57.120        20
57.130        20
57.140        13
57.150        13
57.160        13
57.170        20
57.180        13
57.190         7
57.200         0
57.210         0
57.220        13
57.230        13
57.240         0
57.250        40
57.260        27
57.270        20
57.280         7
57.290        20
57.300        33
57.310        13
57.320        33
57.330        20
57.340        13
57.350        20
57.360        33
57.370        20
57.380        33
57.390        27
57.400        13
57.410        27
57.420         7
57.430        27
57.440        60
57.450        20
57.460        67
57.470       113
57.480        67
57.490        87
57.500       147
57.510       113
57.520        93
57.530       113
57.540       120
57.550       153
57.560       107
57.570       100
57.580        67
57.590        53
57.600        40
57.610        40
57.620        47
57.630        27
57.640        47
57.650        87
57.660        73
57.670        60
57.680        53
57.690        60
57.700        40
57.710        60
57.720        53
57.730        60
57.740        40
57.750        47
57.760        27
57.770        40
57.780        53
57.790        20
57.800        13
57.810         7
57.820        20
57.830        13
57.840         7
57.850        20
57.860        40
57.870        13
57.880         7
57.890        20
57.900        40
57.910        20
57.920        20
57.930        13
57.940        27
57.950         0
57.960        13
57.970        20
57.980        13
57.990         7
58.000         0
58.010        20
58.020         7
58.030        13
58.040         0
58.050        13
58.060        13
58.070         7
58.080        20
58.090         7
58.100        20
58.110        27
58.120         7
58.130        13
58.140         0
58.150        20
58.160         7
58.170         7
58.180        13
58.190        13
58.200        13
58.210        20
58.220        33
58.230         7
58.240        13
58.250         7
58.260        13
58.270         0
58.280         7
58.290        33
58.300        20
58.310         0
58.320        13
58.330         7
58.340        13
58.350         7
58.360        20
58.370        13
58.380        13
58.390         7
58.400        13
58.410        13
58.420        27
58.430        33
58.440        13
58.450        13
58.460         7
58.470        20
58.480         0
58.490        20
58.500        20
58.510        27
58.520        27
58.530         7
58.540        13
58.550         7
58.560         0
58.570        27
58.580        27
58.590        13
58.600        27
58.610         0
58.620        13
58.630        20
58.640        20
58.650         7
58.660        13
58.670         7
58.680        13
58.690         0
58.700        13
58.710         0
58.720        20
58.730        13
58.740         7
58.750        47
58.760        27
58.770        13
58.780         0
58.790        13
58.800        13
58.810        20
58.820         7
58.830        33
58.840        27
58.850         0
58.860        27
58.870        13
58.880         7
58.890        13
58.900         7
58.910        13
58.920        20
58.930         7
58.940        13
58.950        27
58.960        13
58.970         7
58.980        27
58.990         7
59.000         7
59.010         7
59.020         7
59.030        20
59.040        20
59.050        13
59.060        20
59.070        20
59.080         0
59.090         0
59.100        13
59.110        13
59.120        20
59.130        13
59.140        20
59.150         7
59.160        27
59.170         0
59.180        13
59.190         0
59.200         7
59.210        27
59.220        13
59.230        27
59.240        27
59.250        13
59.260        27
59.270        20
59.280        13
59.290        47
59.300         7
59.310        13
59.320        20
59.330         7
59.340        20
59.350        13
59.360        13
59.370        27
59.380         0
59.390        13
59.400         0
59.410        27
59.420         7
59.430        27
59.440         0
59.450        13
59.460        20
59.470        40
59.480        27
59.490         0
59.500         7
59.510        20
59.520         0
59.530         7
59.540         7
59.550        27
59.560        27
59.570         7
59.580         7
59.590        13
59.600        13
59.610         7
59.620        13
59.630        27
59.640        13
59.650        27
59.660        13
59.670         7
59.680        13
59.690         7
59.700         7
59.710         0
59.720        40
59.730        13
59.740         7
59.750        13
59.760        27
59.770        47
59.780        13
59.790         7
59.800        40
59.810        27
59.820         7
59.830         0
59.840        33
59.850        20
59.860        13
59.870        20
59.880        27
59.890         7
59.900         7
59.910        27
59.920        27
59.930        13
59.940        27
59.950        13
59.960        13
59.970        13
59.980        27
59.990         7
60.000        13
