20.000        73
20.010        73
20.020        47
20.030        53
20.040        93
20.050        47
20.060        33
20.070        67
20.080        33
20.090        13
20.100        60
20.110        33
20.120        60
20.130        40
20.140        60
20.150        47
20.160        47
20.170        47
20.180        40
20.190        67
20.200        47
20.210        40
20.220        53
20.230        73
20.240        47
20.250        20
20.260        60
20.270        27
20.280        87
20.290        33
20.300        40
20.310        53
20.320        13
20.330        60
20.340        40
20.350        40
20.360        40
20.370        87
20.380        47
20.390        80
20.400        33
20.410        40
20.420        53
20.430        53
20.440        53
20.450        47
20.460        73
20.470        40
20.480        73
20.490        53
20.500        67
20.510        33
20.520        27
20.530        27
20.540        53
20.550        27
20.560        73
20.570        40
20.580        53
20.590        27
20.600        53
20.610        47
20.620        47
20.630        40
20.640        53
20.650        53
20.660        67
20.670        67
20.680        33
20.690        47
20.700        53
20.710        47
20.720        87
20.730        73
20.740        33
20.750        67
20.760        40
20.770        53
20.780        47
20.790        73
20.800        53
20.810        53
20.820        60
20.830        40
20.840        60
20.850        73
20.860        20
20.870        60
20.880        33
20.890        67
20.900        33
20.910        40
20.920        40
20.930        53
20.940        40
20.950        67
20.960        87
20.970         7
20.980        67
20.990        40
21.000        60
21.010        47
21.020        27
21.030        60
21.040        73
21.050        60
21.060        80
21.070        33
21.080        47
21.090        73
21.100        33
21.110        33
21.120        20
21.130        33
21.140        33
21.150        67
21.160        33
21.170        40
21.180        53
21.190        40
21.200        40
21.210        47
21.220        40
21.230        33
21.240        47
21.250        47
21.260        53
21.270        40
21.280        33
21.290        60
21.300        60
21.310        33
21.320        60
21.330        73
21.340        60
21.350        87
21.360        53
21.370        73
21.380       107
21.390        33
21.400        87
21.410        60
21.420        67
21.430       113
21.440        33
21.450        53
21.460        73
21.470        47
21.480       100
21.490        73
21.500        40
21.510       107
21.520        87
21.530        53
21.540        80
21.550        67
21.560       100
21.570       107
21.580        93
21.590       147
21.600       113
21.610       133
21.620       120
21.630       133
21.640       100
21.650       140
21.660       140
21.670       133
21.680       133
21.690       147
21.700       173
21.710       127
21.720       107
21.730        80
21.740       120
21.750       127
21.760       120
21.770        53
21.780        53
21.790        87
21.800        87
21.810        60
21.820        67
21.830        87
21.840        53
21.850        47
21.860        53
21.870        27
21.880        53
21.890        73
21.900        40
21.910        93
21.920        67
21.930        27
21.940        73
21.950        47
21.960        40
21.970        27
21.980        53
21.990        47
22.000        67
22.010        80
22.020        80
22.030        40
22.040        20
22.050        87
22.060        60
22.070        33
22.080        20
22.090        33
22.100        53
22.110        27
22.120        53
22.130        73
22.140        27
22.150        73
22.160        20
22.170        33
22.180        80
22.190        60
22.200        53
22.210        73
22.220        40
22.230        20
22.240        13
22.250        27
22.260        47
22.270        33
22.280        47
22.290        47
22.300        40
22.310        60
22.320        20
22.330        33
22.340        40
22.350        33
22.360       100
22.370        27
22.380        40
22.390        40
22.400        53
22.410         7
22.420        60
22.430        40
22.440         7
22.450        53
22.460        67
22.470        33
22.480        40
22.490        33
22.500        20
22.510        60
22.520        73
22.530        47
22.540        53
22.550        47
22.560        60
22.570        27
22.580        40
22.590        27
22.600        47
22.610        27
22.620        33
22.630        20
22.640        27
22.650        33
22.660        60
22.670        33
22.680        20
22.690        27
22.700        13
22.710        67
22.720        27
22.730        40
22.740        40
22.750        40
22.760        53
22.770        13
22.780        40
22.790        60
22.800        20
22.810        47
22.820        47
22.830        13
22.840        13
22.850        40
22.860        33
22.870        33
22.880        27
22.890        33
22.900        40
22.910        40
22.920        20
22.930        20
22.940        33
22.950         7
22.960        47
22.970        33
22.980        60
22.990        60
23.000        20
23.010        20
23.020        33
23.030        47
23.040        33
23.050        13
23.060        67
23.070        20
23.080        20
23.090        20
23.100        27
23.110        27
23.120        67
23.130        47
23.140         7
23.150        13
23.160        40
23.170        47
23.180        53
23.190        33
23.200        60
23.210        60
23.220        40
23.230        40
23.240        47
23.250        67
23.260        20
23.270        47
23.280        13
23.290        33
23.300        53
23.310        40
23.320        40
23.330        33
23.340        20
23.350        27
23.360        27
23.370        33
23.380        40
23.390        47
23.400        27
23.410        13
23.420        47
23.430        47
23.440        27
23.450        47
23.460        53
23.470        47
23.480        40
23.490        20
23.500        13
23.510        47
23.520        27
23.530        53
23.540        27
23.550        47
23.560        20
23.570        47
23.580        13
23.590        53
23.600        20
23.610        47
23.620        13
23.630        33
23.640        13
23.650        40
23.660        13
23.670        47
23.680        53
23.690        33
23.700        27
23.710        47
23.720        20
23.730        20
23.740        27
23.750        40
23.760        60
23.770        67
23.780        47
23.790        33
23.800        20
23.810        33
23.820        47
23.830        20
23.840        33
23.850        27
23.860        33
23.870        13
23.880        27
23.890        40
23.900        13
23.910        40
23.920        53
23.930        40
23.940        53
23.950        33
23.960        93
23.970         7
23.980        73
23.990        47
24.000        33
24.010        47
24.020        53
24.030        60
24.040        73
24.050        27
24.060        20
24.070        33
24.080        33
24.090        40
24.100        33
24.110        27
24.120        40
24.130        33
24.140        47
24.150        47
24.160        67
24.170        33
24.180        27
24.190        73
24.200        73
24.210        20
24.220         7
24.230        53
24.240        20
24.250        13
24.260        27
24.270        67
24.280        27
24.290        27
24.300        27
24.310        20
24.320        47
24.330        27
24.340        60
24.350        47
24.360        33
24.370        33
24.380        33
24.390        67
24.400        33
24.410        27
24.420        20
24.430        33
24.440        40
24.450        47
24.460        47
24.470        20
24.480        27
24.490        27
24.500        13
24.510        27
24.520        20
24.530        80
24.540        40
24.550        40
24.560        13
24.570        33
24.580        47
24.590        13
24.600        47
24.610        20
24.620        20
24.630        27
24.640        53
24.650        33
24.660        27
24.670        47
24.680        40
24.690         7
24.700        27
24.710        47
24.720        60
24.730        53
24.740        27
24.750        73
24.760        53
24.770        53
24.780        40
24.790        27
24.800        47
24.810        60
24.820        33
24.830        40
24.840        40
24.850        40
24.860        20
24.870        53
24.880        60
24.890         0
24.900        33
24.910        27
24.920        13
24.930        27
24.940        53
24.950        33
24.960        53
24.970        40
24.980        53
24.990        47
25.000        27
25.010        27
25.020         7
25.030        13
25.040        40
25.050        40
25.060        40
25.070        47
25.080        20
25.090        47
25.100        33
25.110        27
25.120        13
25.130        40
25.140        40
25.150        47
25.160        33
25.170        20
25.180        40
25.190        33
25.200        40
25.210        40
25.220        20
25.230        40
25.240        33
25.250         0
25.260        20
25.270        40
25.280        20
25.290        47
25.300        27
25.310        53
25.320        27
25.330        40
25.340        33
25.350        20
25.360        13
25.370        27
25.380        27
25.390        33
25.400        33
25.410        27
25.420        13
25.430        20
25.440        60
25.450        27
25.460        27
25.470        27
25.480        33
25.490        27
25.500        13
25.510        40
25.520        33
25.530        40
25.540        40
25.550        60
25.560        73
25.570        47
25.580        80
25.590        47
25.600        53
25.610        53
25.620        87
25.630        40
25.640        80
25.650        80
25.660        53
25.670        73
25.680        33
25.690        67
25.700        27
25.710         7
25.720         7
25.730         7
25.740        20
25.750        13
25.760        40
25.770        73
25.780        20
25.790        33
25.800        47
25.810        20
25.820        27
25.830        13
25.840        67
25.850        53
25.860        27
25.870        27
25.880        27
25.890        13
25.900        53
25.910        40
25.920        27
25.930        13
25.940        27
25.950        27
25.960        33
25.970        53
25.980        60
25.990        27
26.000        27
26.010        20
26.020        40
26.030        20
26.040        33
26.050        53
26.060        27
26.070        27
26.080        40
26.090        33
26.100        27
26.110        20
26.120        20
26.130        27
26.140        47
26.150        60
26.160        53
26.170        33
26.180        47
26.190        47
26.200        27
26.210        33
26.220        20
26.230        33
26.240        27
26.250        20
26.260         7
26.270        47
26.280        47
26.290        20
26.300        20
26.310        33
26.320        33
26.330        40
26.340        40
26.350        40
26.360        53
26.370        13
26.380        40
26.390        13
26.400        33
26.410        40
26.420        20
26.430        20
26.440        47
26.450        20
26.460        40
26.470        13
26.480        47
26.490        13
26.500        47
26.510        33
26.520        53
26.530         7
26.540        13
26.550         7
26.560        40
26.570        33
26.580        60
26.590        27
26.600        20
26.610         0
26.620        27
26.630        13
26.640        13
26.650        40
26.660        67
26.670        33
26.680        47
26.690        20
26.700        20
26.710        33
26.720        20
26.730        53
26.740        33
26.750        47
26.760        47
26.770        13
26.780        20
26.790        27
26.800        40
26.810        20
26.820        27
26.830        27
26.840        67
26.850        33
26.860        67
26.870        47
26.880        27
26.890        33
26.900        20
26.910        40
26.920        33
26.930        60
26.940        13
26.950        20
26.960        33
26.970         7
26.980        67
26.990        53
27.000        13
27.010        40
27.020        27
27.030        27
27.040        40
27.050        20
27.060        33
27.070        73
27.080        33
27.090        27
27.100        20
27.110        47
27.120        53
27.130        33
27.140        53
27.150        53
27.160        20
27.170        47
27.180        20
27.190        33
27.200        40
27.210        13
27.220        33
27.230        53
27.240        47
27.250        27
27.260        47
27.270        27
27.280        20
27.290        27
27.300        60
27.310        40
27.320        13
27.330        33
27.340        40
27.350        53
27.360        40
27.370        33
27.380        20
27.390        27
27.400        40
27.410        27
27.420        13
27.430        27
27.440        27
27.450        53
27.460        53
27.470        47
27.480        20
27.490        47
27.500        20
27.510        33
27.520        53
27.530        27
27.540        40
27.550        47
27.560        47
27.570        20
27.580        20
27.590        13
27.600        33
27.610        33
27.620        47
27.630        53
27.640        53
27.650        47
27.660        47
27.670        47
27.680        13
27.690        20
27.700        40
27.710        20
27.720        33
27.730        33
27.740        53
27.750        53
27.760        60
27.770        33
27.780        40
27.790        40
27.800        67
27.810        33
27.820        20
27.830        20
27.840        33
27.850        40
27.860        20
27.870        47
27.880        40
27.890        33
27.900        67
27.910        27
27.920        27
27.930        40
27.940        53
27.950        33
27.960        53
27.970        33
27.980        33
27.990        33
28.000        53
28.010        33
28.020        20
28.030        47
28.040        20
28.050        53
28.060        87
28.070        27
28.080        20
28.090        27
28.100        27
28.110        27
28.120        27
28.130        20
28.140        27
28.150        13
28.160        33
28.170        27
28.180        20
28.190        13
28.200         7
28.210        40
28.220        53
28.230        13
28.240        40
28.250        33
28.260        47
28.270        20
28.280        40
28.290        40
28.300        33
28.310        27
28.320        33
28.330        33
28.340        40
28.350        53
28.360         7
28.370        20
28.380        20
28.390        27
28.400        13
28.410        20
28.420        27
28.430        40
28.440         7
28.450        27
28.460        40
28.470        13
28.480        27
28.490        33
28.500        27
28.510        33
28.520        27
28.530        40
28.540        27
28.550        40
28.560        40
28.570        13
28.580        33
28.590        20
28.600         7
28.610        20
28.620        27
28.630        20
28.640        33
28.650        40
28.660        47
28.670        27
28.680        47
28.690        13
28.700        20
28.710        27
28.720        20
28.730        60
28.740        13
28.750        47
28.760        13
28.770        53
28.780        20
28.790        73
28.800        33
28.810        53
28.820        20
28.830         7
28.840        73
28.850        40
28.860         7
28.870        33
28.880        27
28.890        20
28.900        27
28.910        27
28.920         7
28.930        33
28.940        40
28.950        27
28.960        27
28.970        40
28.980        40
28.990        47
29.000        33
29.010        27
29.020         0
29.030        47
29.040        33
29.050         7
29.060        40
29.070        47
29.080        47
29.090        33
29.100        60
29.110        20
29.120        13
29.130        20
29.140        40
29.150        40
29.160        60
29.170        47
29.180        40
29.190        20
29.200        40
29.210        13
29.220        40
29.230        13
29.240        40
29.250        20
29.260        47
29.270        60
29.280        47
29.290        20
29.300        47
29.310        60
29.320        13
29.330        27
29.340        40
29.350        27
29.360        13
29.370        40
29.380        47
29.390        13
29.400        27
29.410        40
29.420        40
29.430        67
29.440        13
29.450        27
29.460        53
29.470        20
29.480        20
29.490        27
29.500        27
29.510        73
29.520        33
29.530        27
29.540        47
29.550        27
29.560        40
29.570        27
29.580        40
29.590        27
29.600        20
29.610        60
29.620        27
29.630        20
29.640        40
29.650        33
29.660        27
29.670        47
29.680        27
29.690        60
29.700        53
29.710        27
29.720        20
29.730        40
29.740        33
29.750        27
29.760        53
29.770        80
29.780        20
29.790        60
29.800        13
29.810        27
29.820        27
29.830        27
29.840        20
29.850        27
29.860        33
29.870        40
29.880        40
29.890        33
29.900        20
29.910        27
29.920        47
29.930        47
29.940        33
29.950        73
29.960        73
29.970        27
29.980        33
29.990        27
30.000        33
30.010        53
30.020        47
30.030        33
30.040        47
30.050        53
30.060        47
30.070        67
30.080        27
30.090        53
30.100        47
30.110        53
30.120        20
30.130        20
30.140        80
30.150        33
30.160        67
30.170        67
30.180        67
30.190        80
30.200        73
30.210        33
30.220        47
30.230        33
30.240        53
30.250        27
30.260        33
30.270        93
30.280        47
30.290        67
30.300        60
30.310        73
30.320        67
30.330        67
30.340        73
30.350       113
30.360       120
30.370       100
30.380        67
30.390       100
30.400        73
30.410       107
30.420       140
30.430       153
30.440       113
30.450       100
30.460       147
30.470       133
30.480       180
30.490       127
30.500       167
30.510       240
30.520       287
30.530       207
30.540       293
30.550       446
30.560       387
30.570       400
30.580       473
30.590       433
30.600       500
30.610       420
30.620       613
30.630       553
30.640       686
30.650       626
30.660       733
30.670       686
30.680       960
30.690       940
30.700       846
30.710       853
30.720      1073
30.730       966
30.740      1226
30.750      1220
30.760      1193
30.770      1346
30.780      1299
30.790      1413
30.800      1339
30.810      1213
30.820      1306
30.830      1273
30.840      1286
30.850      1153
30.860      1333
30.870      1193
30.880      1113
30.890      1053
30.900       806
30.910       826
30.920       786
30.930       673
30.940       540
30.950       460
30.960       413
30.970       360
30.980       387
30.990       280
31.000       327
31.010       233
31.020       227
31.030       153
31.040       173
31.050        80
31.060       173
31.070       167
31.080       127
31.090        93
31.100       127
31.110       160
31.120        73
31.130       133
31.140        73
31.150        93
31.160        47
31.170        67
31.180        73
31.190        93
31.200        73
31.210        87
31.220        87
31.230       120
31.240        53
31.250        73
31.260        80
31.270        60
31.280        40
31.290        47
31.300        53
31.310        73
31.320        47
31.330         7
31.340        53
31.350        40
31.360        67
31.370        60
31.380        47
31.390        53
31.400        33
31.410        60
31.420        40
31.430        53
31.440        40
31.450        20
31.460        80
31.470        60
31.480        47
31.490        13
31.500        40
31.510        47
31.520        27
31.530        47
31.540        47
31.550        40
31.560        60
31.570        47
31.580        47
31.590        47
31.600        60
31.610        27
31.620        47
31.630        27
31.640        53
31.650        80
31.660        33
31.670        60
31.680        53
31.690        73
31.700        27
31.710        33
31.720        53
31.730        60
31.740        27
31.750        53
31.760        47
31.770        53
31.780        40
31.790        53
31.800        53
31.810        53
31.820        47
31.830        40
31.840        47
31.850        40
31.860        47
31.870        33
31.880        40
31.890        20
31.900        33
31.910        47
31.920        67
31.930        47
31.940        67
31.950        40
31.960        53
31.970        13
31.980        27
31.990        40
32.000        27
32.010        53
32.020        27
32.030        47
32.040        40
32.050        47
32.060        20
32.070        33
32.080        27
32.090        20
32.100        47
32.110        40
32.120        27
32.130        27
32.140        40
32.150        27
32.160        27
32.170        27
32.180        40
32.190        53
32.200        40
32.210        40
32.220        33
32.230        13
32.240        40
32.250        27
32.260        67
32.270        60
32.280        67
32.290        33
32.300        20
32.310        40
32.320        13
32.330        33
32.340        33
32.350        47
32.360        27
32.370        27
32.380        40
32.390        67
32.400        33
32.410         7
32.420        40
32.430        40
32.440        27
32.450        33
32.460        13
32.470        13
32.480        13
32.490        40
32.500        27
32.510        27
32.520        47
32.530        47
32.540        13
32.550        33
32.560        53
32.570        60
32.580        67
32.590        27
32.600        53
32.610        27
32.620        33
32.630       133
32.640        40
32.650        67
32.660        33
32.670        67
32.680        27
32.690        67
32.700        13
32.710        33
32.720        27
32.730        80
32.740        33
32.750        53
32.760        13
32.770        33
32.780        27
32.790        40
32.800        20
32.810        53
32.820        27
32.830        13
32.840        20
32.850        53
32.860        20
32.870        40
32.880        40
32.890        40
32.900        67
32.910        47
32.920        40
32.930        33
32.940        40
32.950        13
32.960        20
32.970        33
32.980        20
32.990        27
33.000        33
33.010        27
33.020        53
33.030        47
33.040        27
33.050        33
33.060        33
33.070        47
33.080        27
33.090        13
33.100        33
33.110        40
33.120        13
33.130        20
33.140         7
33.150        33
33.160        40
33.170        40
33.180        33
33.190        20
33.200        53
33.210        53
33.220        20
33.230        20
33.240         7
33.250        60
33.260        13
33.270        33
33.280        20
33.290        53
33.300         7
33.310        20
33.320         7
33.330        53
33.340        47
33.350        13
33.360        20
33.370        33
33.380        27
33.390        33
33.400        40
33.410        53
33.420        13
33.430        20
33.440        40
33.450        27
33.460        20
33.470        20
33.480        20
33.490        20
33.500        27
33.510        27
33.520        40
33.530        53
33.540         7
33.550        33
33.560        27
33.570        20
33.580        33
33.590        33
33.600        20
33.610         0
33.620        53
33.630        33
33.640        40
33.650        13
33.660        33
33.670        27
33.680        20
33.690        27
33.700        20
33.710        27
33.720        33
33.730        60
33.740        33
33.750        33
33.760        33
33.770        27
33.780        20
33.790        20
33.800        20
33.810         7
33.820        73
33.830        27
33.840         7
33.850        53
33.860        27
33.870        33
33.880        20
33.890        27
33.900        27
33.910        33
33.920        20
33.930        27
33.940        47
33.950        20
33.960        20
33.970        60
33.980        40
33.990        40
34.000         7
34.010        33
34.020        33
34.030        27
34.040        40
34.050        40
34.060        40
34.070        47
34.080        40
34.090        20
34.100        13
34.110        40
34.120         7
34.130        13
34.140         7
34.150        53
34.160        40
34.170        40
34.180        20
34.190        33
34.200        27
34.210        73
34.220        20
34.230        27
34.240        33
34.250        27
34.260        40
34.270        33
34.280         7
34.290        53
34.300         7
34.310        33
34.320        27
34.330        27
34.340        13
34.350        53
34.360        20
34.370        20
34.380        47
34.390        20
34.400        27
34.410        47
34.420        13
34.430        53
34.440        20
34.450        20
34.460        27
34.470        27
34.480        33
34.490         7
34.500        27
34.510        27
34.520         7
34.530        40
34.540        27
34.550        53
34.560        33
34.570        27
34.580        47
34.590        20
34.600        40
34.610        47
34.620        27
34.630        13
34.640        20
34.650        33
34.660        20
34.670        20
34.680        27
34.690        33
34.700        33
34.710        13
34.720         7
34.730        47
34.740        40
34.750        40
34.760        20
34.770        13
34.780        40
34.790        47
34.800        27
34.810        47
34.820        40
34.830        27
34.840        53
34.850        27
34.860        47
34.870        27
34.880        13
34.890        13
34.900        20
34.910        40
34.920         0
34.930        27
34.940        60
34.950        33
34.960        27
34.970        67
34.980        53
34.990        33
35.000        27
35.010        27
35.020        13
35.030        33
35.040        53
35.050        60
35.060        87
35.070        67
35.080       127
35.090       147
35.100       127
35.110       140
35.120       180
35.130       167
35.140       260
35.150       227
35.160       213
35.170       200
35.180       240
35.190       187
35.200       273
35.210       167
35.220       167
35.230       180
35.240       140
35.250       120
35.260       193
35.270       107
35.280       133
35.290       100
35.300        93
35.310        60
35.320        53
35.330        53
35.340        47
35.350        47
35.360        47
35.370        60
35.380        33
35.390        40
35.400        33
35.410        33
35.420        33
35.430        27
35.440        47
35.450         7
35.460        20
35.470        13
35.480        20
35.490        33
35.500        47
35.510        33
35.520        40
35.530        67
35.540        13
35.550        33
35.560        27
35.570        20
35.580        20
35.590        13
35.600        20
35.610        20
35.620        20
35.630        40
35.640        20
35.650        47
35.660        40
35.670        40
35.680        20
35.690        33
35.700        13
35.710        47
35.720        33
35.730        27
35.740         7
35.750        20
35.760        40
35.770        13
35.780        20
35.790        20
35.800        40
35.810        33
35.820        33
35.830        13
35.840        13
35.850        27
35.860        13
35.870        13
35.880        47
35.890        33
35.900        27
35.910        13
35.920        33
35.930        20
35.940        20
35.950        33
35.960         7
35.970        47
35.980         7
35.990        40
36.000        60
36.010        47
36.020        13
36.030        33
36.040        20
36.050        33
36.060        20
36.070        27
36.080        27
36.090        13
36.100        27
36.110        40
36.120        33
36.130        20
36.140        20
36.150        27
36.160        40
36.170        40
36.180        33
36.190        13
36.200        27
36.210        27
36.220        13
36.230        27
36.240         7
36.250        33
36.260        40
36.270        13
36.280        33
36.290        27
36.300        13
36.310        20
36.320        27
36.330        20
36.340        40
36.350        27
36.360        20
36.370         7
36.380        40
36.390         0
36.400        33
36.410        20
36.420        20
36.430        40
36.440        33
36.450        33
36.460         7
36.470        27
36.480        27
36.490         7
36.500        20
36.510        20
36.520        33
36.530        20
36.540        13
36.550        67
36.560        47
36.570        13
36.580        27
36.590        33
36.600        33
36.610         7
36.620        53
36.630        27
36.640        47
36.650        13
36.660        20
36.670        27
36.680         7
36.690        40
36.700         7
36.710        27
36.720        13
36.730        13
36.740        27
36.750        33
36.760        33
36.770        13
36.780        13
36.790        47
36.800        40
36.810        13
36.820         7
36.830        60
36.840        33
36.850         7
36.860        13
36.870        13
36.880        20
36.890        40
36.900         0
36.910        40
36.920        33
36.930        40
36.940        20
36.950        33
36.960         0
36.970        20
36.980        27
36.990        27
37.000        40
37.010        20
37.020        27
37.030        33
37.040         7
37.050        33
37.060        40
37.070        33
37.080         0
37.090        40
37.100        20
37.110        60
37.120        33
37.130        33
37.140        13
37.150        27
37.160        13
37.170         0
37.180        20
37.190        40
37.200        27
37.210        67
37.220        67
37.230        20
37.240         7
37.250        40
37.260         7
37.270        33
37.280        13
37.290         7
37.300        20
37.310         0
37.320        27
37.330        47
37.340        33
37.350        40
37.360        27
37.370        47
37.380        20
37.390        27
37.400        53
37.410         7
37.420        27
37.430        13
37.440        40
37.450        27
37.460        13
37.470         7
37.480        40
37.490        20
37.500        13
37.510        20
37.520        27
37.530        40
37.540        33
37.550        33
37.560         0
37.570        33
37.580        27
37.590        20
37.600        47
37.610        67
37.620        20
37.630        47
37.640        27
37.650        27
37.660        60
37.670        60
37.680        67
37.690        53
37.700        80
37.710        53
37.720        47
37.730        60
37.740        33
37.750        47
37.760        80
37.770        87
37.780        80
37.790        47
37.800       127
37.810        67
37.820       113
37.830        67
37.840       100
37.850        67
37.860       107
37.870       113
37.880       153
37.890       100
37.900        87
37.910       127
37.920       193
37.930        80
37.940        93
37.950       127
37.960       160
37.970       193
37.980       173
37.990       220
38.000       173
38.010       187
38.020       207
38.030       213
38.040       240
38.050       253
38.060       233
38.070       213
38.080       187
38.090       180
38.100       267
38.110       200
38.120       333
38.130       193
38.140       180
38.150       147
38.160       160
38.170       180
38.180       180
38.190       107
38.200       127
38.210       140
38.220        80
38.230       127
38.240       120
38.250       100
38.260        53
38.270       100
38.280        47
38.290        73
38.300        53
38.310        53
38.320        40
38.330        33
38.340        67
38.350        53
38.360        13
38.370        53
38.380        60
38.390        27
38.400        33
38.410        53
38.420         7
38.430        27
38.440        20
38.450        20
38.460        20
38.470        27
38.480        60
38.490         7
38.500        20
38.510        27
38.520        47
38.530        13
38.540        60
38.550        53
38.560        20
38.570        33
38.580        20
38.590        53
38.600        27
38.610        27
38.620        40
38.630        13
38.640        20
38.650        20
38.660        33
38.670         7
38.680        40
38.690        40
38.700        33
38.710        47
38.720        40
38.730        13
38.740        40
38.750        27
38.760        20
38.770        13
38.780         7
38.790        47
38.800        20
38.810        60
38.820        27
38.830        33
38.840        20
38.850        27
38.860        20
38.870        13
38.880        20
38.890        47
38.900        40
38.910        13
38.920        13
38.930        27
38.940        13
38.950        13
38.960        13
38.970        27
38.980        40
38.990        33
39.000        40
39.010         7
39.020        27
39.030        13
39.040        20
39.050        20
39.060         7
39.070        47
39.080        27
39.090        53
39.100        40
39.110        27
39.120        27
39.130        33
39.140        33
39.150        60
39.160        20
39.170        27
39.180        20
39.190        27
39.200        20
39.210        20
39.220        33
39.230        20
39.240        13
39.250        20
39.260         0
39.270        20
39.280        20
39.290        20
39.300        20
39.310        67
39.320        13
39.330        40
39.340        27
39.350        27
39.360        27
39.370        33
39.380        27
39.390        20
39.400        40
39.410        13
39.420        40
39.430        27
39.440        40
39.450        13
39.460        27
39.470        20
39.480         0
39.490        13
39.500        33
39.510        13
39.520        27
39.530        47
39.540        40
39.550        40
39.560        33
39.570        20
39.580        47
39.590        20
39.600        20
39.610        33
39.620        13
39.630        27
39.640        13
39.650        13
39.660        53
39.670        33
39.680        13
39.690         7
39.700        47
39.710        40
39.720        20
39.730        13
39.740        47
39.750        33
39.760         7
39.770        73
39.780        20
39.790        33
39.800        20
39.810        27
39.820        27
39.830        27
39.840        33
39.850        33
39.860        20
39.870        47
39.880        60
39.890        20
39.900         7
39.910        13
39.920        20
39.930        13
39.940         7
39.950        13
39.960        33
39.970        40
39.980        20
39.990        13
40.000        27
40.010        33
40.020        27
40.030         7
40.040        27
40.050        20
40.060        33
40.070        13
40.080        20
40.090        53
40.100        47
40.110        13
40.120        33
40.130        33
40.140        27
40.150        13
40.160        27
40.170         7
40.180        33
40.190        20
40.200        13
40.210        13
40.220        13
40.230        27
40.240        27
40.250        27
40.260        33
40.270        20
40.280        27
40.290        13
40.300        33
40.310        27
40.320        40
40.330        20
40.340         7
40.350        20
40.360        27
40.370        33
40.380        20
40.390        33
40.400        40
40.410        40
40.420        33
40.430        13
40.440        27
40.450         0
40.460         7
40.470        27
40.480        13
40.490        13
40.500        13
40.510        40
40.520         0
40.530        20
40.540        13
40.550        13
40.560         7
40.570        13
40.580        27
40.590        13
40.600        60
40.610        13
40.620         7
40.630         0
40.640         7
40.650        33
40.660         7
40.670        33
40.680         7
40.690        27
40.700        27
40.710         7
40.720        47
40.730        20
40.740        40
40.750        13
40.760         0
40.770        13
40.780         7
40.790         7
40.800         7
40.810        20
40.820        13
40.830        13
40.840        20
40.850         7
40.860        13
40.870        20
40.880         0
40.890        27
40.900        13
40.910        13
40.920        13
40.930         7
40.940        20
40.950        13
40.960        13
40.970         7
40.980        13
40.990         7
41.000        33
41.010         7
41.020        40
41.030         0
41.040        40
41.050         7
41.060         0
41.070        13
41.080        27
41.090        60
41.100         7
41.110         7
41.120        40
41.130        20
41.140         7
41.150        13
41.160        60
41.170        27
41.180         7
41.190         7
41.200         7
41.210        13
41.220        13
41.230        20
41.240        13
41.250         7
41.260        20
41.270        20
41.280        13
41.290        13
41.300        13
41.310        33
41.320        33
41.330        33
41.340         7
41.350         7
41.360        20
41.370        27
41.380        33
41.390        47
41.400        27
41.410        20
41.420        27
41.430        13
41.440        27
41.450        20
41.460        20
41.470        27
41.480        13
41.490        33
41.500        40
41.510        40
41.520        27
41.530        53
41.540        40
41.550        33
41.560        53
41.570        20
41.580        20
41.590        20
41.600        27
41.610        27
41.620        13
41.630        27
41.640        53
41.650        47
41.660       113
41.670        93
41.680       100
41.690        93
41.700       133
41.710       147
41.720       127
41.730        73
41.740       113
41.750        53
41.760        73
41.770        47
41.780        53
41.790       107
41.800        80
41.810        60
41.820        33
41.830        67
41.840        60
41.850        67
41.860        40
41.870        40
41.880        27
41.890        40
41.900        33
41.910        33
41.920        40
41.930         7
41.940        13
41.950        27
41.960        13
41.970        33
41.980        13
41.990        13
42.000        27
42.010        13
42.020        33
42.030         7
42.040        47
42.050        13
42.060        20
42.070         0
42.080        20
42.090        13
42.100        20
42.110        47
42.120         7
42.130        40
42.140        20
42.150        13
42.160        20
42.170        40
42.180        13
42.190        20
42.200        13
42.210        20
42.220        27
42.230        13
42.240        27
42.250        27
42.260        20
42.270        20
42.280        47
42.290        13
42.300         7
42.310        27
42.320        20
42.330        33
42.340        13
42.350        20
42.360        20
42.370        20
42.380        27
42.390        27
42.400        13
42.410        20
42.420        27
42.430        13
42.440        13
42.450        27
42.460        33
42.470        33
42.480        33
42.490        27
42.500        27
42.510        33
42.520        20
42.530        27
42.540         7
42.550        27
42.560        27
42.570        20
42.580        33
42.590        27
42.600        40
42.610        27
42.620        33
42.630        20
42.640        27
42.650        33
42.660        53
42.670        13
42.680        27
42.690        33
42.700        33
42.710        27
42.720        33
42.730        27
42.740        20
42.750        13
42.760        40
42.770        53
42.780        47
42.790        20
42.800        13
42.810         7
42.820        27
42.830        33
42.840        20
42.850         7
42.860        27
42.870        33
42.880        27
42.890         0
42.900        33
42.910        33
42.920        13
42.930        27
42.940        20
42.950        20
42.960        20
42.970        20
42.980        40
42.990        53
43.000        20
43.010         7
43.020        13
43.030        13
43.040        40
43.050        33
43.060        33
43.070        13
43.080        53
43.090        27
43.100        20
43.110        47
43.120        33
43.130        53
43.140        20
43.150        27
43.160        20
43.170        33
43.180        33
43.190        33
43.200        13
43.210        47
43.220        40
43.230        40
43.240        47
43.250        67
43.260        67
43.270        80
43.280        60
43.290        80
43.300        93
43.310       127
43.320       100
43.330       100
43.340       160
43.350       193
43.360       193
43.370       207
43.380       193
43.390       107
43.400       113
43.410        80
43.420        67
43.430       100
43.440       127
43.450       127
43.460        87
43.470        67
43.480        80
43.490        80
43.500       153
43.510        60
43.520        47
43.530        67
43.540        87
43.550        40
43.560        73
43.570        60
43.580       107
43.590        80
43.600        67
43.610        87
43.620       133
43.630        60
43.640        67
43.650        40
43.660        47
43.670        47
43.680        87
43.690       100
43.700       160
43.710       133
43.720       120
43.730       113
43.740        87
43.750        93
43.760       120
43.770       140
43.780       140
43.790       167
43.800       167
43.810       160
43.820       120
43.830       153
43.840       160
43.850       227
43.860       227
43.870       193
43.880       267
43.890       160
43.900       227
43.910       167
43.920       227
43.930       173
43.940       233
43.950       200
43.960       273
43.970       227
43.980       313
43.990       267
44.000       260
44.010       293
44.020       280
44.030       327
44.040       347
44.050       353
44.060       353
44.070       413
44.080       267
44.090       380
44.100       373
44.110       400
44.120       420
44.130       307
44.140       313
44.150       367
44.160       413
44.170       347
44.180       373
44.190       393
44.200       466
44.210       367
44.220       253
44.230       360
44.240       347
44.250       200
44.260       280
44.270       300
44.280       193
44.290       387
44.300       280
44.310       200
44.320       267
44.330       253
44.340       120
44.350       227
44.360       173
44.370       140
44.380       120
44.390       120
44.400       200
44.410       127
44.420       127
44.430       100
44.440       167
44.450       127
44.460        67
44.470       107
44.480        67
44.490       100
44.500        93
44.510        87
44.520        87
44.530        67
44.540        80
44.550        87
44.560       120
44.570        53
44.580        67
44.590        33
44.600        40
44.610        53
44.620        47
44.630        27
44.640        47
44.650        40
44.660        20
44.670        40
44.680        67
44.690        27
44.700        47
44.710        80
44.720        13
44.730        47
44.740        20
44.750        33
44.760        27
44.770        27
44.780        40
44.790        27
44.800        33
44.810        13
44.820        40
44.830        40
44.840        20
44.850        20
44.860        27
44.870        60
44.880        33
44.890        40
44.900        47
44.910        20
44.920         7
44.930        13
44.940        13
44.950        13
44.960        20
44.970        20
44.980        40
44.990        47
45.000        27
45.010         7
45.020        33
45.030        13
45.040        40
45.050        40
45.060        53
45.070        40
45.080        47
45.090        27
45.100        47
45.110        13
45.120        27
45.130        40
45.140        27
45.150        33
45.160        13
45.170        27
45.180        33
45.190        13
45.200        27
45.210        27
45.220         0
45.230        53
45.240        27
45.250        13
45.260        47
45.270        40
45.280        20
45.290        27
45.300        33
45.310        13
45.320        20
45.330        13
45.340        33
45.350        27
45.360        13
45.370        47
45.380        20
45.390        40
45.400         7
45.410        20
45.420        20
45.430        40
45.440        13
45.450        33
45.460         0
45.470        20
45.480        20
45.490        27
45.500        27
45.510        13
45.520         0
45.530        27
45.540        27
45.550        27
45.560        40
45.570        27
45.580        27
45.590        13
45.600        27
45.610        20
45.620        40
45.630        27
45.640        20
45.650        13
45.660         0
45.670        33
45.680        13
45.690         7
45.700        67
45.710        20
45.720        20
45.730        20
45.740        13
45.750         7
45.760         7
45.770        20
45.780        33
45.790        27
45.800        33
45.810         0
45.820        27
45.830        40
45.840        20
45.850        13
45.860        13
45.870        33
45.880        20
45.890        53
45.900         0
45.910         7
45.920        27
45.930        60
45.940        27
45.950        33
45.960        40
45.970        13
45.980        20
45.990        47
46.000        33
46.010        20
46.020         7
46.030        27
46.040        20
46.050        20
46.060        20
46.070        13
46.080        33
46.090        13
46.100         0
46.110        27
46.120        20
46.130        27
46.140        20
46.150        20
46.160        27
46.170        13
46.180        27
46.190         0
46.200        13
46.210        13
46.220        13
46.230        40
46.240        20
46.250        13
46.260        40
46.270        33
46.280        20
46.290        20
46.300        47
46.310        27
46.320        13
46.330        20
46.340        13
46.350        20
46.360        13
46.370        33
46.380        27
46.390        33
46.400        13
46.410        13
46.420        20
46.430        27
46.440        27
46.450        33
46.460        27
46.470        13
46.480         7
46.490        20
46.500        27
46.510        20
46.520        13
46.530        20
46.540        13
46.550        13
46.560        20
46.570        20
46.580         7
46.590         7
46.600        13
46.610        27
46.620        13
46.630        40
46.640         7
46.650        27
46.660        40
46.670        20
46.680        20
46.690        27
46.700         7
46.710        20
46.720        13
46.730        13
46.740        13
46.750        20
46.760        27
46.770        20
46.780        20
46.790        27
46.800        27
46.810        40
46.820        33
46.830        13
46.840         0
46.850         0
46.860        13
46.870         7
46.880        27
46.890         0
46.900        20
46.910        13
46.920        13
46.930         7
46.940        13
46.950        27
46.960         7
46.970        13
46.980        13
46.990        27
47.000        13
47.010        20
47.020         0
47.030         7
47.040        40
47.050        33
47.060        20
47.070        13
47.080         0
47.090        20
47.100        20
47.110        33
47.120        13
47.130        40
47.140         7
47.150         7
47.160        33
47.170        13
47.180        20
47.190         7
47.200        27
47.210        20
47.220         7
47.230        20
47.240        20
47.250        33
47.260         7
47.270        33
47.280        20
47.290        20
47.300        27
47.310        40
47.320        27
47.330         0
47.340        27
47.350        20
47.360        20
47.370        13
47.380        13
47.390        20
47.400        27
47.410        13
47.420        13
47.430        20
47.440         7
47.450        13
47.460        13
47.470        20
47.480         0
47.490         0
47.500         7
47.510        13
47.520        13
47.530        20
47.540        27
47.550        13
47.560        13
47.570        33
47.580        20
47.590        27
47.600        13
47.610        20
47.620        33
47.630        13
47.640        40
47.650        20
47.660        13
47.670        33
47.680        27
47.690        33
47.700         7
47.710        27
47.720         7
47.730        13
47.740        27
47.750        20
47.760         0
47.770        27
47.780        27
47.790        20
47.800        27
47.810        13
47.820        20
47.830         7
47.840        20
47.850         7
47.860        47
47.870        27
47.880        33
47.890        33
47.900        40
47.910        33
47.920         0
47.930        13
47.940        13
47.950        20
47.960        33
47.970         7
47.980        20
47.990         7
48.000        20
48.010        20
48.020        20
48.030        33
48.040        13
48.050        20
48.060        13
48.070        27
48.080        13
48.090        13
48.100        13
48.110         7
48.120         7
48.130        13
48.140        20
48.150        20
48.160        20
48.170        27
48.180        13
48.190        13
48.200        20
48.210        13
48.220        13
48.230        27
48.240        20
48.250        33
48.260         7
48.270         0
48.280        20
48.290        13
48.300         7
48.310         0
48.320        33
48.330        33
48.340        20
48.350        13
48.360        47
48.370        40
48.380        20
48.390         7
48.400        33
48.410        13
48.420         7
48.430        13
48.440        13
48.450        13
48.460        40
48.470        20
48.480        20
48.490        20
48.500        13
48.510        67
48.520        13
48.530        33
48.540        33
48.550        20
48.560         7
48.570        13
48.580        20
48.590         0
48.600        13
48.610        27
48.620         7
48.630        20
48.640        13
48.650        20
48.660        20
48.670        13
48.680         7
48.690        33
48.700        27
48.710        20
48.720        20
48.730        27
48.740        20
48.750         7
48.760        27
48.770        33
48.780        20
48.790         0
48.800        20
48.810         7
48.820        33
48.830        13
48.840         7
48.850        20
48.860        20
48.870        20
48.880        20
48.890         7
48.900        20
48.910        27
48.920        13
48.930         7
48.940        20
48.950        20
48.960        33
48.970        20
48.980         0
48.990        13
49.000        27
49.010        13
49.020         7
49.030        13
49.040        20
49.050        20
49.060        27
49.070        33
49.080        20
49.090        13
49.100         7
49.110        20
49.120         7
49.130         7
49.140        33
49.150        20
49.160        33
49.170        13
49.180        27
49.190        20
49.200        13
49.210        27
49.220        27
49.230        13
49.240        27
49.250        20
49.260         7
49.270        13
49.280        20
49.290        33
49.300        20
49.310        27
49.320        40
49.330        13
49.340        27
49.350        27
49.360         7
49.370         0
49.380         7
49.390        27
49.400        33
49.410        13
49.420        13
49.430        27
49.440        13
49.450        13
49.460        33
49.470        20
49.480         0
49.490        40
49.500         0
49.510        33
49.520        13
49.530        13
49.540        13
49.550         7
49.560         0
49.570        40
49.580        27
49.590        13
49.600        40
49.610         7
49.620         0
49.630         7
49.640         7
49.650        20
49.660         0
49.670         7
49.680        20
49.690        13
49.700        33
49.710         0
49.720         0
49.730         7
49.740        27
49.750         7
49.760        20
49.770        27
49.780        13
49.790        33
49.800        20
49.810        13
49.820        13
49.830        13
49.840         0
49.850        13
49.860        13
49.870        20
49.880        27
49.890        27
49.900        13
49.910        53
49.920        40
49.930        27
49.940        33
49.950        27
49.960        13
49.970         0
49.980        20
49.990        13
50.000         7
50.010        20
50.020        13
50.030        13
50.040        13
50.050        13
50.060         0
50.070        13
50.080        13
50.090        20
50.100         7
50.110        20
50.120         0
50.130         7
50.140         0
50.150        33
50.160        40
50.170        13
50.180        33
50.190         0
50.200         0
50.210        20
50.220        13
50.230        13
50.240         7
50.250        20
50.260         0
50.270        13
50.280        13
50.290         0
50.300        47
50.310         7
50.320        13
50.330        13
50.340        13
50.350         7
50.360        40
50.370        20
50.380        27
50.390        20
50.400         7
50.410         7
50.420        20
50.430         0
50.440         0
50.450         7
50.460         7
50.470        27
50.480         7
50.490        13
50.500        20
50.510        13
50.520        20
50.530        20
50.540         0
50.550        33
50.560         7
50.570         7
50.580        13
50.590        47
50.600        20
50.610        33
50.620        13
50.630        20
50.640        20
50.650         7
50.660        27
50.670        33
50.680         7
50.690        27
50.700         7
50.710        13
50.720        33
50.730        20
50.740         7
50.750         7
50.760        27
50.770        20
50.780         0
50.790         7
50.800         7
50.810        13
50.820        13
50.830         7
50.840         0
50.850        20
50.860        13
50.870        33
50.880        13
50.890        13
50.900        13
50.910        20
50.920         0
50.930        20
50.940        13
50.950        20
50.960         7
50.970        13
50.980        13
50.990         7
51.000        20
51.010        27
51.020        13
51.030        13
51.040        20
51.050         0
51.060         0
51.070         7
51.080         0
51.090        13
51.100        13
51.110        13
51.120        13
51.130        20
51.140        20
51.150         0
51.160         7
51.170        13
51.180         7
51.190        53
51.200        27
51.210         0
51.220         7
51.230        27
51.240        13
51.250         7
51.260         7
51.270         0
51.280         7
51.290        33
51.300        13
51.310        13
51.320         7
51.330        13
51.340        20
51.350         0
51.360        20
51.370         7
51.380         7
51.390         7
51.400        40
51.410        33
51.420        13
51.430        13
51.440        20
51.450        33
51.460        27
51.470        13
51.480        27
51.490        13
51.500         7
51.510        20
51.520        33
51.530        20
51.540        13
51.550         0
51.560         7
51.570        13
51.580         7
51.590        13
51.600        13
51.610        27
51.620        13
51.630        27
51.640        27
51.650        13
51.660        13
51.670        13
51.680         7
51.690         7
51.700        20
51.710        20
51.720        20
51.730        13
51.740        20
51.750        33
51.760         7
51.770        27
51.780         7
51.790        13
51.800        27
51.810         7
51.820        20
51.830        20
51.840        27
51.850        20
51.860        13
51.870        13
51.880        13
51.890         0
51.900        13
51.910        13
51.920        13
51.930        13
51.940         7
51.950         7
51.960        13
51.970         7
51.980        33
51.990        27
52.000        20
52.010        13
52.020        20
52.030        20
52.040        33
52.050        27
52.060        20
52.070        27
52.080        27
52.090        27
52.100        20
52.110        13
52.120         7
52.130         7
52.140        47
52.150        27
52.160         7
52.170        33
52.180        13
52.190         0
52.200         7
52.210        13
52.220         0
52.230        20
52.240        27
52.250        13
52.260        27
52.270         7
52.280         7
52.290        13
52.300         7
52.310        40
52.320        27
52.330        33
52.340        27
52.350        27
52.360        33
52.370        13
52.380        20
52.390        20
52.400        27
52.410         0
52.420        13
52.430        20
52.440        27
52.450        13
52.460        20
52.470         7
52.480        33
52.490         7
52.500        60
52.510        27
52.520        20
52.530        40
52.540        67
52.550       107
52.560       100
52.570       113
52.580       147
52.590        80
52.600       120
52.610        80
52.620        67
52.630        67
52.640        60
52.650        67
52.660        47
52.670        73
52.680        27
52.690       107
52.700        33
52.710        73
52.720        80
52.730       100
52.740        73
52.750        27
52.760        47
52.770        40
52.780        27
52.790        13
52.800        53
52.810        20
52.820        20
52.830        20
52.840         7
52.850        20
52.860        13
52.870        13
52.880        27
52.890        20
52.900        27
52.910        27
52.920        13
52.930        20
52.940        20
52.950        20
52.960         7
52.970        20
52.980        20
52.990        40
53.000        20
53.010        27
53.020        20
53.030         7
53.040         7
53.050         7
53.060        13
53.070         7
53.080         7
53.090        20
53.100        20
53.110        13
53.120        13
53.130         0
53.140         7
53.150         7
53.160        27
53.170         0
53.180        13
53.190         7
53.200        20
53.210        20
53.220        20
53.230         0
53.240         7
53.250        13
53.260         7
53.270        53
53.280        40
53.290        27
53.300        20
53.310        27
53.320        33
53.330        20
53.340        20
53.350        13
53.360        33
53.370         0
53.380        13
53.390        13
53.400        20
53.410         7
53.420        20
53.430         7
53.440         0
53.450        27
53.460        27
53.470         7
53.480        13
53.490        33
53.500        13
53.510        27
53.520        20
53.530        33
53.540         7
53.550        13
53.560        33
53.570        13
53.580        20
53.590         7
53.600        20
53.610         7
53.620        13
53.630        27
53.640         0
53.650        13
53.660        20
53.670        13
53.680         7
53.690        27
53.700        13
53.710        20
53.720         7
53.730        13
53.740         0
53.750        13
53.760        13
53.770        33
53.780        20
53.790        40
53.800         0
53.810         7
53.820        20
53.830        53
53.840        20
53.850        13
53.860        33
53.870         7
53.880        33
53.890        27
53.900        27
53.910         7
53.920         7
53.930        13
53.940        47
53.950        20
53.960        13
53.970        13
53.980         7
53.990         7
54.000         7
54.010        13
54.020         0
54.030        27
54.040        20
54.050        27
54.060        13
54.070        27
54.080        27
54.090        40
54.100        33
54.110        40
54.120        33
54.130        33
54.140        20
54.150        20
54.160        27
54.170        33
54.180        13
54.190        53
54.200        13
54.210        20
54.220         7
54.230        20
54.240        33
54.250        40
54.260        33
54.270        13
54.280        27
54.290        27
54.300        20
54.310        13
54.320        40
54.330        20
54.340         7
54.350        40
54.360        20
54.370        13
54.380        40
54.390        33
54.400        60
54.410        20
54.420        60
54.430        27
54.440        33
54.450        27
54.460        27
54.470        27
54.480       100
54.490        60
54.500        33
54.510        47
54.520        53
54.530        13
54.540        47
54.550        67
54.560        73
54.570        53
54.580        60
54.590        80
54.600        87
54.610        33
54.620        87
54.630       100
54.640        40
54.650       113
54.660       107
54.670        47
54.680       120
54.690        73
54.700       107
54.710       133
54.720       147
54.730       180
54.740       140
54.750       140
54.760       120
54.770       113
54.780       100
54.790       240
54.800       107
54.810       173
54.820       187
54.830       140
54.840       207
54.850       140
54.860       120
54.870       187
54.880       153
54.890       160
54.900       140
54.910       173
54.920        73
54.930       187
54.940       187
54.950       160
54.960        80
54.970       100
54.980        93
54.990        53
55.000       120
55.010        93
55.020        93
55.030        87
55.040       120
55.050        60
55.060        53
55.070        53
55.080        60
55.090        60
55.100        33
55.110        53
55.120        93
55.130         7
55.140        53
55.150        20
55.160        27
55.170        20
55.180        33
55.190        67
55.200        27
55.210        40
55.220        13
55.230         7
55.240        20
55.250        27
55.260        27
55.270        33
55.280        20
55.290        13
55.300        20
55.310        40
55.320        40
55.330        20
55.340        27
55.350        20
55.360        20
55.370         0
55.380        13
55.390         7
55.400        20
55.410        13
55.420        27
55.430         0
55.440        27
55.450        13
55.460         7
55.470        13
55.480        13
55.490        20
55.500        20
55.510        20
55.520        47
55.530        27
55.540        33
55.550        20
55.560        20
55.570        33
55.580        13
55.590        13
55.600         7
55.610        27
55.620         7
55.630         7
55.640        47
55.650         7
55.660        33
55.670        13
55.680        13
55.690         7
55.700         0
55.710        20
55.720         7
55.730        33
55.740        13
55.750         0
55.760        40
55.770         0
55.780        13
55.790         7
55.800         7
55.810         7
55.820        13
55.830        40
55.840        33
55.850        13
55.860        20
55.870         7
55.880        47
55.890        13
55.900        13
55.910        13
55.920        20
55.930        20
55.940        33
55.950        13
55.960        13
55.970        47
55.980        13
55.990        20
56.000        40
56.010        13
56.020        27
56.030        13
56.040        33
56.050        20
56.060        20
56.070        27
56.080         0
56.090        20
56.100        27
56.110         7
56.120        27
56.130        27
56.140        27
56.150        13
56.160        13
56.170        13
56.180        33
56.190         7
56.200        13
56.210         7
56.220        33
56.230        27
56.240        20
56.250        13
56.260         7
56.270        33
56.280         7
56.290        13
56.300        27
56.310        33
56.320        20
56.330         7
56.340         0
56.350         7
56.360        33
56.370        27
56.380        27
56.390         7
56.400         7
56.410         0
56.420        20
56.430        33
56.440        13
56.450         7
56.460         0
56.470        20
56.480        40
56.490        20
56.500         7
56.510         0
56.520         7
56.530        40
56.540        27
56.550        20
56.560         7
56.570         7
56.580        27
56.590        27
56.600         7
56.610        27
56.620        33
56.630        13
56.640        20
56.650        20
56.660        13
56.670         7
56.680        33
56.690         0
56.700        13
56.710        20
56.720        20
56.730         7
56.740        20
56.750        13
56.760         7
56.770         7
56.780        33
56.790         0
56.800         7
56.810         7
56.820        33
56.830        20
56.840        13
56.850        20
56.860         7
56.870        13
56.880        27
56.890        27
56.900         7
56.910        13
56.920        33
56.930         7
56.940        13
56.950        13
56.960         0
56.970        33
56.980        33
56.990        13
57.000        13
57.010        47
57.020        13
57.030        20
57.040         0
57.050        20
57.060        33
57.070        20
57.080         7
57.090        20
57.100        13
57.110         7
57.120         7
57.130        27
57.140        20
57.150        27
57.160         7
57.170        27
57.180        27
57.190        20
57.200        13
57.210         7
57.220         0
57.230        20
57.240        13
57.250        13
57.260        27
57.270        27
57.280        20
57.290        27
57.300        27
57.310        33
57.320        40
57.330        33
57.340        27
57.350        27
57.360        40
57.370        20
57.380        27
57.390        40
57.400        67
57.410        47
57.420        80
57.430        73
57.440        80
57.450        67
57.460       160
57.470       120
57.480       113
57.490       160
57.500       160
57.510       127
57.520       180
57.530       187
57.540       213
57.550       220
57.560       240
57.570       207
57.580       147
57.590       133
57.600       113
57.610        93
57.620        47
57.630        93
57.640       113
57.650        93
57.660       113
57.670       107
57.680        87
57.690       160
57.700       113
57.710       120
57.720        60
57.730       100
57.740        73
57.750        73
57.760        53
57.770        40
57.780        47
57.790        33
57.800        33
57.810        33
57.820        33
57.830        27
57.840        40
57.850        40
57.860         7
57.870        27
57.880        20
57.890        13
57.900         7
57.910        27
57.920        33
57.930        27
57.940        20
57.950        33
57.960         7
57.970        20
57.980         0
57.990        27
58.000        27
58.010         7
58.020        13
58.030        27
58.040        20
58.050        20
58.060        33
58.070         0
58.080        40
58.090        13
58.100        33
58.110         7
58.120        27
58.130        13
58.140        27
58.150         0
58.160        13
58.170        20
58.180         7
58.190        13
58.200        20
58.210         0
58.220         7
58.230         7
58.240        13
58.250        20
58.260        27
58.270        20
58.280        13
58.290        13
58.300        13
58.310         7
58.320         7
58.330        20
58.340        13
58.350         0
58.360         0
58.370        20
58.380        20
58.390        13
58.400        20
58.410        13
58.420         7
58.430         7
58.440        27
58.450        13
58.460        13
58.470         7
58.480         7
58.490         7
58.500        20
58.510        20
58.520         7
58.530         0
58.540         7
58.550        13
58.560        20
58.570        20
58.580         0
58.590         7
58.600        27
58.610         0
58.620        20
58.630         0
58.640        13
58.650        13
58.660        20
58.670        13
58.680        33
58.690         7
58.700        13
58.710        20
58.720        13
58.730        13
58.740         7
58.750         0
58.760         0
58.770         0
58.780        33
58.790        40
58.800        27
58.810         7
58.820        20
58.830         7
58.840         0
58.850        33
58.860        33
58.870        13
58.880         7
58.890        13
58.900        27
58.910         7
58.920        20
58.930        40
58.940        13
58.950        20
58.960        33
58.970         7
58.980        13
58.990         7
59.000        40
59.010         7
59.020        20
59.030        13
59.040        20
59.050        13
59.060         0
59.070         0
59.080        27
59.090        27
59.100         0
59.110        40
59.120        33
59.130         7
59.140        13
59.150        20
59.160        13
59.170         0
59.180         7
59.190         7
59.200        20
59.210        27
59.220        20
59.230        13
59.240         7
59.250        20
59.260         7
59.270        20
59.280         0
59.290        13
59.300        13
59.310        13
59.320        13
59.330        27
59.340         7
59.350        13
59.360        20
59.370        27
59.380        13
59.390        20
59.400        20
59.410         0
59.420         7
59.430        13
59.440         0
59.450        20
59.460        33
59.470         0
59.480        20
59.490        13
59.500        40
59.510        27
59.520         0
59.530        20
59.540        33
59.550        33
59.560         7
59.570         7
59.580        20
59.590        20
59.600        20
59.610         0
59.620         7
59.630        13
59.640         7
59.650         0
59.660        20
59.670         7
59.680         7
59.690        13
59.700        27
59.710         7
59.720         7
59.730        20
59.740        13
59.750        27
59.760         7
59.770         7
59.780        33
59.790        20
59.800        20
59.810         0
59.820        27
59.830        13
59.840        13
59.850        13
59.860        20
59.870        13
59.880         7
59.890         0
59.900         7
59.910        27
59.920        13
59.930        13
59.940        27
59.950         7
59.960         7
59.970        13
59.980        20
59.990        13
60.000         7
