20.000        40
20.010        33
20.020         0
20.030        87
20.040        47
20.050        40
20.060        47
20.070        53
20.080        47
20.090        53
20.100        33
20.110        53
20.120        53
20.130        40
20.140        20
20.150        13
20.160        53
20.170        47
20.180        60
20.190        80
20.200        47
20.210        33
20.220        53
20.230        67
20.240        27
20.250        47
20.260       107
20.270        53
20.280        33
20.290        47
20.300        47
20.310        40
20.320        53
20.330        40
20.340        53
20.350        33
20.360        33
20.370        20
20.380        47
20.390        47
20.400        67
20.410        60
20.420        40
20.430        27
20.440        47
20.450        60
20.460        60
20.470        87
20.480        60
20.490        67
20.500        33
20.510        60
20.520        27
20.530        67
20.540        53
20.550        47
20.560        47
20.570        60
20.580        40
20.590        47
20.600        47
20.610        60
20.620        67
20.630        40
20.640        40
20.650        33
20.660        27
20.670        87
20.680        33
20.690        40
20.700        20
20.710        47
20.720        80
20.730        40
20.740        53
20.750        47
20.760        27
20.770        67
20.780        53
20.790        53
20.800        53
20.810        33
20.820        47
20.830        40
20.840        47
20.850        53
20.860        47
20.870        33
20.880        60
20.890        33
20.900        20
20.910        60
20.920        40
20.930        40
20.940        27
20.950        60
20.960        13
20.970        53
20.980        93
20.990        53
21.000        53
21.010        40
21.020        67
21.030        80
21.040        27
21.050        47
21.060        27
21.070        27
21.080        33
21.090        27
21.100        53
21.110        60
21.120        40
21.130         7
21.140        27
21.150        33
21.160        80
21.170        53
21.180        47
21.190        40
21.200        60
21.210        60
21.220        40
21.230        40
21.240        40
21.250        27
21.260        47
21.270        40
21.280        53
21.290        13
21.300        27
21.310        67
21.320        20
21.330        20
21.340        67
21.350        20
21.360        67
21.370        60
21.380        53
21.390        47
21.400        40
21.410        47
21.420        20
21.430        73
21.440        53
21.450        40
21.460        20
21.470        20
21.480        47
21.490        27
21.500        47
21.510        87
21.520        40
21.530        33
21.540        47
21.550        33
21.560        20
21.570       100
21.580        80
21.590        53
21.600        40
21.610        40
21.620        33
21.630        33
21.640        33
21.650        27
21.660        67
21.670        20
21.680        40
21.690        40
21.700        40
21.710        33
21.720        27
21.730        60
21.740        40
21.750        47
21.760        20
21.770        20
21.780        33
21.790        27
21.800        20
21.810        33
21.820        47
21.830        27
21.840        40
21.850        27
21.860        60
21.870        33
21.880        47
21.890         0
21.900        27
21.910        47
21.920        67
21.930        80
21.940        53
21.950        13
21.960        40
21.970        53
21.980        33
21.990        60
22.000        33
22.010        47
22.020        53
22.030        20
22.040        80
22.050        47
22.060        80
22.070        53
22.080        13
22.090        53
22.100        67
22.110        40
22.120        60
22.130        47
22.140        40
22.150        60
22.160        47
22.170        33
22.180        80
22.190        53
22.200        53
22.210        40
22.220        67
22.230        73
22.240        33
22.250        80
22.260        47
22.270        60
22.280        53
22.290        80
22.300        60
22.310        93
22.320       107
22.330       107
22.340        67
22.350        80
22.360        73
22.370       100
22.380        80
22.390        53
22.400       127
22.410        80
22.420       100
22.430       100
22.440       153
22.450       113
22.460       120
22.470       127
22.480       147
22.490       153
22.500       167
22.510       213
22.520       193
22.530       233
22.540       220
22.550       213
22.560       180
22.570       240
22.580       207
22.590       273
22.600       227
22.610       213
22.620       253
22.630       120
22.640       220
22.650       147
22.660       267
22.670       207
22.680       207
22.690       167
22.700       180
22.710       247
22.720       167
22.730       213
22.740       187
22.750       133
22.760       140
22.770       140
22.780       120
22.790       153
22.800       140
22.810       140
22.820       113
22.830        80
22.840        93
22.850        93
22.860        87
22.870       133
22.880        53
22.890        67
22.900        60
22.910       127
22.920        87
22.930        93
22.940       100
22.950       100
22.960        73
22.970        53
22.980        47
22.990        53
23.000       113
23.010        47
23.020        47
23.030        87
23.040        73
23.050       100
23.060        73
23.070        33
23.080        67
23.090        20
23.100        80
23.110        33
23.120        53
23.130        40
23.140        47
23.150        53
23.160        33
23.170        53
23.180        40
23.190        27
23.200        40
23.210        40
23.220        87
23.230        73
23.240        67
23.250        33
23.260        33
23.270        13
23.280        47
23.290        60
23.300        40
23.310        73
23.320        27
23.330        87
23.340        47
23.350        53
23.360        40
23.370        47
23.380        47
23.390        53
23.400        47
23.410        47
23.420        47
23.430        40
23.440        40
23.450        80
23.460        67
23.470        53
23.480        47
23.490        60
23.500        53
23.510        40
23.520        27
23.530        47
23.540        27
23.550        73
23.560        40
23.570        13
23.580        47
23.590        27
23.600        80
23.610        40
23.620        60
23.630        33
23.640        73
23.650        53
23.660        80
23.670        53
23.680        27
23.690        47
23.700        33
23.710        53
23.720        73
23.730        40
23.740        60
23.750        73
23.760       107
23.770        47
23.780        40
23.790        27
23.800        33
23.810        47
23.820        67
23.830         0
23.840        33
23.850        33
23.860        20
23.870        33
23.880        33
23.890        33
23.900        20
23.910        47
23.920        80
23.930        27
23.940        33
23.950        60
23.960        53
23.970        27
23.980        33
23.990        27
24.000        53
24.010        27
24.020        20
24.030        33
24.040        27
24.050        33
24.060        33
24.070        27
24.080        27
24.090        20
24.100        13
24.110        53
24.120        53
24.130        20
24.140        27
24.150        53
24.160        40
24.170        27
24.180        20
24.190        47
24.200        53
24.210        60
24.220        40
24.230        20
24.240        53
24.250        33
24.260        27
24.270        33
24.280        20
24.290        33
24.300        27
24.310        33
24.320        40
24.330        53
24.340        33
24.350        27
24.360        33
24.370         7
24.380        53
24.390        40
24.400         7
24.410        40
24.420        40
24.430        27
24.440        80
24.450        40
24.460        27
24.470        27
24.480        47
24.490        47
24.500        20
24.510        40
24.520        33
24.530        60
24.540        27
24.550        33
24.560        40
24.570        40
24.580        33
24.590        73
24.600        67
24.610        47
24.620        60
24.630         7
24.640        27
24.650        53
24.660        27
24.670        53
24.680        13
24.690        53
24.700        40
24.710        40
24.720        47
24.730        27
24.740        20
24.750        40
24.760        33
24.770        40
24.780        27
24.790        33
24.800        60
24.810        33
24.820         7
24.830        47
24.840        47
24.850        20
24.860        67
24.870        40
24.880        40
24.890        80
24.900        60
24.910        67
24.920        13
24.930        20
24.940        40
24.950        33
24.960        27
24.970        47
24.980        33
24.990        20
25.000        33
25.010        47
25.020        53
25.030        33
25.040        40
25.050        53
25.060        53
25.070        47
25.080        20
25.090        33
25.100        67
25.110        27
25.120        27
25.130        40
25.140        27
25.150        20
25.160        60
25.170        33
25.180        27
25.190        67
25.200        33
25.210        53
25.220        33
25.230        40
25.240        40
25.250        27
25.260        67
25.270        13
25.280        27
25.290        93
25.300        60
25.310        40
25.320        47
25.330        53
25.340        20
25.350        27
25.360        33
25.370        87
25.380        40
25.390        33
25.400        60
25.410        67
25.420        80
25.430        33
25.440        27
25.450        40
25.460        53
25.470        73
25.480        80
25.490       107
25.500       100
25.510        93
25.520        93
25.530       113
25.540       127
25.550       180
25.560       133
25.570       193
25.580       127
25.590        67
25.600       153
25.610        67
25.620       127
25.630        93
25.640       113
25.650        47
25.660        40
25.670        67
25.680        47
25.690        93
25.700        47
25.710        60
25.720        47
25.730        40
25.740        13
25.750        67
25.760        40
25.770        47
25.780         7
25.790        47
25.800        20
25.810        27
25.820        13
25.830        33
25.840         7
25.850        40
25.860        40
25.870        47
25.880        27
25.890        60
25.900        27
25.910        27
25.920        33
25.930        47
25.940        53
25.950        27
25.960        13
25.970        13
25.980        60
25.990        27
26.000        20
26.010        60
26.020        47
26.030        33
26.040        40
26.050        73
26.060        27
26.070        60
26.080        47
26.090        33
26.100        40
26.110        13
26.120        40
26.130        60
26.140        47
26.150        20
26.160        33
26.170        33
26.180        20
26.190        40
26.200        20
26.210        40
26.220        33
26.230        27
26.240        67
26.250         7
26.260        60
26.270        20
26.280        53
26.290        27
26.300        40
26.310        27
26.320        67
26.330        27
26.340        40
26.350        47
26.360        47
26.370        33
26.380        67
26.390        40
26.400        27
26.410        53
26.420        27
26.430        33
26.440        40
26.450        33
26.460        27
26.470        27
26.480        27
26.490        40
26.500        53
26.510        13
26.520        53
26.530        40
26.540        27
26.550        27
26.560        27
26.570        27
26.580        13
26.590        20
26.600        73
26.610        53
26.620        40
26.630        20
26.640        47
26.650        33
26.660        13
26.670        33
26.680        47
26.690        47
26.700        20
26.710        27
26.720        20
26.730        47
26.740        47
26.750        40
26.760         0
26.770        33
26.780         7
26.790        20
26.800        33
26.810        47
26.820        27
26.830        67
26.840        33
26.850        47
26.860        20
26.870        53
26.880        33
26.890        47
26.900        33
26.910        27
26.920        33
26.930        27
26.940        13
26.950        40
26.960        60
26.970        20
26.980        20
26.990        40
27.000        27
27.010        20
27.020        27
27.030        27
27.040        27
27.050        53
27.060         7
27.070        27
27.080        33
27.090        13
27.100        13
27.110        33
27.120        20
27.130        60
27.140        33
27.150        20
27.160        33
27.170        40
27.180        60
27.190        20
27.200        40
27.210        13
27.220        60
27.230        33
27.240        20
27.250        13
27.260        20
27.270        40
27.280        13
27.290        40
27.300        27
27.310        27
27.320       107
27.330        40
27.340        27
27.350        53
27.360        13
27.370        20
27.380        33
27.390        47
27.400        27
27.410        33
27.420        40
27.430        47
27.440        27
27.450        27
27.460        73
27.470        40
27.480        40
27.490         7
27.500        40
27.510        53
27.520        27
27.530        53
27.540        33
27.550        53
27.560        33
27.570        20
27.580        33
27.590        13
27.600         7
27.610        20
27.620        33
27.630        73
27.640        33
27.650        27
27.660        27
27.670        40
27.680        33
27.690        13
27.700        13
27.710        20
27.720        33
27.730        40
27.740        47
27.750        40
27.760        27
27.770        13
27.780         7
27.790        40
27.800        13
27.810        20
27.820        27
27.830        27
27.840        47
27.850        27
27.860        47
27.870         7
27.880        13
27.890        27
27.900        20
27.910        33
27.920         7
27.930        13
27.940        20
27.950        27
27.960        40
27.970        47
27.980         7
27.990        27
28.000        47
28.010        20
28.020        33
28.030        27
28.040        33
28.050        47
28.060        60
28.070        60
28.080        60
28.090        47
28.100        40
28.110        47
28.120        40
28.130        13
28.140        33
28.150        20
28.160        53
28.170        67
28.180        40
28.190        20
28.200         7
28.210        20
28.220        27
28.230        60
28.240        20
28.250        40
28.260        47
28.270        20
28.280        47
28.290        20
28.300        53
28.310        27
28.320        40
28.330        20
28.340        13
28.350        13
28.360        13
28.370        20
28.380        47
28.390        33
28.400        20
28.410        27
28.420        60
28.430        33
28.440        20
28.450        53
28.460        33
28.470        33
28.480        33
28.490        33
28.500        27
28.510        40
28.520        33
28.530        27
28.540        33
28.550        47
28.560        13
28.570        53
28.580        27
28.590        13
28.600        47
28.610        20
28.620        47
28.630        47
28.640        40
28.650        20
28.660        33
28.670         0
28.680        40
28.690        40
28.700        33
28.710        13
28.720        20
28.730        40
28.740        20
28.750        20
28.760        27
28.770        27
28.780         7
28.790        60
28.800        40
28.810        13
28.820        20
28.830        73
28.840        20
28.850        20
28.860        27
28.870        40
28.880        13
28.890        27
28.900        40
28.910        33
28.920        33
28.930         7
28.940        40
28.950        40
28.960        53
28.970        27
28.980         7
28.990        13
29.000        33
29.010        40
29.020        13
29.030        27
29.040        40
29.050        40
29.060        20
29.070        13
29.080        53
29.090        13
29.100        13
29.110        40
29.120         7
29.130        27
29.140        33
29.150        40
29.160        40
29.170        27
29.180        13
29.190        40
29.200         0
29.210        20
29.220        33
29.230        53
29.240        33
29.250        20
29.260        20
29.270        47
29.280        47
29.290        53
29.300        47
29.310        13
29.320        27
29.330         0
29.340        20
29.350        27
29.360        33
29.370        53
29.380        40
29.390        53
29.400        33
29.410        20
29.420        40
29.430        20
29.440        20
29.450        47
29.460        33
29.470        33
29.480        27
29.490        27
29.500        27
29.510        47
29.520        33
29.530        27
29.540        13
29.550        40
29.560        40
29.570        60
29.580        47
29.590        27
29.600        13
29.610        13
29.620        53
29.630         7
29.640        33
29.650        27
29.660        60
29.670        40
29.680        13
29.690        33
29.700        20
29.710        13
29.720        20
29.730        33
29.740        33
29.750        40
29.760        20
29.770        33
29.780        53
29.790        13
29.800        20
29.810        13
29.820        33
29.830        20
29.840        27
29.850        13
29.860        20
29.870        33
29.880        20
29.890        20
29.900        40
29.910        20
29.920        33
29.930        20
29.940        13
29.950        20
29.960        20
29.970        33
29.980        33
29.990        40
30.000        27
30.010        13
30.020        27
30.030        33
30.040        13
30.050        47
30.060        13
30.070        47
30.080        33
30.090        27
30.100        20
30.110        20
30.120        13
30.130        27
30.140        40
30.150        33
30.160        33
30.170        20
30.180         7
30.190         7
30.200        20
30.210        13
30.220        20
30.230        33
30.240        40
30.250        13
30.260        47
30.270        13
30.280        20
30.290        20
30.300        40
30.310        20
30.320         7
30.330         7
30.340        20
30.350        53
30.360        13
30.370         0
30.380        60
30.390        33
30.400        27
30.410        40
30.420        27
30.430        67
30.440        27
30.450        33
30.460        27
30.470        47
30.480        60
30.490        27
30.500        20
30.510        13
30.520        47
30.530        13
30.540        53
30.550        33
30.560        13
30.570        20
30.580        13
30.590        13
30.600        60
30.610         7
30.620        33
30.630        20
30.640        27
30.650        33
30.660        20
30.670        13
30.680        27
30.690        20
30.700        13
30.710        13
30.720        33
30.730        20
30.740        20
30.750        13
30.760        20
30.770        13
30.780        27
30.790        27
30.800         0
30.810        47
30.820        20
30.830        20
30.840        20
30.850        20
30.860        27
30.870         7
30.880        20
30.890        33
30.900        40
30.910        33
30.920        20
30.930        40
30.940        40
30.950        33
30.960         0
30.970        20
30.980        40
30.990         7
31.000        20
31.010        27
31.020        27
31.030        33
31.040        13
31.050         7
31.060        20
31.070        13
31.080        13
31.090        27
31.100         0
31.110        20
31.120        47
31.130        27
31.140         7
31.150        40
31.160        73
31.170        13
31.180        27
31.190        20
31.200        40
31.210        13
31.220         7
31.230        33
31.240        20
31.250        13
31.260        27
31.270        33
31.280        20
31.290        13
31.300        27
31.310        47
31.320        27
31.330        33
31.340        33
31.350        27
31.360        33
31.370        13
31.380        40
31.390        13
31.400        47
31.410        53
31.420        40
31.430        20
31.440        40
31.450        33
31.460        33
31.470        27
31.480        33
31.490        20
31.500        20
31.510        27
31.520        47
31.530        40
31.540        27
31.550        27
31.560        47
31.570        20
31.580        20
31.590        53
31.600         7
31.610        33
31.620        67
31.630        20
31.640        53
31.650        20
31.660        13
31.670        40
31.680        33
31.690        47
31.700        40
31.710        33
31.720        27
31.730        47
31.740        13
31.750        40
31.760        27
31.770        13
31.780        27
31.790        27
31.800        27
31.810         7
31.820        27
31.830        33
31.840        20
31.850        13
31.860        27
31.870        33
31.880        60
31.890        40
31.900        80
31.910        40
31.920        13
31.930        33
31.940        47
31.950        40
31.960        13
31.970        73
31.980        60
31.990        60
32.000        47
32.010        67
32.020        60
32.030        87
32.040        73
32.050        60
32.060        93
32.070        87
32.080        67
32.090       120
32.100        80
32.110       113
32.120        93
32.130        80
32.140        93
32.150       140
32.160       120
32.170       107
32.180       100
32.190       100
32.200       133
32.210       100
32.220       113
32.230       167
32.240       167
32.250       160
32.260       187
32.270       200
32.280       207
32.290       247
32.300       207
32.310       187
32.320       173
32.330       193
32.340       193
32.350       113
32.360       113
32.370       147
32.380       313
32.390       173
32.400       167
32.410       167
32.420       180
32.430       207
32.440       213
32.450       167
32.460        67
32.470       153
32.480       173
32.490       153
32.500       147
32.510       127
32.520       127
32.530       147
32.540        93
32.550       113
32.560       113
32.570       100
32.580        80
32.590        73
32.600        73
32.610       100
32.620        60
32.630       133
32.640       100
32.650        53
32.660        53
32.670        67
32.680        53
32.690        53
32.700        53
32.710        80
32.720        73
32.730        60
32.740        53
32.750        60
32.760        40
32.770        40
32.780        40
32.790         7
32.800        33
32.810        33
32.820        33
32.830        27
32.840        33
32.850        33
32.860        33
32.870        20
32.880        33
32.890        27
32.900        40
32.910        40
32.920        40
32.930        33
32.940        27
32.950        13
32.960        27
32.970        60
32.980        27
32.990        33
33.000        33
33.010        33
33.020        40
33.030        53
33.040        40
33.050        27
33.060         0
33.070        27
33.080        53
33.090        13
33.100        27
33.110        33
33.120        20
33.130        33
33.140        40
33.150        47
33.160        53
33.170        13
33.180         7
33.190        33
33.200        47
33.210        40
33.220        33
33.230        20
33.240        53
33.250        27
33.260        20
33.270        20
33.280        20
33.290        13
33.300        33
33.310        53
33.320        20
33.330        47
33.340        47
33.350        20
33.360        27
33.370         7
33.380        27
33.390        33
33.400        40
33.410        20
33.420        20
33.430        40
33.440        13
33.450        20
33.460        33
33.470        40
33.480        20
33.490        40
33.500        27
33.510        47
33.520        20
33.530        27
33.540        27
33.550        13
33.560        40
33.570        20
33.580        20
33.590        13
33.600        40
33.610        13
33.620        20
33.630        33
33.640        20
33.650        47
33.660        27
33.670        20
33.680        20
33.690        33
33.700        13
33.710        13
33.720        13
33.730        27
33.740        27
33.750        20
33.760         7
33.770        13
33.780        33
33.790        13
33.800        47
33.810         7
33.820         7
33.830        33
33.840        40
33.850        33
33.860        33
33.870        47
33.880        33
33.890        33
33.900        20
33.910        33
33.920        33
33.930        13
33.940        20
33.950        20
33.960        33
33.970         7
33.980        20
33.990        20
34.000        47
34.010        33
34.020        40
34.030        47
34.040        20
34.050         0
34.060        40
34.070        13
34.080        40
34.090        33
34.100         7
34.110        13
34.120        47
34.130        20
34.140        20
34.150        20
34.160        13
34.170        27
34.180        13
34.190        20
34.200        13
34.210        27
34.220        33
34.230        40
34.240        40
34.250        20
34.260        13
34.270        27
34.280        40
34.290        13
34.300        27
34.310        13
34.320        33
34.330        60
34.340        20
34.350        13
34.360        27
34.370        33
34.380        13
34.390        40
34.400        53
34.410        20
34.420        40
34.430        27
34.440        20
34.450        13
34.460        27
34.470        20
34.480        40
34.490         7
34.500        40
34.510        20
34.520        47
34.530        47
34.540        20
34.550        13
34.560        13
34.570        20
34.580        13
34.590        33
34.600        27
34.610        20
34.620        27
34.630        20
34.640        20
34.650        40
34.660        20
34.670        33
34.680        13
34.690        20
34.700        13
34.710        27
34.720         7
34.730        20
34.740        33
34.750        27
34.760        20
34.770        27
34.780        40
34.790        27
34.800         0
34.810         7
34.820        40
34.830        13
34.840        33
34.850        53
34.860        27
34.870        27
34.880        20
34.890         7
34.900        53
34.910        33
34.920        33
34.930        33
34.940        20
34.950        27
34.960        20
34.970        73
34.980        53
34.990        53
35.000        40
35.010        60
35.020        67
35.030        40
35.040        93
35.050        67
35.060       107
35.070        67
35.080       107
35.090       120
35.100       153
35.110       173
35.120       127
35.130       220
35.140       200
35.150       207
35.160       267
35.170       193
35.180       180
35.190       187
35.200       160
35.210       173
35.220       113
35.230       160
35.240        73
35.250       120
35.260       113
35.270       127
35.280        80
35.290        40
35.300        40
35.310        47
35.320        27
35.330        67
35.340        27
35.350        27
35.360        13
35.370        47
35.380         0
35.390        20
35.400        27
35.410        20
35.420        13
35.430        47
35.440        20
35.450        20
35.460        13
35.470        27
35.480        27
35.490         7
35.500        20
35.510        13
35.520        13
35.530        47
35.540        27
35.550        27
35.560        13
35.570        27
35.580        13
35.590        20
35.600        27
35.610        13
35.620        47
35.630        13
35.640        27
35.650        40
35.660        27
35.670        13
35.680        13
35.690        27
35.700        20
35.710        33
35.720        20
35.730        13
35.740        20
35.750        13
35.760        33
35.770        33
35.780         7
35.790        13
35.800         7
35.810        13
35.820        20
35.830         7
35.840         0
35.850        27
35.860        40
35.870        20
35.880        27
35.890        27
35.900        20
35.910        20
35.920        20
35.930        33
35.940        33
35.950         0
35.960        20
35.970        33
35.980        27
35.990        13
36.000        20
36.010         7
36.020        47
36.030        40
36.040        13
36.050        13
36.060        33
36.070        53
36.080        20
36.090        40
36.100        33
36.110        20
36.120         7
36.130        27
36.140        27
36.150        27
36.160        20
36.170        20
36.180        20
36.190        27
36.200        40
36.210        13
36.220         0
36.230        20
36.240        13
36.250        20
36.260        13
36.270        53
36.280        27
36.290        27
36.300        27
36.310        20
36.320        27
36.330        20
36.340        13
36.350        13
36.360        40
36.370        33
36.380        27
36.390        33
36.400        33
36.410        20
36.420        33
36.430        20
36.440        13
36.450         7
36.460        33
36.470        27
36.480        27
36.490        33
36.500        13
36.510        20
36.520        33
36.530        20
36.540        33
36.550        27
36.560        20
36.570        20
36.580        27
36.590        20
36.600         7
36.610        13
36.620        47
36.630        53
36.640        13
36.650        20
36.660        20
36.670        13
36.680        20
36.690        20
36.700        20
36.710        20
36.720        33
36.730        40
36.740         7
36.750        40
36.760        20
36.770         7
36.780        40
36.790        20
36.800        27
36.810        33
36.820        33
36.830        27
36.840        20
36.850        20
36.860        27
36.870        13
36.880        33
36.890        33
36.900        33
36.910        40
36.920        47
36.930        20
36.940        20
36.950        27
36.960        13
36.970        40
36.980        20
36.990        80
37.000        20
37.010        20
37.020        33
37.030        20
37.040        27
37.050         0
37.060         0
37.070        47
37.080        20
37.090        27
37.100        13
37.110        20
37.120        20
37.130        20
37.140        20
37.150        20
37.160        53
37.170        13
37.180         7
37.190        20
37.200        40
37.210        33
37.220         7
37.230        13
37.240        20
37.250        20
37.260        27
37.270        33
37.280         7
37.290        13
37.300        47
37.310        13
37.320        33
37.330        20
37.340        20
37.350        33
37.360        13
37.370        20
37.380        33
37.390        47
37.400        20
37.410        27
37.420        13
37.430        33
37.440        13
37.450        33
37.460        67
37.470        20
37.480        33
37.490        33
37.500        40
37.510        40
37.520         0
37.530        27
37.540        53
37.550        33
37.560        13
37.570        60
37.580        27
37.590        47
37.600        67
37.610        40
37.620        20
37.630        20
37.640        27
37.650        27
37.660        40
37.670        47
37.680        20
37.690        20
37.700        27
37.710        47
37.720        20
37.730        27
37.740        40
37.750        80
37.760        60
37.770        80
37.780        53
37.790        87
37.800        53
37.810        73
37.820        67
37.830        40
37.840       127
37.850        27
37.860        60
37.870        53
37.880        33
37.890        53
37.900        20
37.910        33
37.920        27
37.930        27
37.940        53
37.950        47
37.960        20
37.970        40
37.980        20
37.990         7
38.000        20
38.010        27
38.020        33
38.030        13
38.040         7
38.050        20
38.060        33
38.070        27
38.080         7
38.090        13
38.100        33
38.110        13
38.120        20
38.130        13
38.140        33
38.150         7
38.160        67
38.170        33
38.180        27
38.190        27
38.200         7
38.210        27
38.220        27
38.230        20
38.240        13
38.250        13
38.260         7
38.270        47
38.280        20
38.290         0
38.300        27
38.310        47
38.320        20
38.330        13
38.340        20
38.350         7
38.360        33
38.370        20
38.380        27
38.390         7
38.400        33
38.410        13
38.420         7
38.430         7
38.440        20
38.450        13
38.460        40
38.470         7
38.480        13
38.490        13
38.500        27
38.510         7
38.520         0
38.530        33
38.540        20
38.550        13
38.560         7
38.570        27
38.580        27
38.590        40
38.600        13
38.610        13
38.620        40
38.630        40
38.640        13
38.650        40
38.660        27
38.670        40
38.680         7
38.690        20
38.700         7
38.710        20
38.720        20
38.730         7
38.740        20
38.750        27
38.760        13
38.770        20
38.780        20
38.790        13
38.800        40
38.810        20
38.820        27
38.830        20
38.840         7
38.850        20
38.860        47
38.870        13
38.880         7
38.890        20
38.900        40
38.910        40
38.920         7
38.930        33
38.940        13
38.950        13
38.960        33
38.970        13
38.980        47
38.990         7
39.000        20
39.010        33
39.020         0
39.030        27
39.040        27
39.050        20
39.060        33
39.070        27
39.080         7
39.090        20
39.100         7
39.110        47
39.120        40
39.130        27
39.140        20
39.150        27
39.160        33
39.170        27
39.180        20
39.190        20
39.200        33
39.210        27
39.220        47
39.230        33
39.240        20
39.250        27
39.260        33
39.270        20
39.280        27
39.290         0
39.300        20
39.310        47
39.320        27
39.330        27
39.340        20
39.350        40
39.360        33
39.370        27
39.380        20
39.390        27
39.400        13
39.410        20
39.420        13
39.430        20
39.440        40
39.450        40
39.460        27
39.470        27
39.480        40
39.490        20
39.500         7
39.510        40
39.520        20
39.530        40
39.540        20
39.550        13
39.560        13
39.570        13
39.580        53
39.590        40
39.600        33
39.610        20
39.620        27
39.630        27
39.640        13
39.650        27
39.660        13
39.670        33
39.680        27
39.690        27
39.700        27
39.710        27
39.720        53
39.730        47
39.740        33
39.750        33
39.760        47
39.770        53
39.780        80
39.790        67
39.800        67
39.810        87
39.820        60
39.830        87
39.840        67
39.850        67
39.860        73
39.870        93
39.880        87
39.890       100
39.900        87
39.910        60
39.920        67
39.930        40
39.940       107
39.950       127
39.960        87
39.970        80
39.980       127
39.990        93
40.000       153
40.010       133
40.020        93
40.030       133
40.040       133
40.050       100
40.060        53
40.070        87
40.080        53
40.090        80
40.100        13
40.110        67
40.120        73
40.130        53
40.140        87
40.150        73
40.160        33
40.170        40
40.180        53
40.190        73
40.200        67
40.210        27
40.220        13
40.230        20
40.240        40
40.250        27
40.260        27
40.270        13
40.280        20
40.290        53
40.300        40
40.310        13
40.320        13
40.330        20
40.340        40
40.350        60
40.360         7
40.370        20
40.380        40
40.390        27
40.400        27
40.410        27
40.420        40
40.430        13
40.440        27
40.450        20
40.460        33
40.470        13
40.480        27
40.490        40
40.500        13
40.510         7
40.520         7
40.530        67
40.540        47
40.550        47
40.560        27
40.570        20
40.580         7
40.590        13
40.600        13
40.610        33
40.620        33
40.630        20
40.640        33
40.650        27
40.660        27
40.670        27
40.680        33
40.690        33
40.700        33
40.710        13
40.720        27
40.730        13
40.740        27
40.750        20
40.760        53
40.770         0
40.780        27
40.790        20
40.800        27
40.810        20
40.820         7
40.830        27
40.840        40
40.850        20
40.860         0
40.870        13
40.880        33
40.890        40
40.900        13
40.910        20
40.920        33
40.930        13
40.940        13
40.950        40
40.960         7
40.970        27
40.980        33
40.990        27
41.000        40
41.010        40
41.020        53
41.030        47
41.040         7
41.050        13
41.060        20
41.070         7
41.080        27
41.090         7
41.100        27
41.110        20
41.120        20
41.130        27
41.140        53
41.150        40
41.160        13
41.170        27
41.180        40
41.190        13
41.200        20
41.210        20
41.220        27
41.230        33
41.240        47
41.250        40
41.260        20
41.270        40
41.280        27
41.290        53
41.300        13
41.310         0
41.320        27
41.330        20
41.340        53
41.350        40
41.360        33
41.370        53
41.380        20
41.390        33
41.400        20
41.410        40
41.420        33
41.430        40
41.440        40
41.450        47
41.460        53
41.470        60
41.480        53
41.490        20
41.500        40
41.510        60
41.520        27
41.530        53
41.540        60
41.550        60
41.560        60
41.570        67
41.580        27
41.590       107
41.600       127
41.610       107
41.620       153
41.630       140
41.640       233
41.650       133
41.660       253
41.670       173
41.680       220
41.690       293
41.700       260
41.710       193
41.720       133
41.730       187
41.740       107
41.750       127
41.760       147
41.770       180
41.780       147
41.790       147
41.800       140
41.810       107
41.820       107
41.830        87
41.840        33
41.850        60
41.860        40
41.870        47
41.880        40
41.890        47
41.900        20
41.910        33
41.920        20
41.930        20
41.940        33
41.950        40
41.960        27
41.970        20
41.980        27
41.990        33
42.000        40
42.010        13
42.020        20
42.030         7
42.040        33
42.050        27
42.060        33
42.070        27
42.080        20
42.090        33
42.100        33
42.110        60
42.120        20
42.130        40
42.140        33
42.150        20
42.160        27
42.170        20
42.180        20
42.190        20
42.200        53
42.210         0
42.220        20
42.230        20
42.240        47
42.250        27
42.260         7
42.270        33
42.280        13
42.290        40
42.300        13
42.310        27
42.320         7
42.330        20
42.340        13
42.350         7
42.360        13
42.370        27
42.380        47
42.390        33
42.400        27
42.410        27
42.420        27
42.430        53
42.440        33
42.450         7
42.460        33
42.470        20
42.480         7
42.490        27
42.500        13
42.510        27
42.520        40
42.530        47
42.540        13
42.550        27
42.560        27
42.570        20
42.580        13
42.590         7
42.600         7
42.610        13
42.620         7
42.630         7
42.640        27
42.650        27
42.660        13
42.670        13
42.680        27
42.690        20
42.700        33
42.710         7
42.720         0
42.730        27
42.740        13
42.750         0
42.760         7
42.770        20
42.780        13
42.790        67
42.800        20
42.810        40
42.820        27
42.830        20
42.840        27
42.850         7
42.860        20
42.870        40
42.880        27
42.890        33
42.900        33
42.910        40
42.920        20
42.930        20
42.940         7
42.950        20
42.960        27
42.970        27
42.980        20
42.990        13
43.000        13
43.010         7
43.020        20
43.030        33
43.040        47
43.050         7
43.060        40
43.070        13
43.080        20
43.090        27
43.100        27
43.110        27
43.120        27
43.130        27
43.140        20
43.150        20
43.160        33
43.170        20
43.180        20
43.190        33
43.200        40
43.210        33
43.220        27
43.230        40
43.240        40
43.250        40
43.260        40
43.270        60
43.280        73
43.290        20
43.300        53
43.310        93
43.320       100
43.330        93
43.340       180
43.350       153
43.360       153
43.370       140
43.380       147
43.390        67
43.400        73
43.410        73
43.420        53
43.430       133
43.440       133
43.450        87
43.460        93
43.470        80
43.480        73
43.490        53
43.500        87
43.510        67
43.520        73
43.530        20
43.540        47
43.550        20
43.560        40
43.570        20
43.580        27
43.590        13
43.600        27
43.610        47
43.620        33
43.630         7
43.640        33
43.650        33
43.660        20
43.670        13
43.680        13
43.690         7
43.700        33
43.710        27
43.720        27
43.730        27
43.740        27
43.750        47
43.760        13
43.770        40
43.780        13
43.790        20
43.800        13
43.810        27
43.820        20
43.830        27
43.840        13
43.850        27
43.860        33
43.870        20
43.880        27
43.890        40
43.900        33
43.910        53
43.920        20
43.930        13
43.940        33
43.950        27
43.960        20
43.970        13
43.980        20
43.990        13
44.000         7
44.010        33
44.020        33
44.030        40
44.040        47
44.050        20
44.060        60
44.070        27
44.080        13
44.090        20
44.100        13
44.110        47
44.120        13
44.130         7
44.140        33
44.150        47
44.160        27
44.170        20
44.180        27
44.190        20
44.200        27
44.210        13
44.220        13
44.230        27
44.240        13
44.250        33
44.260        40
44.270        13
44.280        27
44.290        53
44.300         0
44.310        20
44.320        60
44.330        33
44.340        47
44.350        13
44.360        27
44.370         7
44.380        40
44.390        33
44.400        40
44.410        40
44.420        20
44.430        67
44.440        67
44.450        20
44.460        33
44.470        27
44.480        33
44.490        27
44.500        53
44.510        40
44.520        60
44.530        53
44.540        40
44.550        40
44.560         7
44.570        33
44.580        33
44.590        13
44.600        20
44.610        33
44.620        53
44.630        53
44.640        20
44.650        20
44.660        33
44.670        27
44.680        33
44.690        60
44.700        27
44.710        60
44.720        40
44.730        47
44.740        93
44.750        67
44.760        47
44.770        33
44.780        73
44.790        67
44.800        33
44.810        40
44.820        40
44.830        27
44.840        27
44.850        53
44.860        73
44.870        60
44.880        40
44.890        13
44.900        20
44.910        47
44.920        60
44.930        60
44.940        47
44.950        60
44.960        60
44.970        47
44.980        47
44.990        40
45.000        60
45.010        60
45.020        33
45.030        27
45.040        67
45.050        87
45.060        73
45.070        60
45.080        33
45.090        40
45.100        87
45.110        67
45.120        80
45.130        53
45.140        67
45.150        20
45.160        67
45.170        40
45.180        53
45.190        60
45.200        60
45.210        60
45.220        40
45.230        53
45.240        80
45.250        67
45.260        73
45.270        53
45.280       100
45.290        53
45.300        93
45.310       100
45.320        87
45.330       107
45.340       140
45.350        80
45.360        73
45.370        80
45.380       100
45.390       140
45.400        80
45.410        80
45.420       113
45.430       100
45.440        73
45.450       100
45.460       127
45.470        93
45.480       147
45.490       113
45.500       193
45.510       140
45.520       140
45.530        93
45.540       173
45.550       127
45.560        93
45.570       200
45.580       100
45.590       180
45.600       193
45.610       213
45.620       180
45.630       213
45.640       147
45.650       233
45.660       280
45.670       193
45.680       273
45.690       267
45.700       340
45.710       227
45.720       413
45.730       247
45.740       280
45.750       313
45.760       327
45.770       300
45.780       287
45.790       260
45.800       340
45.810       407
45.820       426
45.830       453
45.840       420
45.850       433
45.860       426
45.870       420
45.880       473
45.890       493
45.900       673
45.910       606
45.920       626
45.930       646
45.940       713
45.950       586
45.960       680
45.970       760
45.980       673
45.990       720
46.000       713
46.010       840
46.020       900
46.030       833
46.040       693
46.050       960
46.060       920
46.070       973
46.080       980
46.090      1013
46.100      1033
46.110      1120
46.120      1200
46.130      1006
46.140      1066
46.150       960
46.160      1006
46.170      1073
46.180       920
46.190      1213
46.200      1160
46.210      1053
46.220      1100
46.230      1153
46.240      1253
46.250      1253
46.260       980
46.270      1126
46.280      1173
46.290      1153
46.300      1026
46.310      1233
46.320      1080
46.330      1086
46.340       913
46.350      1126
46.360      1113
46.370      1046
46.380       953
46.390       973
46.400      1033
46.410       926
46.420       793
46.430       960
46.440       766
46.450       880
46.460       746
46.470       793
46.480       840
46.490       693
46.500       726
46.510       760
46.520       766
46.530       620
46.540       640
46.550       606
46.560       733
46.570       700
46.580       666
46.590       613
46.600       553
46.610       520
46.620       446
46.630       540
46.640       440
46.650       407
46.660       440
46.670       353
46.680       446
46.690       407
46.700       387
46.710       380
46.720       347
46.730       407
46.740       273
46.750       213
46.760       213
46.770       260
46.780       267
46.790       260
46.800       207
46.810       173
46.820       320
46.830       253
46.840       240
46.850       233
46.860       260
46.870       140
46.880       193
46.890       193
46.900       200
46.910       193
46.920       213
46.930        80
46.940       113
46.950       120
46.960       107
46.970       133
46.980       120
46.990       120
47.000       160
47.010       113
47.020       120
47.030       147
47.040       160
47.050       127
47.060       133
47.070       107
47.080       107
47.090        67
47.100       113
47.110       107
47.120       120
47.130       120
47.140       100
47.150       107
47.160        67
47.170        53
47.180       140
47.190        73
47.200        87
47.210        73
47.220        60
47.230        87
47.240        73
47.250        60
47.260        67
47.270        93
47.280        53
47.290        73
47.300        53
47.310        80
47.320        60
47.330        93
47.340        80
47.350        53
47.360        33
47.370        60
47.380        53
47.390        67
47.400        47
47.410        27
47.420        33
47.430        67
47.440        27
47.450        53
47.460        67
47.470        47
47.480        53
47.490        40
47.500        33
47.510        27
47.520        60
47.530        40
47.540        33
47.550        53
47.560        40
47.570        27
47.580        40
47.590        27
47.600        47
47.610        53
47.620        33
47.630        33
47.640        47
47.650        20
47.660        40
47.670        53
47.680        40
47.690        67
47.700        27
47.710        53
47.720        40
47.730        53
47.740        47
47.750        47
47.760        33
47.770        53
47.780        47
47.790        27
47.800        40
47.810        33
47.820        40
47.830        20
47.840        40
47.850        60
47.860        20
47.870        27
47.880        20
47.890        53
47.900        47
47.910        67
47.920        20
47.930        33
47.940        47
47.950        47
47.960        73
47.970        33
47.980        60
47.990        27
48.000        13
48.010         0
48.020        20
48.030        27
48.040        13
48.050        27
48.060        47
48.070        27
48.080        27
48.090        33
48.100        47
48.110         7
48.120        13
48.130        27
48.140        20
48.150        27
48.160        47
48.170        47
48.180        13
48.190        33
48.200        47
48.210        27
48.220        40
48.230        93
48.240        27
48.250        47
48.260        13
48.270        13
48.280        20
48.290        47
48.300        53
48.310        13
48.320        40
48.330        47
48.340        40
48.350        27
48.360        20
48.370        27
48.380        27
48.390        27
48.400        53
48.410        20
48.420        27
48.430        33
48.440        33
48.450        33
48.460        20
48.470        33
48.480        20
48.490         7
48.500        20
48.510        40
48.520        13
48.530        27
48.540        27
48.550         7
48.560         7
48.570        40
48.580        67
48.590        13
48.600        33
48.610        47
48.620        53
48.630        33
48.640         7
48.650        33
48.660        13
48.670        20
48.680        47
48.690        27
48.700        13
48.710        27
48.720        27
48.730        27
48.740        20
48.750        33
48.760        13
48.770        40
48.780        60
48.790        40
48.800        20
48.810        40
48.820        53
48.830        13
48.840        27
48.850        13
48.860        13
48.870         7
48.880        20
48.890        27
48.900         0
48.910        13
48.920        27
48.930        40
48.940         0
48.950        27
48.960        40
48.970         7
48.980        20
48.990        27
49.000         0
49.010        13
49.020        33
49.030        47
49.040        33
49.050        53
49.060        27
49.070        40
49.080        20
49.090        40
49.100        20
49.110         0
49.120        20
49.130        33
49.140        13
49.150        20
49.160        27
49.170        47
49.180        33
49.190        47
49.200        13
49.210        33
49.220        27
49.230        27
49.240        20
49.250        20
49.260        13
49.270        40
49.280        27
49.290        13
49.300        27
49.310        40
49.320        27
49.330        47
49.340        33
49.350        27
49.360         7
49.370        13
49.380        33
49.390        40
49.400         7
49.410         7
49.420        27
49.430        33
49.440        13
49.450        27
49.460        27
49.470        33
49.480        47
49.490        40
49.500        13
49.510        33
49.520        20
49.530        13
49.540        20
49.550        13
49.560        40
49.570        13
49.580         7
49.590        33
49.600        13
49.610        53
49.620        27
49.630        40
49.640        33
49.650        27
49.660        33
49.670        13
49.680        33
49.690        47
49.700        20
49.710        20
49.720        13
49.730        27
49.740        27
49.750        27
49.760        27
49.770        27
49.780        33
49.790        27
49.800         7
49.810        47
49.820         7
49.830        60
49.840        27
49.850        27
49.860        13
49.870         7
49.880        27
49.890        40
49.900        13
49.910        13
49.920        20
49.930         7
49.940        33
49.950        20
49.960        13
49.970        20
49.980        20
49.990         0
50.000        13
50.010        33
50.020        13
50.030         7
50.040        13
50.050        47
50.060        20
50.070        27
50.080        47
50.090        27
50.100        33
50.110        13
50.120        27
50.130        20
50.140        13
50.150        27
50.160        13
50.170        27
50.180         7
50.190        13
50.200        60
50.210         7
50.220        33
50.230         7
50.240        27
50.250        20
50.260        33
50.270        27
50.280        13
50.290         7
50.300        13
50.310        27
50.320        20
50.330        13
50.340         7
50.350        33
50.360        27
50.370        20
50.380         7
50.390        13
50.400        20
50.410        20
50.420        27
50.430        33
50.440        13
50.450         7
50.460        20
50.470         7
50.480        27
50.490        20
50.500        20
50.510        13
50.520        20
50.530        13
50.540        20
50.550        33
50.560        13
50.570        20
50.580        13
50.590        60
50.600        20
50.610        13
50.620         7
50.630        27
50.640        33
50.650        27
50.660        20
50.670        33
50.680        33
50.690        13
50.700        33
50.710         0
50.720        27
50.730        13
50.740        20
50.750        13
50.760        33
50.770        33
50.780         7
50.790        13
50.800        20
50.810        13
50.820        27
50.830        20
50.840         0
50.850        33
50.860         7
50.870        27
50.880        13
50.890        27
50.900        13
50.910        27
50.920        13
50.930        40
50.940        13
50.950        20
50.960        27
50.970        27
50.980        40
50.990         0
51.000        20
51.010        20
51.020        13
51.030        13
51.040        13
51.050        27
51.060        13
51.070        40
51.080        27
51.090         7
51.100         7
51.110        13
51.120        27
51.130         0
51.140        20
51.150        13
51.160         7
51.170        13
51.180        20
51.190         7
51.200        33
51.210        20
51.220        20
51.230         7
51.240        20
51.250        20
51.260        20
51.270         0
51.280        27
51.290        20
51.300         7
51.310         0
51.320        13
51.330        40
51.340         7
51.350        13
51.360        20
51.370         7
51.380         7
51.390        20
51.400        33
51.410        33
51.420        20
51.430        27
51.440        13
51.450         7
51.460        20
51.470        13
51.480        20
51.490        20
51.500        27
51.510        20
51.520        27
51.530        27
51.540        40
51.550        13
51.560        27
51.570        20
51.580        27
51.590         7
51.600        27
51.610        20
51.620        13
51.630        20
51.640        27
51.650        13
51.660        20
51.670         7
51.680        13
51.690         7
51.700        33
51.710        13
51.720         7
51.730        33
51.740        20
51.750        20
51.760        27
51.770         7
51.780         7
51.790        13
51.800        27
51.810        13
51.820         7
51.830         7
51.840        13
51.850        13
51.860        13
51.870        13
51.880        27
51.890        13
51.900        20
51.910        33
51.920        13
51.930         7
51.940        13
51.950        27
51.960         0
51.970        20
51.980         7
51.990        20
52.000        27
52.010        27
52.020        40
52.030        13
52.040        20
52.050        33
52.060        20
52.070        13
52.080         7
52.090        13
52.100         7
52.110        20
52.120        20
52.130        20
52.140        13
52.150        13
52.160        13
52.170        13
52.180        13
52.190        13
52.200        27
52.210         7
52.220        33
52.230         0
52.240        13
52.250        20
52.260        60
52.270        20
52.280        27
52.290         7
52.300        20
52.310        33
52.320        13
52.330        33
52.340        20
52.350        27
52.360        33
52.370        13
52.380        20
52.390        20
52.400        33
52.410        33
52.420        20
52.430        13
52.440        13
52.450        33
52.460        27
52.470        27
52.480        40
52.490        20
52.500        20
52.510        53
52.520        33
52.530       107
52.540        87
52.550       100
52.560       140
52.570        67
52.580       100
52.590       120
52.600        20
52.610        60
52.620        40
52.630        13
52.640        33
52.650        33
52.660        20
52.670        40
52.680        73
52.690        73
52.700        33
52.710        67
52.720        73
52.730        73
52.740        27
52.750        33
52.760        20
52.770        20
52.780        13
52.790        13
52.800        27
52.810         7
52.820        27
52.830        20
52.840        20
52.850        27
52.860        20
52.870        27
52.880        20
52.890        13
52.900        20
52.910         0
52.920        33
52.930        20
52.940         7
52.950        13
52.960        20
52.970        13
52.980        20
52.990        27
53.000        20
53.010        13
53.020        13
53.030         0
53.040        20
53.050        13
53.060        13
53.070        13
53.080        33
53.090        33
53.100        13
53.110        20
53.120        33
53.130        13
53.140        27
53.150        13
53.160        47
53.170        13
53.180        27
53.190        13
53.200         7
53.210         7
53.220         7
53.230        20
53.240        13
53.250        13
53.260        33
53.270         0
53.280         7
53.290         7
53.300        20
53.310        20
53.320         7
53.330        13
53.340        53
53.350        20
53.360        13
53.370         7
53.380        27
53.390        27
53.400        13
53.410        47
53.420        13
53.430        20
53.440        20
53.450        13
53.460        13
53.470        13
53.480        13
53.490         7
53.500        33
53.510        20
53.520        13
53.530        20
53.540        33
53.550         7
53.560        13
53.570         7
53.580         7
53.590        13
53.600        13
53.610        27
53.620        13
53.630        47
53.640        20
53.650        20
53.660         7
53.670        33
53.680        27
53.690        33
53.700        20
53.710        13
53.720         7
53.730        20
53.740        27
53.750         0
53.760         0
53.770         7
53.780         7
53.790         0
53.800        20
53.810        20
53.820        27
53.830         7
53.840        13
53.850        27
53.860         0
53.870        27
53.880        13
53.890        13
53.900        20
53.910        13
53.920        20
53.930        20
53.940        20
53.950         0
53.960        40
53.970        27
53.980         7
53.990         7
54.000         7
54.010        27
54.020         7
54.030        20
54.040        20
54.050        13
54.060        20
54.070        20
54.080        33
54.090        27
54.100        33
54.110        27
54.120        13
54.130        20
54.140         0
54.150        27
54.160        13
54.170        27
54.180        13
54.190        20
54.200        13
54.210         7
54.220        13
54.230        20
54.240         7
54.250        33
54.260        27
54.270        20
54.280        20
54.290        13
54.300        20
54.310        13
54.320         0
54.330         7
54.340        20
54.350        13
54.360        27
54.370        13
54.380        13
54.390        13
54.400        13
54.410        20
54.420        13
54.430        27
54.440         0
54.450         7
54.460        33
54.470         7
54.480        33
54.490        20
54.500        13
54.510         7
54.520         7
54.530         7
54.540        33
54.550        13
54.560        13
54.570        33
54.580         7
54.590        13
54.600        20
54.610         7
54.620        40
54.630         7
54.640        13
54.650         7
54.660        33
54.670        13
54.680         7
54.690         0
54.700        53
54.710        27
54.720        20
54.730        20
54.740         0
54.750        27
54.760         7
54.770        13
54.780        33
54.790        27
54.800        13
54.810         7
54.820        13
54.830         0
54.840        47
54.850         7
54.860        27
54.870        40
54.880         7
54.890        13
54.900        33
54.910        13
54.920        27
54.930        27
54.940        13
54.950        13
54.960         0
54.970        40
54.980         7
54.990         7
55.000        20
55.010        13
55.020        33
55.030        20
55.040        20
55.050        13
55.060        13
55.070        20
55.080         7
55.090        40
55.100        47
55.110        33
55.120         0
55.130        13
55.140         0
55.150        33
55.160        33
55.170         7
55.180        13
55.190        33
55.200        13
55.210         7
55.220        27
55.230        27
55.240        40
55.250        13
55.260         7
55.270        27
55.280         0
55.290         7
55.300         7
55.310         7
55.320        13
55.330         7
55.340        13
55.350        20
55.360        27
55.370        13
55.380         7
55.390        13
55.400        33
55.410        27
55.420        27
55.430        13
55.440        13
55.450         7
55.460        13
55.470        13
55.480        27
55.490        13
55.500         0
55.510        33
55.520        33
55.530        33
55.540        20
55.550        20
55.560         7
55.570        27
55.580         7
55.590        27
55.600        27
55.610         7
55.620         7
55.630        27
55.640        13
55.650        33
55.660        13
55.670        13
55.680        40
55.690        13
55.700        33
55.710        20
55.720        27
55.730         0
55.740        13
55.750        13
55.760         0
55.770         0
55.780         7
55.790        13
55.800        27
55.810        13
55.820        20
55.830        20
55.840        20
55.850        13
55.860        13
55.870        27
55.880         7
55.890        13
55.900         7
55.910        27
55.920        13
55.930        27
55.940         7
55.950        27
55.960         7
55.970        13
55.980         7
55.990        20
56.000         0
56.010        27
56.020        13
56.030         7
56.040        13
56.050        13
56.060         0
56.070        20
56.080        27
56.090        20
56.100         0
56.110         7
56.120        13
56.130         7
56.140         7
56.150         7
56.160        20
56.170        47
56.180        13
56.190        13
56.200         7
56.210        33
56.220        13
56.230        20
56.240         7
56.250        27
56.260        13
56.270        13
56.280         7
56.290        13
56.300         7
56.310        20
56.320        33
56.330         0
56.340        13
56.350        27
56.360         7
56.370        20
56.380         7
56.390        20
56.400         7
56.410        13
56.420         7
56.430         7
56.440        40
56.450        33
56.460         7
56.470         7
56.480         0
56.490        27
56.500         7
56.510        13
56.520         7
56.530        33
56.540        20
56.550        27
56.560        20
56.570        33
56.580        27
56.590        20
56.600         7
56.610        13
56.620        47
56.630        27
56.640        13
56.650         7
56.660        13
56.670         7
56.680        13
56.690        13
56.700         0
56.710         7
56.720        13
56.730        20
56.740        20
56.750        20
56.760        20
56.770         7
56.780         7
56.790        27
56.800        33
56.810         7
56.820         7
56.830         7
56.840        40
56.850         7
56.860        27
56.870         7
56.880        13
56.890         7
56.900        20
56.910        20
56.920         7
56.930        20
56.940        40
56.950         0
56.960        13
56.970        27
56.980         7
56.990        27
57.000         7
57.010         0
57.020        13
57.030        20
57.040        13
57.050        27
57.060         0
57.070        13
57.080        40
57.090        20
57.100        13
57.110        20
57.120        13
57.130        13
57.140        20
57.150        13
57.160         7
57.170        13
57.180        13
57.190        27
57.200        33
57.210         7
57.220         7
57.230        27
57.240        27
57.250        40
57.260        47
57.270        20
57.280        27
57.290        27
57.300        20
57.310        33
57.320        20
57.330        20
57.340        20
57.350        13
57.360        40
57.370        27
57.380        27
57.390        47
57.400        40
57.410        60
57.420        33
57.430        60
57.440        53
57.450        73
57.460       100
57.470       100
57.480       227
57.490       253
57.500       460
57.510       526
57.520       493
57.530       640
57.540       540
57.550       433
57.560       413
57.570       293
57.580       287
57.590       173
57.600       173
57.610        93
57.620       133
57.630        73
57.640       107
57.650       147
57.660       273
57.670       320
57.680       353
57.690       333
57.700       367
57.710       287
57.720       180
57.730       213
57.740       100
57.750        73
57.760       107
57.770        33
57.780        33
57.790        40
57.800        60
57.810        73
57.820        67
57.830        20
57.840        20
57.850         7
57.860        40
57.870        27
57.880        40
57.890        20
57.900        27
57.910        33
57.920        53
57.930        33
57.940        53
57.950        20
57.960        20
57.970        20
57.980        13
57.990        33
58.000        27
58.010        47
58.020        33
58.030        20
58.040        33
58.050        27
58.060        53
58.070        27
58.080        20
58.090         0
58.100        20
58.110         7
58.120        33
58.130        27
58.140         7
58.150        13
58.160         7
58.170        33
58.180         7
58.190        20
58.200        20
58.210         7
58.220        40
58.230        27
58.240        20
58.250        20
58.260         7
58.270        20
58.280        20
58.290        13
58.300        20
58.310        20
58.320        27
58.330        13
58.340         7
58.350        20
58.360        13
58.370         7
58.380        20
58.390        13
58.400        13
58.410        20
58.420        20
58.430         7
58.440        13
58.450        13
58.460         7
58.470        20
58.480         0
58.490        13
58.500         7
58.510        27
58.520         7
58.530        13
58.540         7
58.550         7
58.560         0
58.570        20
58.580        20
58.590         7
58.600        20
58.610        20
58.620        20
58.630         7
58.640         7
58.650         7
58.660         0
58.670        13
58.680        27
58.690        13
58.700        20
58.710        13
58.720        13
58.730         7
58.740         0
58.750        20
58.760         7
58.770        20
58.780        33
58.790        13
58.800         7
58.810        27
58.820        13
58.830        13
58.840         7
58.850        13
58.860        13
58.870        27
58.880         0
58.890         7
58.900        20
58.910        20
58.920        27
58.930        20
58.940         0
58.950        13
58.960        33
58.970         0
58.980        20
58.990        13
59.000         7
59.010        33
59.020         7
59.030        13
59.040         0
59.050        20
59.060        13
59.070        27
59.080         7
59.090         0
59.100        13
59.110        20
59.120        33
59.130        20
59.140         7
59.150        27
59.160         0
59.170         7
59.180        13
59.190        27
59.200        20
59.210        20
59.220         7
59.230         7
59.240        27
59.250        13
59.260         0
59.270         0
59.280        13
59.290        13
59.300        13
59.310        20
59.320         7
59.330         7
59.340        27
59.350        27
59.360         7
59.370        13
59.380        13
59.390         7
59.400         7
59.410         0
59.420        20
59.430        13
59.440        33
59.450        13
59.460        20
59.470        20
59.480        20
59.490        13
59.500         7
59.510         7
59.520         7
59.530        20
59.540         7
59.550        33
59.560         7
59.570        13
59.580        27
59.590        20
59.600        20
59.610        13
59.620        13
59.630         0
59.640        47
59.650         7
59.660        27
59.670        13
59.680        27
59.690         7
59.700         0
59.710        33
59.720        20
59.730        13
59.740         7
59.750         0
59.760        20
59.770         0
59.780        20
59.790        20
59.800        13
59.810        13
59.820        27
59.830         7
59.840         7
59.850         0
59.860        27
59.870         7
59.880        13
59.890         7
59.900        13
59.910         7
59.920         7
59.930        20
59.940         7
59.950        13
59.960        27
59.970        27
59.980        13
59.990         0
60.000         0
