20.000        13
20.010        13
20.020        27
20.030        47
20.040        47
20.050        40
20.060        47
20.070        40
20.080        27
20.090        20
20.100        53
20.110        13
20.120        33
20.130        67
20.140        47
20.150        33
20.160        40
20.170        47
20.180        47
20.190        60
20.200        53
20.210        33
20.220        60
20.230        20
20.240        53
20.250        53
20.260         7
20.270        40
20.280        67
20.290        27
20.300        27
20.310        67
20.320        27
20.330        33
20.340        67
20.350        53
20.360        53
20.370        20
20.380        40
20.390        40
20.400        53
20.410        53
20.420        47
20.430        53
20.440        53
20.450        33
20.460        53
20.470        67
20.480        47
20.490        53
20.500        27
20.510        33
20.520        40
20.530        40
20.540        47
20.550        27
20.560        47
20.570        20
20.580        33
20.590        33
20.600        33
20.610        47
20.620        67
20.630        47
20.640        33
20.650        33
20.660        20
20.670        20
20.680        60
20.690        53
20.700        33
20.710        33
20.720        27
20.730        40
20.740        20
20.750        40
20.760        20
20.770        53
20.780        47
20.790        27
20.800        53
20.810        40
20.820        27
20.830        33
20.840        93
20.850        33
20.860        20
20.870        27
20.880        60
20.890        40
20.900        40
20.910        33
20.920        33
20.930        27
20.940        53
20.950        40
20.960        53
20.970        53
20.980        20
20.990        47
21.000        20
21.010        73
21.020        47
21.030         7
21.040        27
21.050        67
21.060        20
21.070        80
21.080        13
21.090        60
21.100        60
21.110        33
21.120        33
21.130        27
21.140        33
21.150        20
21.160        40
21.170        60
21.180        47
21.190        20
21.200        53
21.210        40
21.220        60
21.230        33
21.240        27
21.250        53
21.260        33
21.270        67
21.280        67
21.290        20
21.300        53
21.310        47
21.320        47
21.330        40
21.340        60
21.350        27
21.360        53
21.370        33
21.380        27
21.390        27
21.400        27
21.410        27
21.420        33
21.430        47
21.440        40
21.450        47
21.460        27
21.470        27
21.480        53
21.490        60
21.500        67
21.510        27
21.520        47
21.530        67
21.540        13
21.550        27
21.560        47
21.570        47
21.580        47
21.590        47
21.600        40
21.610        27
21.620        67
21.630        47
21.640        27
21.650        27
21.660        67
21.670        47
21.680        40
21.690        60
21.700        27
21.710        47
21.720        33
21.730        40
21.740        33
21.750        60
21.760        20
21.770        13
21.780        60
21.790        40
21.800        13
21.810        73
21.820        40
21.830        33
21.840        13
21.850        40
21.860        73
21.870        47
21.880        67
21.890        87
21.900        67
21.910        40
21.920        20
21.930        20
21.940        40
21.950        40
21.960        53
21.970        20
21.980        60
21.990        20
22.000        13
22.010        27
22.020         7
22.030        27
22.040        33
22.050        20
22.060        27
22.070        47
22.080        20
22.090        33
22.100        47
22.110        47
22.120        67
22.130        40
22.140        60
22.150        87
22.160        20
22.170        47
22.180        27
22.190        53
22.200        40
22.210        67
22.220        40
22.230        47
22.240        87
22.250        67
22.260        40
22.270        47
22.280        80
22.290        60
22.300       113
22.310        47
22.320       100
22.330        87
22.340        87
22.350        93
22.360       100
22.370        73
22.380        93
22.390       133
22.400       107
22.410       100
22.420       107
22.430        93
22.440       147
22.450       127
22.460       220
22.470       140
22.480       160
22.490       180
22.500       240
22.510       153
22.520       180
22.530       233
22.540       327
22.550       253
22.560       247
22.570       193
22.580       260
22.590       200
22.600       280
22.610       260
22.620       233
22.630       300
22.640       273
22.650       187
22.660       300
22.670       227
22.680       260
22.690       287
22.700       133
22.710       187
22.720       213
22.730       240
22.740       180
22.750       187
22.760       167
22.770       193
22.780       200
22.790       207
22.800       180
22.810       147
22.820       107
22.830       127
22.840       153
22.850        53
22.860       153
22.870       107
22.880        67
22.890       107
22.900       147
22.910        93
22.920        73
22.930       107
22.940       113
22.950        87
22.960       127
22.970        73
22.980       100
22.990       100
23.000        47
23.010        67
23.020        53
23.030        73
23.040        60
23.050        80
23.060        53
23.070       100
23.080       100
23.090        67
23.100        60
23.110        73
23.120       113
23.130        53
23.140        47
23.150        53
23.160        73
23.170        73
23.180        33
23.190        80
23.200        47
23.210        53
23.220        53
23.230        27
23.240        40
23.250        73
23.260        47
23.270        73
23.280        87
23.290        67
23.300        60
23.310        67
23.320        27
23.330        60
23.340        40
23.350        60
23.360        47
23.370        20
23.380        33
23.390        33
23.400        33
23.410        47
23.420        40
23.430        53
23.440        87
23.450        47
23.460        20
23.470        33
23.480        47
23.490        20
23.500        47
23.510        40
23.520        60
23.530        27
23.540        60
23.550        40
23.560        53
23.570        80
23.580        47
23.590        80
23.600        93
23.610        40
23.620        40
23.630        67
23.640        53
23.650        73
23.660        73
23.670        53
23.680        53
23.690        27
23.700        47
23.710        33
23.720        53
23.730        80
23.740        53
23.750        40
23.760        67
23.770        60
23.780        40
23.790        27
23.800        33
23.810        67
23.820        53
23.830        47
23.840        40
23.850        33
23.860        53
23.870        27
23.880        40
23.890        47
23.900        40
23.910        53
23.920        40
23.930        27
23.940        33
23.950        27
23.960        87
23.970        33
23.980        40
23.990        47
24.000        27
24.010        33
24.020        47
24.030        60
24.040        53
24.050        27
24.060        40
24.070        80
24.080        33
24.090        33
24.100        60
24.110        27
24.120        33
24.130        87
24.140        47
24.150        60
24.160        47
24.170        33
24.180        53
24.190        27
24.200        27
24.210        33
24.220        53
24.230        20
24.240        13
24.250        20
24.260        47
24.270        27
24.280        47
24.290        33
24.300        33
24.310        27
24.320        53
24.330        67
24.340        73
24.350        60
24.360        40
24.370        20
24.380        20
24.390        27
24.400        20
24.410        13
24.420        33
24.430        33
24.440        27
24.450        27
24.460        47
24.470        13
24.480        27
24.490        27
24.500        27
24.510        47
24.520        20
24.530         7
24.540        40
24.550        53
24.560        40
24.570        13
24.580        87
24.590        27
24.600        47
24.610        20
24.620        20
24.630        33
24.640        53
24.650        53
24.660        40
24.670        27
24.680        53
24.690        40
24.700        20
24.710        27
24.720        47
24.730        47
24.740        53
24.750        27
24.760         7
24.770        27
24.780        47
24.790        20
24.800        20
24.810        47
24.820        60
24.830        27
24.840        53
24.850        47
24.860        40
24.870        53
24.880        27
24.890        13
24.900         7
24.910        47
24.920        40
24.930        40
24.940        47
24.950        27
24.960        60
24.970        53
24.980        33
24.990        40
25.000        40
25.010        33
25.020        47
25.030        53
25.040        60
25.050        53
25.060        47
25.070        13
25.080        40
25.090        67
25.100        47
25.110        27
25.120        40
25.130        40
25.140        60
25.150        60
25.160         7
25.170        20
25.180        73
25.190        33
25.200        47
25.210        67
25.220        47
25.230        73
25.240       113
25.250       147
25.260       180
25.270       167
25.280       260
25.290       320
25.300       347
25.310       340
25.320       473
25.330       520
25.340       333
25.350       446
25.360       420
25.370       513
25.380       380
25.390       413
25.400       360
25.410       387
25.420       293
25.430       240
25.440       167
25.450       187
25.460       200
25.470       207
25.480       113
25.490       167
25.500       133
25.510       153
25.520       140
25.530        87
25.540       133
25.550        93
25.560       180
25.570       133
25.580       187
25.590       227
25.600       240
25.610       247
25.620       207
25.630       253
25.640       120
25.650       213
25.660       233
25.670       213
25.680       213
25.690       173
25.700       113
25.710       113
25.720       140
25.730        73
25.740       100
25.750        73
25.760        33
25.770        33
25.780        87
25.790        60
25.800        53
25.810        47
25.820        67
25.830        80
25.840        47
25.850        27
25.860        60
25.870        47
25.880        20
25.890        13
25.900        60
25.910        27
25.920        47
25.930        40
25.940        33
25.950        40
25.960        53
25.970        40
25.980        40
25.990        40
26.000        53
26.010        27
26.020        20
26.030        60
26.040        33
26.050        33
26.060        47
26.070        47
26.080        67
26.090        27
26.100        40
26.110        20
26.120        60
26.130        33
26.140        40
26.150        27
26.160        20
26.170        27
26.180        40
26.190        27
26.200        47
26.210        27
26.220        47
26.230        40
26.240        40
26.250        73
26.260        40
26.270        80
26.280         7
26.290        40
26.300        53
26.310        67
26.320        40
26.330        47
26.340        33
26.350        33
26.360        33
26.370        27
26.380        53
26.390        33
26.400        33
26.410        13
26.420        40
26.430        47
26.440        33
26.450        27
26.460        67
26.470        27
26.480        40
26.490        27
26.500        40
26.510        47
26.520        27
26.530        27
26.540        60
26.550        13
26.560        53
26.570        27
26.580        27
26.590        27
26.600        33
26.610        40
26.620        73
26.630        53
26.640        67
26.650        27
26.660        20
26.670        47
26.680        27
26.690        33
26.700        53
26.710        33
26.720        20
26.730        20
26.740        80
26.750        27
26.760        40
26.770        47
26.780        27
26.790        47
26.800        27
26.810        27
26.820        53
26.830        53
26.840        27
26.850        27
26.860        13
26.870        20
26.880        33
26.890        73
26.900        27
26.910        67
26.920        47
26.930        40
26.940        13
26.950        53
26.960        40
26.970        60
26.980        27
26.990        67
27.000        27
27.010        47
27.020        33
27.030        33
27.040        40
27.050        27
27.060        53
27.070        13
27.080        53
27.090        27
27.100        93
27.110        27
27.120        27
27.130        27
27.140        53
27.150        33
27.160        40
27.170        20
27.180        40
27.190        13
27.200        40
27.210        53
27.220        53
27.230         7
27.240        40
27.250        33
27.260        20
27.270        47
27.280        40
27.290        67
27.300        13
27.310        60
27.320        20
27.330        60
27.340        47
27.350        33
27.360        47
27.370        20
27.380        47
27.390        40
27.400         7
27.410        47
27.420        47
27.430        27
27.440        67
27.450        27
27.460        80
27.470        33
27.480        33
27.490        13
27.500        13
27.510        33
27.520        40
27.530        40
27.540        40
27.550        40
27.560        13
27.570        53
27.580        47
27.590        67
27.600        20
27.610        60
27.620        47
27.630        27
27.640        27
27.650        33
27.660         7
27.670        40
27.680        27
27.690        27
27.700        20
27.710        47
27.720        33
27.730        47
27.740        40
27.750        53
27.760        60
27.770        60
27.780        40
27.790        27
27.800        40
27.810        40
27.820        40
27.830        53
27.840        27
27.850        20
27.860        47
27.870        20
27.880        53
27.890        47
27.900        40
27.910        33
27.920        27
27.930        40
27.940        13
27.950        13
27.960         7
27.970        53
27.980         7
27.990        40
28.000        40
28.010        33
28.020         7
28.030        47
28.040        33
28.050        33
28.060        33
28.070        40
28.080        33
28.090        27
28.100        40
28.110        20
28.120        13
28.130        27
28.140        27
28.150        40
28.160        40
28.170        47
28.180        13
28.190        20
28.200        47
28.210        20
28.220        60
28.230        13
28.240        53
28.250        27
28.260        27
28.270        47
28.280        47
28.290        20
28.300        33
28.310        40
28.320        40
28.330        33
28.340        33
28.350        27
28.360        40
28.370         7
28.380        47
28.390        40
28.400        13
28.410        20
28.420        40
28.430        27
28.440        20
28.450        60
28.460        27
28.470        53
28.480        20
28.490        27
28.500        13
28.510        33
28.520        33
28.530        33
28.540        47
28.550        47
28.560        20
28.570        13
28.580        67
28.590        33
28.600        13
28.610        33
28.620        60
28.630        73
28.640        40
28.650        27
28.660        60
28.670        33
28.680        47
28.690        27
28.700        40
28.710        33
28.720        27
28.730        47
28.740        67
28.750        53
28.760        33
28.770        33
28.780        40
28.790        27
28.800        47
28.810        53
28.820        20
28.830        33
28.840        13
28.850        13
28.860        20
28.870        73
28.880        40
28.890        27
28.900        33
28.910        20
28.920        40
28.930        53
28.940        27
28.950        27
28.960        40
28.970        60
28.980        20
28.990        20
29.000        27
29.010        40
29.020        20
29.030        53
29.040        33
29.050        40
29.060        20
29.070        47
29.080        33
29.090        47
29.100        53
29.110        40
29.120        40
29.130        27
29.140        40
29.150        27
29.160        27
29.170        20
29.180        40
29.190        33
29.200        27
29.210        13
29.220        67
29.230        13
29.240        80
29.250        33
29.260        47
29.270        40
29.280         7
29.290        27
29.300        40
29.310        20
29.320        20
29.330        33
29.340        40
29.350        33
29.360        53
29.370        27
29.380        47
29.390        33
29.400        47
29.410        33
29.420        40
29.430        20
29.440        33
29.450        60
29.460        27
29.470        13
29.480        27
29.490        33
29.500        53
29.510        47
29.520        53
29.530        20
29.540        27
29.550        47
29.560        47
29.570        33
29.580        40
29.590        20
29.600        27
29.610        20
29.620        27
29.630        20
29.640        40
29.650        40
29.660        53
29.670        27
29.680        33
29.690        20
29.700        20
29.710        40
29.720        40
29.730        47
29.740        27
29.750        33
29.760        13
29.770        27
29.780        47
29.790        40
29.800        33
29.810        47
29.820        47
29.830        40
29.840        13
29.850        33
29.860        47
29.870        33
29.880         7
29.890        20
29.900        33
29.910        27
29.920        27
29.930        27
29.940        27
29.950        40
29.960        53
29.970        20
29.980        47
29.990        20
30.000         7
30.010        33
30.020        40
30.030        33
30.040        40
30.050        20
30.060        40
30.070        27
30.080        27
30.090         7
30.100         7
30.110        27
30.120        60
30.130        60
30.140        13
30.150        27
30.160        27
30.170        13
30.180        40
30.190        13
30.200        20
30.210        33
30.220        33
30.230        27
30.240        40
30.250        53
30.260        27
30.270        33
30.280        47
30.290        13
30.300        60
30.310        20
30.320        40
30.330        40
30.340        13
30.350        33
30.360        67
30.370        60
30.380        27
30.390        33
30.400        53
30.410        47
30.420         7
30.430        20
30.440        40
30.450        27
30.460        13
30.470        13
30.480        20
30.490        33
30.500        27
30.510        33
30.520        33
30.530        27
30.540        47
30.550        13
30.560        20
30.570        27
30.580        67
30.590        33
30.600        27
30.610        33
30.620        33
30.630        33
30.640        27
30.650        33
30.660        27
30.670        53
30.680        40
30.690        27
30.700         0
30.710        60
30.720         7
30.730        20
30.740        47
30.750        20
30.760        33
30.770        20
30.780        27
30.790        27
30.800        60
30.810        33
30.820        20
30.830        33
30.840        13
30.850        40
30.860        27
30.870        33
30.880        40
30.890        47
30.900        27
30.910        33
30.920        13
30.930        20
30.940        53
30.950        13
30.960        47
30.970        27
30.980        33
30.990        33
31.000        60
31.010        40
31.020        40
31.030        20
31.040        40
31.050        20
31.060        53
31.070        27
31.080        60
31.090        20
31.100        40
31.110        47
31.120        33
31.130        33
31.140        33
31.150        47
31.160        40
31.170        20
31.180        40
31.190        20
31.200        27
31.210        60
31.220        33
31.230        40
31.240        33
31.250        60
31.260        53
31.270        27
31.280        40
31.290        27
31.300        53
31.310        33
31.320        33
31.330        20
31.340        47
31.350        20
31.360        47
31.370        40
31.380        40
31.390        53
31.400        40
31.410        20
31.420        40
31.430        40
31.440        13
31.450        47
31.460        40
31.470        40
31.480        13
31.490        33
31.500        53
31.510        60
31.520        27
31.530        40
31.540        67
31.550        53
31.560        40
31.570        60
31.580        33
31.590        53
31.600       100
31.610        40
31.620        53
31.630        73
31.640        47
31.650        27
31.660        20
31.670        53
31.680        73
31.690        27
31.700        53
31.710        53
31.720        73
31.730        47
31.740        47
31.750        27
31.760        13
31.770        47
31.780        20
31.790        93
31.800        67
31.810        67
31.820        53
31.830        67
31.840        47
31.850        47
31.860        47
31.870        47
31.880        60
31.890        33
31.900        33
31.910        67
31.920        93
31.930        73
31.940        93
31.950        33
31.960       100
31.970        60
31.980        40
31.990        60
32.000       113
32.010        87
32.020       133
32.030       113
32.040       113
32.050       133
32.060       120
32.070       133
32.080       107
32.090       153
32.100       100
32.110       167
32.120       167
32.130       160
32.140       200
32.150       167
32.160       180
32.170       153
32.180       187
32.190       200
32.200       213
32.210       293
32.220       287
32.230       247
32.240       293
32.250       347
32.260       413
32.270       426
32.280       313
32.290       353
32.300       460
32.310       353
32.320       307
32.330       420
32.340       433
32.350       526
32.360       460
32.370       393
32.380       353
32.390       446
32.400       380
32.410       293
32.420       387
32.430       373
32.440       446
32.450       400
32.460       373
32.470       360
32.480       300
32.490       213
32.500       353
32.510       267
32.520       267
32.530       287
32.540       233
32.550       213
32.560       147
32.570       193
32.580       173
32.590       213
32.600       247
32.610       207
32.620       120
32.630       147
32.640       187
32.650       113
32.660       120
32.670       100
32.680       120
32.690       140
32.700        80
32.710        87
32.720       100
32.730        60
32.740       120
32.750        87
32.760       100
32.770        67
32.780        67
32.790       107
32.800        73
32.810        60
32.820        33
32.830        60
32.840        53
32.850        33
32.860        60
32.870        73
32.880        60
32.890        20
32.900        27
32.910        47
32.920        40
32.930        60
32.940        47
32.950        27
32.960        47
32.970        20
32.980        53
32.990        67
33.000        73
33.010        47
33.020        47
33.030        60
33.040        60
33.050        40
33.060        40
33.070        60
33.080        53
33.090        33
33.100        40
33.110        47
33.120        40
33.130        33
33.140        13
33.150        27
33.160         7
33.170        40
33.180        27
33.190        33
33.200        27
33.210        20
33.220        53
33.230        47
33.240        27
33.250        40
33.260        13
33.270        20
33.280        33
33.290        20
33.300        67
33.310         7
33.320        40
33.330        53
33.340        67
33.350        13
33.360        13
33.370        20
33.380        20
33.390        20
33.400        33
33.410        27
33.420        47
33.430        60
33.440        27
33.450        33
33.460        20
33.470        13
33.480        20
33.490        20
33.500        67
33.510        27
33.520        27
33.530        40
33.540        33
33.550        67
33.560        27
33.570        33
33.580        13
33.590        33
33.600        20
33.610        53
33.620        40
33.630        40
33.640        27
33.650        27
33.660        47
33.670        33
33.680        47
33.690        27
33.700        33
33.710        27
33.720        33
33.730        33
33.740        33
33.750        20
33.760        40
33.770        33
33.780         0
33.790        20
33.800        33
33.810        40
33.820         7
33.830        20
33.840        33
33.850        27
33.860        20
33.870        13
33.880        27
33.890        27
33.900        27
33.910        27
33.920        27
33.930         0
33.940        47
33.950        27
33.960        27
33.970        33
33.980        20
33.990        20
34.000        40
34.010        40
34.020        27
34.030        27
34.040        47
34.050        40
34.060        33
34.070        13
34.080        27
34.090        40
34.100        33
34.110        13
34.120        73
34.130        20
34.140        33
34.150        27
34.160        27
34.170        33
34.180        40
34.190        13
34.200        20
34.210        20
34.220        20
34.230        47
34.240        20
34.250        13
34.260        60
34.270        33
34.280        27
34.290        13
34.300        67
34.310        27
34.320        33
34.330        27
34.340        20
34.350        27
34.360        20
34.370        20
34.380        53
34.390        13
34.400        13
34.410        60
34.420        40
34.430        27
34.440        47
34.450        20
34.460        40
34.470        20
34.480        40
34.490        20
34.500        33
34.510        27
34.520        20
34.530        40
34.540        40
34.550        33
34.560        27
34.570        13
34.580        60
34.590        27
34.600        13
34.610        27
34.620        20
34.630        33
34.640        27
34.650        27
34.660        53
34.670        20
34.680        47
34.690        27
34.700        33
34.710        33
34.720        20
34.730        27
34.740        33
34.750        13
34.760        40
34.770        40
34.780        20
34.790        73
34.800        20
34.810        20
34.820        27
34.830        47
34.840        60
34.850        27
34.860        40
34.870        53
34.880        40
34.890        27
34.900        33
34.910        47
34.920        27
34.930        47
34.940        13
34.950        33
34.960        40
34.970        40
34.980        33
34.990        13
35.000        53
35.010        47
35.020        20
35.030        33
35.040        40
35.050        33
35.060        47
35.070        20
35.080        40
35.090         7
35.100        13
35.110        40
35.120        27
35.130        20
35.140        27
35.150        33
35.160        33
35.170        20
35.180        33
35.190        20
35.200        27
35.210        27
35.220        13
35.230        67
35.240        13
35.250        20
35.260        27
35.270        33
35.280         0
35.290        40
35.300        20
35.310        33
35.320        40
35.330        27
35.340        53
35.350        33
35.360        53
35.370         7
35.380         7
35.390        20
35.400        13
35.410        20
35.420        13
35.430        20
35.440        13
35.450        13
35.460        20
35.470        33
35.480        13
35.490        27
35.500        13
35.510        13
35.520        27
35.530        13
35.540        40
35.550        33
35.560        20
35.570        47
35.580        13
35.590        33
35.600        47
35.610        13
35.620         7
35.630        20
35.640        33
35.650        20
35.660        20
35.670        20
35.680         0
35.690        53
35.700        13
35.710        13
35.720        20
35.730        13
35.740        33
35.750        27
35.760        33
35.770        33
35.780        20
35.790        13
35.800        27
35.810         7
35.820        20
35.830        20
35.840        13
35.850         7
35.860        13
35.870        33
35.880        13
35.890        27
35.900        40
35.910        53
35.920        20
35.930        40
35.940        13
35.950         0
35.960        40
35.970        20
35.980        27
35.990        27
36.000        33
36.010        33
36.020        53
36.030         7
36.040        47
36.050        13
36.060        20
36.070        33
36.080        40
36.090        33
36.100        20
36.110        47
36.120        27
36.130        27
36.140        40
36.150        27
36.160         7
36.170        47
36.180        13
36.190        13
36.200        47
36.210        27
36.220        20
36.230        40
36.240        20
36.250        27
36.260        40
36.270        47
36.280        33
36.290        13
36.300        40
36.310        27
36.320        27
36.330        47
36.340        27
36.350        20
36.360        20
36.370        27
36.380        20
36.390        20
36.400        20
36.410        47
36.420        13
36.430        27
36.440        20
36.450        33
36.460        20
36.470        27
36.480        13
36.490         0
36.500        33
36.510         0
36.520        13
36.530        33
36.540        20
36.550        40
36.560        33
36.570        60
36.580         7
36.590        27
36.600        47
36.610        53
36.620        27
36.630        20
36.640        40
36.650        33
36.660        53
36.670        33
36.680         0
36.690        20
36.700        47
36.710        20
36.720        33
36.730        27
36.740        13
36.750        20
36.760        53
36.770        40
36.780        33
36.790        33
36.800        20
36.810        27
36.820         7
36.830         7
36.840        40
36.850        27
36.860        13
36.870        27
36.880        20
36.890        53
36.900        20
36.910        13
36.920        13
36.930        13
36.940        27
36.950        27
36.960        33
36.970        27
36.980        27
36.990        40
37.000        27
37.010        20
37.020        53
37.030        20
37.040        27
37.050        33
37.060        27
37.070        13
37.080        60
37.090        27
37.100        27
37.110        13
37.120         7
37.130        53
37.140        40
37.150        13
37.160        20
37.170        20
37.180        13
37.190         0
37.200        27
37.210        47
37.220        67
37.230        27
37.240        60
37.250        20
37.260        20
37.270        33
37.280        27
37.290        33
37.300        27
37.310        13
37.320        40
37.330        20
37.340        27
37.350        20
37.360        13
37.370         7
37.380        40
37.390         7
37.400        27
37.410        33
37.420        33
37.430         7
37.440        27
37.450        60
37.460        20
37.470        33
37.480        27
37.490        13
37.500        33
37.510        40
37.520        40
37.530        20
37.540        20
37.550        20
37.560         7
37.570         7
37.580        13
37.590        20
37.600         7
37.610        20
37.620        40
37.630        53
37.640         7
37.650        80
37.660        13
37.670        27
37.680        40
37.690        13
37.700        20
37.710        33
37.720        33
37.730        27
37.740        13
37.750        33
37.760        33
37.770        13
37.780        33
37.790         0
37.800        13
37.810        20
37.820        53
37.830        47
37.840        20
37.850        13
37.860        27
37.870        27
37.880        20
37.890        33
37.900        13
37.910        20
37.920        27
37.930        47
37.940        33
37.950        33
37.960         0
37.970        40
37.980         7
37.990        47
38.000        33
38.010        13
38.020        33
38.030        33
38.040         7
38.050         7
38.060        13
38.070        13
38.080        20
38.090        33
38.100        40
38.110        33
38.120        40
38.130        20
38.140        40
38.150        33
38.160        20
38.170        27
38.180        53
38.190        13
38.200        20
38.210        20
38.220        20
38.230        13
38.240        20
38.250        13
38.260        40
38.270        33
38.280        27
38.290        20
38.300        53
38.310        33
38.320        40
38.330        27
38.340        20
38.350        40
38.360         7
38.370         7
38.380        20
38.390        13
38.400        13
38.410        20
38.420        33
38.430         7
38.440         7
38.450        27
38.460        20
38.470        20
38.480        20
38.490        13
38.500        13
38.510        27
38.520        33
38.530        13
38.540        47
38.550        27
38.560        33
38.570        20
38.580        13
38.590        47
38.600        20
38.610        13
38.620        13
38.630        27
38.640        33
38.650         7
38.660        20
38.670        20
38.680        47
38.690        13
38.700        33
38.710        53
38.720        20
38.730        27
38.740        27
38.750        20
38.760        27
38.770        53
38.780        27
38.790        13
38.800        20
38.810        40
38.820        13
38.830        20
38.840        20
38.850         7
38.860        33
38.870        20
38.880        67
38.890        33
38.900        27
38.910        20
38.920        33
38.930        27
38.940        47
38.950        27
38.960        13
38.970        33
38.980        13
38.990        20
39.000         7
39.010        13
39.020        40
39.030        13
39.040        13
39.050        20
39.060        20
39.070        13
39.080         7
39.090        13
39.100        20
39.110         7
39.120        20
39.130        47
39.140         7
39.150        47
39.160        27
39.170         0
39.180        13
39.190        40
39.200        27
39.210        20
39.220        40
39.230        20
39.240        20
39.250        13
39.260        40
39.270        40
39.280        27
39.290         7
39.300         7
39.310        13
39.320        20
39.330        40
39.340        20
39.350        40
39.360        47
39.370        27
39.380         7
39.390        13
39.400        40
39.410         7
39.420        27
39.430        27
39.440        20
39.450        13
39.460        47
39.470        47
39.480        20
39.490         7
39.500        13
39.510        47
39.520        27
39.530        60
39.540        27
39.550        20
39.560        20
39.570        13
39.580        13
39.590         7
39.600        13
39.610        27
39.620        13
39.630         7
39.640        13
39.650        13
39.660         0
39.670         7
39.680        13
39.690        20
39.700        60
39.710        33
39.720        40
39.730        33
39.740        47
39.750         7
39.760        27
39.770        40
39.780        20
39.790        27
39.800        33
39.810        33
39.820        27
39.830        27
39.840        20
39.850        47
39.860        33
39.870        27
39.880        20
39.890        13
39.900        60
39.910        20
39.920        27
39.930        27
39.940        40
39.950        33
39.960        33
39.970        20
39.980        13
39.990         7
40.000        13
40.010        47
40.020        20
40.030        47
40.040        20
40.050        33
40.060        27
40.070        40
40.080        47
40.090        33
40.100        27
40.110        13
40.120        33
40.130        27
40.140        47
40.150        27
40.160        13
40.170        27
40.180        33
40.190        13
40.200        47
40.210        13
40.220        13
40.230        27
40.240        20
40.250        33
40.260        13
40.270        20
40.280        47
40.290        47
40.300        33
40.310         7
40.320        20
40.330        20
40.340        20
40.350        20
40.360        53
40.370        27
40.380        27
40.390        27
40.400        20
40.410         7
40.420         0
40.430        33
40.440        40
40.450        40
40.460        27
40.470        27
40.480        27
40.490        47
40.500        33
40.510        20
40.520        20
40.530        13
40.540        20
40.550         7
40.560        27
40.570        27
40.580        27
40.590        27
40.600        20
40.610        27
40.620        40
40.630        47
40.640        40
40.650        20
40.660        40
40.670        27
40.680        13
40.690        33
40.700        20
40.710        13
40.720        13
40.730        27
40.740        13
40.750         7
40.760        20
40.770        47
40.780        27
40.790        27
40.800        33
40.810        20
40.820        13
40.830        33
40.840        33
40.850        20
40.860        20
40.870        13
40.880        13
40.890        60
40.900        27
40.910        20
40.920        20
40.930        20
40.940        40
40.950         7
40.960        13
40.970        13
40.980        20
40.990        40
41.000         0
41.010        27
41.020        40
41.030        47
41.040        40
41.050        33
41.060        20
41.070        27
41.080        20
41.090        27
41.100        13
41.110        33
41.120        33
41.130        40
41.140         7
41.150        27
41.160        27
41.170        27
41.180        13
41.190        33
41.200         0
41.210        27
41.220        13
41.230        20
41.240        33
41.250        40
41.260        53
41.270        20
41.280        80
41.290         0
41.300        33
41.310        20
41.320        60
41.330        27
41.340        13
41.350        20
41.360         0
41.370        33
41.380        40
41.390        53
41.400        27
41.410        40
41.420         7
41.430        40
41.440        67
41.450        13
41.460        47
41.470        33
41.480        33
41.490        40
41.500        40
41.510        40
41.520        20
41.530        47
41.540        33
41.550        27
41.560        33
41.570        33
41.580        67
41.590        20
41.600        27
41.610        67
41.620        33
41.630         7
41.640        13
41.650        27
41.660        47
41.670        13
41.680        13
41.690        47
41.700        20
41.710        27
41.720        53
41.730        33
41.740        40
41.750        53
41.760        27
41.770        33
41.780        33
41.790        27
41.800        27
41.810        33
41.820        40
41.830        40
41.840        20
41.850        33
41.860        27
41.870        33
41.880        13
41.890        27
41.900        33
41.910        27
41.920        33
41.930        20
41.940        13
41.950        47
41.960        27
41.970        13
41.980        47
41.990        33
42.000        27
42.010        13
42.020        27
42.030        27
42.040         0
42.050         7
42.060        20
42.070        20
42.080        13
42.090        33
42.100        27
42.110         0
42.120        27
42.130        33
42.140        20
42.150        47
42.160        20
42.170        33
42.180        33
42.190        33
42.200        20
42.210        13
42.220        20
42.230         0
42.240        33
42.250        20
42.260        13
42.270        13
42.280        27
42.290        13
42.300        33
42.310        27
42.320        20
42.330        20
42.340        40
42.350        40
42.360        13
42.370        27
42.380        33
42.390         7
42.400        20
42.410        13
42.420        40
42.430        53
42.440        20
42.450         0
42.460        60
42.470        13
42.480        13
42.490        33
42.500         7
42.510        27
42.520        27
42.530        27
42.540        27
42.550        20
42.560        20
42.570        33
42.580        13
42.590        47
42.600        40
42.610        40
42.620         7
42.630        40
42.640         7
42.650        40
42.660        33
42.670        13
42.680        40
42.690        20
42.700        20
42.710        13
42.720        27
42.730        20
42.740        33
42.750        40
42.760        27
42.770        20
42.780         0
42.790        20
42.800        13
42.810         7
42.820        13
42.830         7
42.840        33
42.850        13
42.860        20
42.870        27
42.880        20
42.890        13
42.900        13
42.910        33
42.920        27
42.930        33
42.940        20
42.950        40
42.960        20
42.970        33
42.980        20
42.990        27
43.000        33
43.010        27
43.020        33
43.030        13
43.040        27
43.050        40
43.060        27
43.070        40
43.080        13
43.090        33
43.100         7
43.110        20
43.120        13
43.130        13
43.140        40
43.150        40
43.160         7
43.170        27
43.180        53
43.190         7
43.200         7
43.210        20
43.220        20
43.230        27
43.240         7
43.250        27
43.260         7
43.270        33
43.280        33
43.290        20
43.300         7
43.310        40
43.320        33
43.330        27
43.340        13
43.350        20
43.360        13
43.370        20
43.380         7
43.390        13
43.400        40
43.410        13
43.420        20
43.430        33
43.440        40
43.450        47
43.460        33
43.470        27
43.480        20
43.490        53
43.500         7
43.510        27
43.520        27
43.530        33
43.540        33
43.550         7
43.560        13
43.570        27
43.580        33
43.590        40
43.600        67
43.610        13
43.620        20
43.630         7
43.640        53
43.650        27
43.660        27
43.670        27
43.680         7
43.690        13
43.700        33
43.710         7
43.720        33
43.730        33
43.740        33
43.750        13
43.760         0
43.770        47
43.780         0
43.790        13
43.800        13
43.810        13
43.820        47
43.830        27
43.840        20
43.850         7
43.860        47
43.870        47
43.880        40
43.890         7
43.900        33
43.910        27
43.920        27
43.930        27
43.940        13
43.950         7
43.960        20
43.970        40
43.980        27
43.990        27
44.000        60
44.010        27
44.020        13
44.030        67
44.040         7
44.050        60
44.060        33
44.070        27
44.080        27
44.090        13
44.100        27
44.110        33
44.120        33
44.130        40
44.140        27
44.150        20
44.160        53
44.170        40
44.180        13
44.190        33
44.200        53
44.210        20
44.220        53
44.230        20
44.240        33
44.250        13
44.260        47
44.270        80
44.280        20
44.290        27
44.300        47
44.310        40
44.320        33
44.330        27
44.340        53
44.350        73
44.360        67
44.370        27
44.380        20
44.390        20
44.400        73
44.410        20
44.420        40
44.430        20
44.440        47
44.450        60
44.460        33
44.470        60
44.480        47
44.490        47
44.500        40
44.510        53
44.520        47
44.530        53
44.540        33
44.550        33
44.560        33
44.570        60
44.580        40
44.590        53
44.600        60
44.610        60
44.620        40
44.630        73
44.640        47
44.650        47
44.660        47
44.670        53
44.680        67
44.690        53
44.700        40
44.710        33
44.720        40
44.730        47
44.740        87
44.750        60
44.760        47
44.770        67
44.780        73
44.790        93
44.800        53
44.810        47
44.820        60
44.830        73
44.840        93
44.850        53
44.860        87
44.870        53
44.880        73
44.890        73
44.900        47
44.910        60
44.920        53
44.930        33
44.940        80
44.950        93
44.960        73
44.970        73
44.980        73
44.990        47
45.000        60
45.010        73
45.020        93
45.030        93
45.040       113
45.050        73
45.060        87
45.070        67
45.080        93
45.090        80
45.100       113
45.110        80
45.120       127
45.130       100
45.140        80
45.150       100
45.160       100
45.170       120
45.180       120
45.190       100
45.200       153
45.210       107
45.220        87
45.230        87
45.240       113
45.250       107
45.260       160
45.270       153
45.280       140
45.290       133
45.300       173
45.310       120
45.320       147
45.330       147
45.340       107
45.350       127
45.360       180
45.370       200
45.380       180
45.390       173
45.400       193
45.410       247
45.420       187
45.430       207
45.440       187
45.450       193
45.460       187
45.470       233
45.480       167
45.490       193
45.500       273
45.510       187
45.520       313
45.530       353
45.540       307
45.550       313
45.560       420
45.570       240
45.580       320
45.590       393
45.600       407
45.610       327
45.620       387
45.630       420
45.640       426
45.650       307
45.660       407
45.670       367
45.680       513
45.690       500
45.700       526
45.710       613
45.720       573
45.730       540
45.740       540
45.750       653
45.760       586
45.770       666
45.780       686
45.790       786
45.800       826
45.810       726
45.820       833
45.830       893
45.840       886
45.850       860
45.860       946
45.870       973
45.880       986
45.890      1120
45.900      1233
45.910      1126
45.920      1200
45.930      1240
45.940      1286
45.950      1339
45.960      1453
45.970      1506
45.980      1593
45.990      1626
46.000      1759
46.010      1633
46.020      1786
46.030      1866
46.040      1766
46.050      1959
46.060      1919
46.070      1873
46.080      1939
46.090      1953
46.100      2006
46.110      2226
46.120      2239
46.130      2066
46.140      2326
46.150      2186
46.160      2366
46.170      2252
46.180      2172
46.190      2126
46.200      2392
46.210      2259
46.220      2239
46.230      2179
46.240      2392
46.250      2266
46.260      2219
46.270      2372
46.280      2192
46.290      2252
46.300      2192
46.310      2172
46.320      2106
46.330      1906
46.340      2073
46.350      1893
46.360      1973
46.370      1873
46.380      2013
46.390      1759
46.400      1899
46.410      1813
46.420      1546
46.430      1613
46.440      1639
46.450      1653
46.460      1659
46.470      1666
46.480      1419
46.490      1413
46.500      1466
46.510      1293
46.520      1273
46.530      1173
46.540      1180
46.550      1173
46.560      1026
46.570       933
46.580       946
46.590       973
46.600       833
46.610      1033
46.620       920
46.630       833
46.640       833
46.650       933
46.660       793
46.670       826
46.680       740
46.690       633
46.700       646
46.710       540
46.720       800
46.730       500
46.740       566
46.750       593
46.760       546
46.770       493
46.780       533
46.790       520
46.800       466
46.810       413
46.820       360
46.830       446
46.840       353
46.850       373
46.860       380
46.870       413
46.880       293
46.890       380
46.900       353
46.910       313
46.920       240
46.930       293
46.940       240
46.950       347
46.960       267
46.970       240
46.980       253
46.990       293
47.000       207
47.010       253
47.020       227
47.030       260
47.040       320
47.050       167
47.060       213
47.070       240
47.080       193
47.090       213
47.100       253
47.110       220
47.120       293
47.130       207
47.140       180
47.150       200
47.160       287
47.170       320
47.180       347
47.190       333
47.200       367
47.210       227
47.220       347
47.230       207
47.240       153
47.250       173
47.260       167
47.270       193
47.280       173
47.290       160
47.300       147
47.310       107
47.320       133
47.330       153
47.340       113
47.350       100
47.360        87
47.370       147
47.380       113
47.390        73
47.400       140
47.410       140
47.420       107
47.430       127
47.440       147
47.450        60
47.460       107
47.470        93
47.480        93
47.490        93
47.500        87
47.510       107
47.520        73
47.530        73
47.540        60
47.550        47
47.560       127
47.570       107
47.580       120
47.590        87
47.600       153
47.610       127
47.620        80
47.630        67
47.640        73
47.650        73
47.660        53
47.670        40
47.680        47
47.690        73
47.700        80
47.710        60
47.720        87
47.730        67
47.740        53
47.750        87
47.760        87
47.770        67
47.780       107
47.790        73
47.800       107
47.810        40
47.820        87
47.830        87
47.840        80
47.850        47
47.860        73
47.870       113
47.880        87
47.890        47
47.900       107
47.910        87
47.920        67
47.930        33
47.940        60
47.950        40
47.960        27
47.970        87
47.980        60
47.990        47
48.000        73
48.010        53
48.020        60
48.030        40
48.040        40
48.050        80
48.060        73
48.070        40
48.080        33
48.090        40
48.100        33
48.110        80
48.120        53
48.130       100
48.140        20
48.150        53
48.160        13
48.170        93
48.180        60
48.190        40
48.200        47
48.210        47
48.220        53
48.230        67
48.240        53
48.250       100
48.260        20
48.270        33
48.280        53
48.290        47
48.300        47
48.310        40
48.320        53
48.330        47
48.340        40
48.350        87
48.360        27
48.370        13
48.380        40
48.390        53
48.400        13
48.410        33
48.420        33
48.430        53
48.440        20
48.450        60
48.460        80
48.470        20
48.480        60
48.490        20
48.500        67
48.510        47
48.520        60
48.530        67
48.540        53
48.550        27
48.560        33
48.570        73
48.580        27
48.590        53
48.600        40
48.610        20
48.620        20
48.630        27
48.640        60
48.650        33
48.660        60
48.670        20
48.680        20
48.690        27
48.700        27
48.710        40
48.720        53
48.730        13
48.740        53
48.750        27
48.760        53
48.770        40
48.780        40
48.790        33
48.800        53
48.810        40
48.820        40
48.830        13
48.840        27
48.850        60
48.860        33
48.870        33
48.880        47
48.890        20
48.900        60
48.910        27
48.920        13
48.930        47
48.940        33
48.950        40
48.960        33
48.970        20
48.980        20
48.990        13
49.000        33
49.010        13
49.020        27
49.030        60
49.040        33
49.050        13
49.060        60
49.070        27
49.080        33
49.090        53
49.100        27
49.110        13
49.120        27
49.130        20
49.140        40
49.150         7
49.160        33
49.170        60
49.180        40
49.190        33
49.200        27
49.210        33
49.220        27
49.230        20
49.240        27
49.250        53
49.260        53
49.270        20
49.280        53
49.290        60
49.300        20
49.310        20
49.320        40
49.330        27
49.340        47
49.350        40
49.360        73
49.370        13
49.380        27
49.390        33
49.400        33
49.410        20
49.420        40
49.430        40
49.440        47
49.450        33
49.460        47
49.470        33
49.480        13
49.490        47
49.500        40
49.510        33
49.520        47
49.530        60
49.540        33
49.550        13
49.560        27
49.570         7
49.580        20
49.590        40
49.600        27
49.610        60
49.620        13
49.630        20
49.640        47
49.650        47
49.660        67
49.670       100
49.680        20
49.690        47
49.700        60
49.710        20
49.720        40
49.730        20
49.740        20
49.750        13
49.760        33
49.770        20
49.780        40
49.790        27
49.800        53
49.810        53
49.820        13
49.830        27
49.840        27
49.850        47
49.860        27
49.870        53
49.880        27
49.890        27
49.900        20
49.910        27
49.920        33
49.930        20
49.940         7
49.950        60
49.960        20
49.970        13
49.980        27
49.990        53
50.000        33
50.010        33
50.020        27
50.030        47
50.040        40
50.050        40
50.060        27
50.070        27
50.080        33
50.090        47
50.100        40
50.110        13
50.120        40
50.130        67
50.140        47
50.150        47
50.160        20
50.170        67
50.180        27
50.190        40
50.200        53
50.210        27
50.220        33
50.230        47
50.240        67
50.250        20
50.260        20
50.270        33
50.280        27
50.290        27
50.300        27
50.310        27
50.320        27
50.330        40
50.340        60
50.350        53
50.360        33
50.370         7
50.380        40
50.390        27
50.400        40
50.410        53
50.420        47
50.430        60
50.440        53
50.450        60
50.460        33
50.470        33
50.480        53
50.490        40
50.500        47
50.510        47
50.520        13
50.530        60
50.540        53
50.550        53
50.560        53
50.570        47
50.580        40
50.590        60
50.600        40
50.610        40
50.620        47
50.630        27
50.640       107
50.650        40
50.660        93
50.670        53
50.680       100
50.690        87
50.700        80
50.710        87
50.720        93
50.730        73
50.740       147
50.750       127
50.760        87
50.770        93
50.780       100
50.790       107
50.800        60
50.810        93
50.820       100
50.830        67
50.840        93
50.850        93
50.860        53
50.870        60
50.880        67
50.890        47
50.900        67
50.910       140
50.920       140
50.930        67
50.940       120
50.950        67
50.960       120
50.970       107
50.980        67
50.990       100
51.000        80
51.010        93
51.020        67
51.030       140
51.040        87
51.050        53
51.060        27
51.070       127
51.080        87
51.090       120
51.100        93
51.110       107
51.120       133
51.130       127
51.140       120
51.150        93
51.160        87
51.170       100
51.180        80
51.190       100
51.200       100
51.210       127
51.220       107
51.230       113
51.240        53
51.250        93
51.260       100
51.270       127
51.280       107
51.290        87
51.300        87
51.310        87
51.320       127
51.330        53
51.340        93
51.350       127
51.360        40
51.370        73
51.380       113
51.390       100
51.400       113
51.410        80
51.420        73
51.430        53
51.440        93
51.450        73
51.460        93
51.470        87
51.480        87
51.490        93
51.500       100
51.510        87
51.520        80
51.530        80
51.540        80
51.550       113
51.560        93
51.570        73
51.580        47
51.590       127
51.600       180
51.610        87
51.620       133
51.630       113
51.640        73
51.650        87
51.660        73
51.670        80
51.680       173
51.690       107
51.700        47
51.710       120
51.720       100
51.730       127
51.740       113
51.750       140
51.760       127
51.770       153
51.780       147
51.790       113
51.800       140
51.810       120
51.820       133
51.830        93
51.840        80
51.850       107
51.860       113
51.870       140
51.880        80
51.890       133
51.900       187
51.910       133
51.920        93
51.930       127
51.940       120
51.950       140
51.960       140
51.970       120
51.980       127
51.990        87
52.000       133
52.010       127
52.020       113
52.030       133
52.040       200
52.050       160
52.060       160
52.070       200
52.080       167
52.090       233
52.100       167
52.110       227
52.120       193
52.130       153
52.140       167
52.150       293
52.160       187
52.170       280
52.180       360
52.190       380
52.200       320
52.210       320
52.220       373
52.230       387
52.240       553
52.250       660
52.260       773
52.270       820
52.280       986
52.290      1146
52.300      1313
52.310      1726
52.320      2106
52.330      2152
52.340      2832
52.350      3132
52.360      3285
52.370      3665
52.380      3978
52.390      4325
52.400      4611
52.410      4998
52.420      5318
52.430      5711
52.440      5911
52.450      6004
52.460      6184
52.470      6371
52.480      7224
52.490      7224
52.500      7670
52.510      8243
52.520      8916
52.530     10982
52.540     14821
52.550     19292
52.560     24317
52.570     30088
52.580     33866
52.590     36672
52.600     37345
52.610     30035
52.620     19832
52.630     12475
52.640      8623
52.650      6577
52.660      6018
52.670      6271
52.680      7664
52.690      8890
52.700     11722
52.710     13808
52.720     16120
52.730     17733
52.740     17473
52.750     13541
52.760      8743
52.770      5818
52.780      3432
52.790      2172
52.800      1726
52.810      1186
52.820      1033
52.830       880
52.840       646
52.850       613
52.860       460
52.870       533
52.880       413
52.890       387
52.900       367
52.910       433
52.920       367
52.930       313
52.940       287
52.950       153
52.960       300
52.970       300
52.980       240
52.990       260
53.000       233
53.010       260
53.020       287
53.030       167
53.040       180
53.050       180
53.060       153
53.070       160
53.080       200
53.090       220
53.100       200
53.110       160
53.120       120
53.130       147
53.140       167
53.150       147
53.160       140
53.170       133
53.180       113
53.190       167
53.200       140
53.210       127
53.220       133
53.230       140
53.240       167
53.250        93
53.260       180
53.270       107
53.280        67
53.290       127
53.300       107
53.310       100
53.320       107
53.330       160
53.340        93
53.350       167
53.360       160
53.370        73
53.380       113
53.390        67
53.400       153
53.410       167
53.420       107
53.430       100
53.440       153
53.450       147
53.460       127
53.470        60
53.480        87
53.490       100
53.500       140
53.510        87
53.520        93
53.530       133
53.540       107
53.550        80
53.560       113
53.570       113
53.580       127
53.590        87
53.600        80
53.610        93
53.620       100
53.630        80
53.640       100
53.650       113
53.660        87
53.670        67
53.680        73
53.690       147
53.700       153
53.710        87
53.720        73
53.730        73
53.740        73
53.750        87
53.760        93
53.770        80
53.780       120
53.790       147
53.800        60
53.810        80
53.820        67
53.830        87
53.840        87
53.850        80
53.860        93
53.870        67
53.880        80
53.890        67
53.900        80
53.910       120
53.920        93
53.930        67
53.940       100
53.950        87
53.960        67
53.970        47
53.980       107
53.990        87
54.000        80
54.010        87
54.020        73
54.030        80
54.040       113
54.050        87
54.060       100
54.070        53
54.080        67
54.090        47
54.100        53
54.110        80
54.120        53
54.130        73
54.140        80
54.150       113
54.160        87
54.170        93
54.180        67
54.190        60
54.200        80
54.210        87
54.220        53
54.230        53
54.240        53
54.250       140
54.260        80
54.270        93
54.280        73
54.290        47
54.300       113
54.310        87
54.320        93
54.330        53
54.340        47
54.350        67
54.360        67
54.370       107
54.380        60
54.390       120
54.400        47
54.410        60
54.420        93
54.430        40
54.440        27
54.450        87
54.460        60
54.470        53
54.480        67
54.490       133
54.500        73
54.510        40
54.520        40
54.530        47
54.540        67
54.550        67
54.560        60
54.570        53
54.580        60
54.590        53
54.600        20
54.610        60
54.620        27
54.630        33
54.640        47
54.650       120
54.660        73
54.670        47
54.680        60
54.690        47
54.700        80
54.710        87
54.720        60
54.730        47
54.740        80
54.750       100
54.760        73
54.770        53
54.780        20
54.790        93
54.800        33
54.810        53
54.820        73
54.830        27
54.840        53
54.850        33
54.860        80
54.870        67
54.880        60
54.890        47
54.900        67
54.910        93
54.920        33
54.930        47
54.940        47
54.950        67
54.960        53
54.970        33
54.980        47
54.990        53
55.000        73
55.010        40
55.020        60
55.030       100
55.040        73
55.050        67
55.060        87
55.070        80
55.080        60
55.090        33
55.100        47
55.110        80
55.120        73
55.130        87
55.140        53
55.150        60
55.160        80
55.170        33
55.180        87
55.190        60
55.200        33
55.210        47
55.220        93
55.230        73
55.240        93
55.250        73
55.260        67
55.270        67
55.280        60
55.290        40
55.300        73
55.310        40
55.320        60
55.330        67
55.340        53
55.350        27
55.360        13
55.370        53
55.380        73
55.390        40
55.400        87
55.410        67
55.420        93
55.430        47
55.440        27
55.450        60
55.460        60
55.470        60
55.480        67
55.490       107
55.500       100
55.510        13
55.520        93
55.530        80
55.540        60
55.550        60
55.560        60
55.570        40
55.580        60
55.590        93
55.600        40
55.610        33
55.620        47
55.630       107
55.640        53
55.650        93
55.660        47
55.670        27
55.680        60
55.690        80
55.700        33
55.710        47
55.720        27
55.730        40
55.740        53
55.750        60
55.760        53
55.770        67
55.780        73
55.790        40
55.800        47
55.810        53
55.820        73
55.830        47
55.840        47
55.850        60
55.860        53
55.870        27
55.880        73
55.890        67
55.900        47
55.910        87
55.920        47
55.930        47
55.940        67
55.950        33
55.960        20
55.970        53
55.980        47
55.990        67
56.000        27
56.010        40
56.020        73
56.030        33
56.040        47
56.050        67
56.060        67
56.070        53
56.080        80
56.090        73
56.100        47
56.110        47
56.120        33
56.130        40
56.140        60
56.150        80
56.160        40
56.170        53
56.180        47
56.190       100
56.200        73
56.210        60
56.220        60
56.230        60
56.240        87
56.250        80
56.260        27
56.270        53
56.280        40
56.290        67
56.300        27
56.310        60
56.320        47
56.330        53
56.340        60
56.350        53
56.360        60
56.370        40
56.380        87
56.390        47
56.400        40
56.410        67
56.420        33
56.430        40
56.440        47
56.450        53
56.460        67
56.470        40
56.480        40
56.490        40
56.500        40
56.510        47
56.520        53
56.530        47
56.540       107
56.550        67
56.560        67
56.570         7
56.580        60
56.590        40
56.600        67
56.610        73
56.620        80
56.630        53
56.640        40
56.650        47
56.660        53
56.670        73
56.680        47
56.690        73
56.700        47
56.710        47
56.720        60
56.730        47
56.740        67
56.750        73
56.760        53
56.770        13
56.780        40
56.790        33
56.800        47
56.810        67
56.820        60
56.830        73
56.840        73
56.850        20
56.860        47
56.870        40
56.880        60
56.890        40
56.900        33
56.910        40
56.920        60
56.930        67
56.940        60
56.950        40
56.960        47
56.970        53
56.980        27
56.990        73
57.000        53
57.010        67
57.020        53
57.030        27
57.040        40
57.050        33
57.060        33
57.070        47
57.080        47
57.090        40
57.100        53
57.110        47
57.120        13
57.130        27
57.140        67
57.150        47
57.160        33
57.170        13
57.180        47
57.190        27
57.200        40
57.210        40
57.220        67
57.230        33
57.240        33
57.250        40
57.260        73
57.270        33
57.280        73
57.290        33
57.300        53
57.310        73
57.320        47
57.330        67
57.340        27
57.350        60
57.360        33
57.370        27
57.380        27
57.390        27
57.400        93
57.410        47
57.420        33
57.430        40
57.440        53
57.450        60
57.460        33
57.470        67
57.480        33
57.490        40
57.500        53
57.510        33
57.520        47
57.530        40
57.540        47
57.550        47
57.560        73
57.570        33
57.580        33
57.590        27
57.600        73
57.610         7
57.620        27
57.630        47
57.640        40
57.650        40
57.660        33
57.670        53
57.680        67
57.690        33
57.700        53
57.710        60
57.720        67
57.730        53
57.740        67
57.750         7
57.760        73
57.770        60
57.780        40
57.790        47
57.800        47
57.810        93
57.820        73
57.830        47
57.840        67
57.850        27
57.860        40
57.870        60
57.880        27
57.890        33
57.900        27
57.910        33
57.920        47
57.930        13
57.940        73
57.950        67
57.960        13
57.970        20
57.980        40
57.990        53
58.000        53
58.010        67
58.020        87
58.030        47
58.040        47
58.050        67
58.060        27
58.070        40
58.080        20
58.090        80
58.100        33
58.110        33
58.120        13
58.130         7
58.140         0
58.150        40
58.160        53
58.170        13
58.180        93
58.190        60
58.200        33
58.210        27
58.220        20
58.230        53
58.240        13
58.250        53
58.260         7
58.270        20
58.280        60
58.290        20
58.300        33
58.310        20
58.320        40
58.330        40
58.340        47
58.350        20
58.360        80
58.370        27
58.380        53
58.390        13
58.400        47
58.410        67
58.420        67
58.430        60
58.440        40
58.450        40
58.460        53
58.470        33
58.480        20
58.490        33
58.500         7
58.510        60
58.520        33
58.530        20
58.540        73
58.550        33
58.560        53
58.570        47
58.580        33
58.590        27
58.600        13
58.610        87
58.620        40
58.630        53
58.640        27
58.650        40
58.660        47
58.670        47
58.680        53
58.690        60
58.700        40
58.710        40
58.720        47
58.730        60
58.740        33
58.750        33
58.760        40
58.770        20
58.780        53
58.790        20
58.800        53
58.810        60
58.820        53
58.830        87
58.840        40
58.850        67
58.860        40
58.870        33
58.880        47
58.890        20
58.900        27
58.910        40
58.920        27
58.930        47
58.940        53
58.950        53
58.960        53
58.970        33
58.980        40
58.990        47
59.000        33
59.010        53
59.020        40
59.030        27
59.040        27
59.050        27
59.060        20
59.070        40
59.080        20
59.090        27
59.100        73
59.110        60
59.120        33
59.130        33
59.140        33
59.150        40
59.160        20
59.170        33
59.180        67
59.190        33
59.200        60
59.210        47
59.220        33
59.230        13
59.240        40
59.250        53
59.260        53
59.270        33
59.280        27
59.290        33
59.300        47
59.310        13
59.320        20
59.330        33
59.340        27
59.350        33
59.360        47
59.370        40
59.380        33
59.390        40
59.400        53
59.410        27
59.420        33
59.430        53
59.440        20
59.450        27
59.460        13
59.470        13
59.480        20
59.490        27
59.500        40
59.510        60
59.520        33
59.530        53
59.540        27
59.550        47
59.560         7
59.570        27
59.580        80
59.590        40
59.600        33
59.610        13
59.620        40
59.630        20
59.640        33
59.650        33
59.660        47
59.670        33
59.680        27
59.690        67
59.700        53
59.710        53
59.720        40
59.730        20
59.740         7
59.750        27
59.760        27
59.770        40
59.780        33
59.790        20
59.800        13
59.810        33
59.820        27
59.830        80
59.840        33
59.850        33
59.860        27
59.870        60
59.880        47
59.890        20
59.900        27
59.910        40
59.920        27
59.930        13
59.940        40
59.950        20
59.960        13
59.970        27
59.980        53
59.990        20
60.000        27
