20.000        27
20.010        27
20.020        73
20.030        27
20.040        80
20.050        47
20.060        20
20.070       100
20.080        40
20.090        27
20.100        40
20.110        73
20.120        27
20.130        20
20.140        33
20.150        20
20.160        33
20.170        40
20.180        40
20.190        33
20.200        60
20.210        40
20.220        60
20.230        47
20.240         7
20.250        20
20.260        47
20.270        33
20.280        33
20.290        47
20.300        47
20.310        47
20.320        33
20.330        60
20.340        47
20.350        27
20.360        60
20.370        33
20.380        27
20.390        40
20.400        67
20.410        33
20.420        47
20.430        60
20.440        47
20.450        47
20.460        27
20.470        33
20.480        53
20.490        53
20.500        27
20.510        60
20.520        27
20.530        20
20.540        27
20.550        40
20.560        40
20.570        47
20.580        40
20.590        13
20.600        47
20.610        40
20.620        47
20.630        53
20.640        33
20.650        40
20.660        27
20.670        33
20.680        73
20.690        20
20.700         7
20.710        60
20.720        40
20.730        20
20.740        27
20.750        40
20.760        47
20.770        47
20.780        27
20.790        40
20.800        47
20.810        27
20.820        33
20.830        33
20.840        67
20.850        40
20.860        67
20.870        80
20.880        60
20.890        73
20.900        80
20.910        67
20.920        33
20.930        40
20.940        40
20.950        47
20.960        53
20.970        33
20.980        47
20.990        47
21.000        47
21.010        33
21.020        47
21.030        67
21.040        67
21.050        47
21.060        27
21.070        67
21.080        53
21.090        60
21.100        33
21.110        13
21.120        27
21.130        67
21.140        33
21.150        67
21.160        33
21.170        27
21.180        40
21.190        47
21.200        33
21.210        40
21.220        33
21.230        73
21.240        60
21.250        20
21.260        60
21.270        53
21.280        27
21.290        27
21.300        40
21.310        73
21.320        20
21.330        47
21.340        40
21.350        20
21.360        60
21.370        33
21.380        60
21.390        40
21.400        33
21.410        53
21.420        47
21.430        47
21.440        47
21.450        47
21.460        47
21.470        53
21.480        47
21.490        53
21.500        67
21.510        87
21.520        53
21.530        40
21.540        47
21.550        27
21.560       113
21.570        87
21.580        53
21.590       100
21.600       120
21.610       100
21.620        73
21.630        80
21.640       113
21.650        60
21.660       100
21.670       127
21.680       193
21.690       153
21.700       207
21.710       213
21.720       333
21.730       227
21.740       360
21.750       327
21.760       347
21.770       353
21.780       526
21.790       426
21.800       333
21.810       407
21.820       333
21.830       307
21.840       287
21.850       313
21.860       293
21.870       180
21.880       140
21.890        87
21.900       147
21.910       107
21.920       100
21.930        53
21.940        60
21.950        60
21.960        47
21.970        67
21.980        60
21.990        33
22.000        73
22.010        20
22.020        53
22.030        20
22.040        80
22.050        53
22.060        47
22.070        13
22.080        33
22.090        67
22.100        40
22.110        53
22.120        33
22.130        27
22.140        47
22.150        53
22.160        60
22.170        53
22.180         7
22.190        47
22.200        40
22.210        73
22.220        20
22.230        40
22.240        60
22.250        47
22.260        73
22.270        27
22.280         7
22.290        40
22.300        27
22.310        40
22.320        33
22.330        47
22.340        27
22.350        40
22.360        40
22.370        60
22.380        40
22.390        60
22.400        27
22.410        33
22.420        73
22.430        40
22.440        33
22.450        40
22.460        33
22.470        13
22.480        40
22.490        47
22.500        40
22.510        47
22.520        47
22.530        33
22.540        20
22.550        60
22.560        20
22.570        53
22.580        60
22.590        47
22.600        60
22.610        67
22.620        27
22.630        20
22.640        33
22.650        27
22.660        20
22.670        47
22.680        47
22.690        47
22.700        13
22.710        20
22.720        47
22.730        20
22.740        27
22.750        27
22.760        53
22.770        33
22.780        27
22.790        27
22.800        40
22.810        40
22.820        40
22.830        27
22.840        33
22.850        13
22.860        40
22.870        20
22.880        13
22.890        33
22.900        40
22.910        53
22.920        20
22.930        33
22.940        13
22.950        40
22.960        40
22.970        40
22.980        40
22.990        47
23.000        20
23.010        40
23.020        33
23.030        67
23.040        33
23.050        40
23.060        27
23.070        20
23.080        53
23.090        20
23.100        47
23.110        33
23.120        47
23.130        80
23.140        27
23.150        20
23.160         7
23.170        27
23.180        73
23.190        33
23.200        33
23.210        27
23.220        40
23.230        33
23.240        40
23.250        40
23.260        20
23.270        27
23.280        27
23.290        13
23.300        33
23.310        33
23.320        27
23.330        47
23.340        20
23.350        73
23.360        47
23.370        13
23.380        13
23.390        20
23.400        27
23.410        13
23.420        20
23.430        27
23.440        20
23.450        40
23.460        27
23.470        27
23.480        33
23.490        20
23.500        20
23.510        33
23.520        20
23.530        33
23.540        47
23.550        27
23.560        33
23.570        27
23.580        47
23.590        33
23.600        40
23.610        67
23.620         7
23.630        27
23.640        73
23.650        40
23.660        40
23.670        47
23.680        53
23.690        27
23.700        47
23.710        60
23.720        27
23.730        33
23.740        27
23.750        27
23.760        27
23.770        53
23.780        40
23.790        20
23.800        20
23.810        47
23.820        67
23.830        27
23.840        47
23.850        47
23.860        47
23.870        33
23.880        33
23.890        40
23.900        47
23.910        47
23.920        20
23.930        33
23.940        47
23.950        40
23.960         7
23.970        33
23.980        40
23.990        27
24.000        20
24.010        27
24.020        47
24.030        33
24.040        27
24.050        33
24.060        27
24.070        33
24.080        40
24.090        40
24.100        27
24.110        27
24.120        40
24.130        73
24.140        40
24.150        47
24.160        33
24.170        27
24.180        27
24.190        27
24.200        47
24.210        33
24.220        33
24.230         7
24.240        47
24.250        27
24.260        40
24.270        53
24.280        73
24.290        47
24.300        20
24.310        27
24.320        33
24.330        60
24.340        27
24.350        27
24.360         7
24.370        47
24.380        40
24.390        20
24.400        27
24.410        47
24.420        20
24.430        13
24.440        60
24.450        33
24.460        47
24.470        27
24.480        47
24.490        27
24.500        33
24.510        33
24.520        33
24.530        27
24.540        53
24.550        53
24.560         7
24.570        33
24.580        13
24.590        20
24.600        40
24.610        27
24.620        33
24.630        13
24.640        27
24.650        13
24.660         7
24.670        27
24.680        67
24.690        20
24.700        13
24.710         7
24.720        40
24.730        40
24.740        27
24.750        80
24.760        27
24.770        20
24.780        40
24.790        20
24.800        47
24.810        53
24.820        20
24.830        27
24.840        40
24.850        67
24.860        60
24.870        53
24.880        47
24.890        40
24.900        33
24.910        33
24.920        33
24.930        53
24.940        47
24.950        67
24.960        40
24.970        40
24.980        27
24.990        40
25.000        27
25.010        40
25.020        20
25.030        40
25.040        33
25.050        20
25.060        20
25.070        20
25.080        33
25.090        13
25.100        13
25.110        27
25.120         7
25.130        33
25.140        33
25.150        40
25.160        13
25.170        20
25.180        40
25.190        33
25.200        27
25.210        33
25.220        27
25.230        47
25.240        40
25.250        27
25.260        40
25.270        27
25.280        40
25.290        33
25.300        27
25.310        13
25.320        20
25.330        40
25.340        33
25.350        47
25.360        47
25.370        20
25.380        67
25.390        27
25.400        47
25.410        40
25.420        33
25.430        53
25.440        27
25.450        27
25.460        47
25.470        53
25.480        60
25.490        27
25.500        27
25.510        33
25.520        93
25.530        93
25.540        80
25.550       120
25.560       113
25.570       153
25.580       173
25.590       180
25.600       133
25.610       133
25.620       173
25.630       180
25.640       267
25.650       160
25.660       147
25.670       140
25.680       100
25.690       107
25.700        73
25.710        67
25.720        47
25.730        67
25.740        67
25.750        47
25.760        33
25.770        20
25.780         7
25.790        73
25.800        33
25.810        27
25.820        27
25.830        27
25.840        40
25.850        33
25.860        13
25.870        33
25.880        33
25.890        40
25.900        40
25.910        40
25.920        47
25.930        33
25.940        47
25.950        20
25.960        67
25.970        33
25.980        40
25.990        13
26.000        53
26.010        20
26.020        20
26.030        47
26.040        33
26.050         7
26.060        40
26.070        47
26.080        20
26.090        20
26.100        40
26.110        40
26.120        20
26.130        53
26.140        33
26.150        60
26.160        33
26.170        20
26.180        13
26.190        33
26.200        20
26.210        33
26.220        53
26.230        27
26.240        40
26.250        40
26.260        13
26.270        13
26.280        20
26.290        27
26.300        13
26.310        27
26.320        13
26.330        20
26.340        13
26.350        33
26.360        20
26.370        13
26.380        40
26.390        20
26.400        40
26.410        33
26.420        13
26.430        27
26.440        13
26.450        13
26.460        27
26.470        33
26.480        47
26.490        20
26.500        40
26.510        33
26.520        40
26.530        27
26.540         7
26.550        27
26.560        13
26.570        40
26.580        13
26.590         0
26.600        20
26.610        13
26.620        67
26.630        13
26.640        20
26.650        20
26.660        20
26.670        33
26.680        20
26.690        20
26.700        47
26.710        13
26.720         7
26.730         7
26.740        27
26.750        47
26.760        13
26.770        27
26.780        27
26.790        33
26.800        40
26.810        40
26.820        27
26.830         7
26.840        27
26.850        20
26.860        40
26.870         0
26.880        40
26.890        33
26.900        40
26.910        53
26.920        33
26.930        27
26.940         0
26.950        27
26.960        20
26.970        33
26.980        33
26.990        40
27.000         7
27.010        27
27.020        47
27.030        40
27.040        20
27.050        13
27.060        27
27.070        60
27.080         7
27.090        27
27.100        33
27.110        33
27.120        33
27.130        40
27.140        53
27.150         7
27.160        40
27.170        47
27.180         7
27.190        27
27.200        33
27.210         7
27.220        27
27.230        53
27.240        13
27.250        27
27.260        27
27.270        20
27.280        27
27.290        27
27.300        27
27.310        33
27.320        27
27.330        27
27.340        33
27.350        60
27.360         7
27.370        33
27.380        73
27.390        13
27.400        20
27.410        53
27.420         7
27.430        13
27.440        40
27.450        20
27.460        33
27.470        53
27.480        40
27.490        20
27.500        20
27.510        47
27.520        27
27.530        40
27.540        20
27.550        27
27.560        33
27.570        20
27.580        27
27.590         0
27.600        27
27.610         0
27.620        33
27.630        20
27.640        20
27.650        13
27.660        13
27.670        13
27.680        20
27.690         0
27.700        33
27.710        40
27.720        33
27.730        60
27.740        20
27.750        13
27.760        20
27.770        20
27.780        40
27.790        53
27.800        40
27.810        33
27.820        47
27.830        27
27.840        40
27.850        13
27.860        47
27.870        47
27.880        67
27.890        33
27.900        40
27.910        87
27.920        40
27.930        80
27.940        27
27.950        53
27.960        47
27.970        40
27.980        20
27.990        73
28.000        67
28.010        20
28.020        27
28.030        27
28.040        27
28.050        53
28.060        13
28.070        27
28.080        20
28.090        47
28.100        27
28.110        33
28.120        27
28.130         7
28.140        13
28.150        27
28.160        27
28.170        40
28.180         7
28.190        20
28.200        13
28.210        40
28.220        20
28.230        27
28.240        33
28.250        20
28.260        60
28.270        67
28.280        33
28.290        27
28.300        33
28.310        40
28.320        20
28.330        13
28.340        13
28.350        40
28.360        13
28.370        53
28.380        40
28.390        20
28.400        33
28.410        53
28.420        20
28.430        20
28.440        20
28.450        13
28.460        67
28.470        20
28.480        27
28.490        13
28.500        47
28.510        53
28.520        33
28.530        20
28.540        27
28.550         7
28.560         7
28.570        27
28.580         7
28.590        40
28.600        27
28.610        40
28.620        27
28.630        47
28.640        27
28.650        13
28.660        27
28.670        13
28.680        13
28.690        13
28.700        27
28.710         7
28.720        40
28.730        40
28.740        47
28.750        27
28.760        53
28.770        20
28.780         7
28.790        13
28.800        13
28.810        20
28.820         7
28.830        53
28.840        13
28.850        47
28.860        20
28.870        27
28.880        13
28.890        40
28.900        13
28.910        47
28.920        27
28.930        13
28.940        53
28.950        27
28.960         7
28.970        27
28.980        13
28.990        33
29.000        33
29.010        27
29.020        40
29.030        20
29.040        20
29.050        27
29.060        27
29.070         7
29.080        20
29.090        20
29.100        27
29.110        33
29.120        27
29.130        67
29.140        33
29.150        13
29.160        20
29.170        20
29.180        53
29.190        27
29.200        13
29.210        40
29.220        40
29.230        33
29.240        33
29.250        60
29.260        13
29.270        27
29.280        33
29.290        47
29.300        27
29.310        13
29.320        13
29.330        40
29.340        67
29.350        53
29.360        40
29.370        20
29.380        33
29.390        40
29.400        47
29.410        33
29.420        47
29.430        47
29.440        53
29.450        33
29.460        53
29.470        27
29.480        47
29.490        20
29.500        13
29.510        13
29.520        33
29.530        40
29.540         7
29.550        13
29.560        13
29.570        27
29.580        20
29.590        53
29.600        13
29.610        13
29.620        13
29.630        27
29.640        13
29.650         7
29.660         0
29.670        27
29.680        47
29.690        33
29.700        20
29.710        20
29.720        20
29.730        27
29.740        33
29.750        40
29.760        27
29.770        60
29.780        20
29.790        27
29.800        27
29.810        53
29.820        60
29.830        20
29.840        47
29.850         7
29.860        60
29.870        27
29.880        40
29.890        33
29.900        40
29.910        47
29.920        27
29.930        40
29.940        20
29.950        53
29.960        27
29.970        40
29.980        53
29.990        60
30.000        40
30.010        40
30.020        27
30.030        53
30.040        53
30.050        67
30.060        27
30.070        87
30.080        33
30.090        13
30.100        60
30.110        47
30.120         0
30.130        67
30.140        53
30.150        33
30.160        53
30.170        87
30.180        27
30.190        53
30.200        27
30.210        47
30.220        13
30.230        47
30.240        53
30.250        33
30.260        67
30.270       100
30.280        60
30.290        33
30.300        67
30.310        67
30.320        33
30.330        60
30.340        93
30.350        40
30.360        40
30.370        53
30.380        60
30.390        27
30.400        47
30.410        47
30.420        67
30.430        53
30.440        80
30.450        60
30.460        27
30.470        47
30.480        67
30.490        67
30.500        47
30.510        87
30.520        67
30.530        40
30.540        47
30.550        53
30.560        33
30.570        60
30.580        47
30.590        80
30.600        33
30.610       127
30.620       107
30.630        93
30.640       120
30.650       100
30.660        80
30.670        87
30.680       107
30.690       180
30.700       133
30.710       113
30.720       233
30.730       193
30.740       253
30.750       426
30.760       360
30.770       473
30.780       453
30.790       440
30.800       626
30.810       666
30.820       960
30.830       853
30.840       913
30.850      1086
30.860      1293
30.870      1546
30.880      1819
30.890      2346
30.900      2372
30.910      2699
30.920      3319
30.930      3559
30.940      4118
30.950      4505
30.960      4438
30.970      3978
30.980      5191
30.990      5025
31.000      4711
31.010      4418
31.020      4125
31.030      3792
31.040      3758
31.050      3265
31.060      2992
31.070      2419
31.080      2212
31.090      2066
31.100      1539
31.110      1619
31.120      1193
31.130       800
31.140       733
31.150       640
31.160       553
31.170       426
31.180       227
31.190       313
31.200       260
31.210       273
31.220       153
31.230       133
31.240       153
31.250       167
31.260       133
31.270       113
31.280       113
31.290        80
31.300        60
31.310        40
31.320       107
31.330        60
31.340        53
31.350       127
31.360        60
31.370        73
31.380        73
31.390        73
31.400        67
31.410        60
31.420        67
31.430       107
31.440       113
31.450        40
31.460        53
31.470        40
31.480        53
31.490        73
31.500        53
31.510        20
31.520        60
31.530        40
31.540        67
31.550        47
31.560        67
31.570        67
31.580        60
31.590        53
31.600        67
31.610        53
31.620        27
31.630        47
31.640        60
31.650        13
31.660        53
31.670        73
31.680        40
31.690        47
31.700        27
31.710        80
31.720        93
31.730        33
31.740        67
31.750        53
31.760        80
31.770        40
31.780        60
31.790        53
31.800        13
31.810        47
31.820        27
31.830        33
31.840        47
31.850        60
31.860        40
31.870        27
31.880        20
31.890        40
31.900        27
31.910        60
31.920        27
31.930        67
31.940        40
31.950        53
31.960        40
31.970        27
31.980        47
31.990        13
32.000        47
32.010        73
32.020        33
32.030        27
32.040        47
32.050        60
32.060        27
32.070        40
32.080        27
32.090        47
32.100        80
32.110        20
32.120         7
32.130        67
32.140        27
32.150        27
32.160        20
32.170        40
32.180        27
32.190        53
32.200        40
32.210        20
32.220        13
32.230        27
32.240        53
32.250        27
32.260        67
32.270        27
32.280        40
32.290        20
32.300        27
32.310        40
32.320        40
32.330        40
32.340        33
32.350        33
32.360        53
32.370        13
32.380        13
32.390        33
32.400        20
32.410        27
32.420        53
32.430         7
32.440        27
32.450        40
32.460        20
32.470        53
32.480        60
32.490        33
32.500        20
32.510        27
32.520        27
32.530        13
32.540        53
32.550        27
32.560        33
32.570        40
32.580        40
32.590        67
32.600        60
32.610        20
32.620        33
32.630        67
32.640        20
32.650        40
32.660        13
32.670        47
32.680        47
32.690        20
32.700        53
32.710        33
32.720        53
32.730        53
32.740        20
32.750        47
32.760        73
32.770        40
32.780        33
32.790         0
32.800        13
32.810        47
32.820        27
32.830        27
32.840         7
32.850        27
32.860        53
32.870        40
32.880        40
32.890        27
32.900        13
32.910        40
32.920        80
32.930        33
32.940        47
32.950         7
32.960        53
32.970        27
32.980        40
32.990        20
33.000         7
33.010        27
33.020        33
33.030        20
33.040        20
33.050        40
33.060        13
33.070        53
33.080        13
33.090        47
33.100        13
33.110        13
33.120        20
33.130        33
33.140        27
33.150        47
33.160        27
33.170        33
33.180        20
33.190        20
33.200        40
33.210        47
33.220        27
33.230        40
33.240        47
33.250        27
33.260        20
33.270        53
33.280        47
33.290        33
33.300        73
33.310        47
33.320        33
33.330        40
33.340        33
33.350        40
33.360        13
33.370        33
33.380        27
33.390        20
33.400        33
33.410        40
33.420        47
33.430        13
33.440        13
33.450        33
33.460        13
33.470        20
33.480        20
33.490        27
33.500        27
33.510        40
33.520        33
33.530        40
33.540         7
33.550        33
33.560        33
33.570        73
33.580         7
33.590        20
33.600        60
33.610        33
33.620        13
33.630        27
33.640        13
33.650        27
33.660        27
33.670        13
33.680        47
33.690        27
33.700        33
33.710        40
33.720        53
33.730        13
33.740         7
33.750        40
33.760        27
33.770        40
33.780        27
33.790        20
33.800         7
33.810        53
33.820        20
33.830        20
33.840        40
33.850         7
33.860         7
33.870        33
33.880        27
33.890        27
33.900        40
33.910        27
33.920        40
33.930        20
33.940        20
33.950        20
33.960        40
33.970        40
33.980        40
33.990        47
34.000        53
34.010        40
34.020        13
34.030        13
34.040        33
34.050        27
34.060        47
34.070        33
34.080        20
34.090        27
34.100        13
34.110        27
34.120         7
34.130        27
34.140        33
34.150        20
34.160        20
34.170        13
34.180        13
34.190        20
34.200        20
34.210        53
34.220        27
34.230        33
34.240        27
34.250        27
34.260        40
34.270        40
34.280        13
34.290        47
34.300        13
34.310        27
34.320        53
34.330        13
34.340        13
34.350        40
34.360        40
34.370        27
34.380         7
34.390        27
34.400        13
34.410        27
34.420         7
34.430        53
34.440        20
34.450        40
34.460         7
34.470        27
34.480        27
34.490        27
34.500        20
34.510        33
34.520        40
34.530        27
34.540        33
34.550        20
34.560        13
34.570        47
34.580        47
34.590        20
34.600        33
34.610        27
34.620        33
34.630        20
34.640        47
34.650         7
34.660        13
34.670        33
34.680        47
34.690        13
34.700        20
34.710        33
34.720        27
34.730        13
34.740        20
34.750        20
34.760        20
34.770        13
34.780        20
34.790        20
34.800        27
34.810        33
34.820        33
34.830        40
34.840        20
34.850        33
34.860        27
34.870        33
34.880         7
34.890         7
34.900        20
34.910        13
34.920        33
34.930         7
34.940        27
34.950        20
34.960        20
34.970        13
34.980         7
34.990        40
35.000        20
35.010        13
35.020        27
35.030        13
35.040        33
35.050        20
35.060        20
35.070         7
35.080        13
35.090        27
35.100        40
35.110        13
35.120        47
35.130        13
35.140        47
35.150        13
35.160        20
35.170        20
35.180         7
35.190        20
35.200        33
35.210         7
35.220        27
35.230        33
35.240        27
35.250        27
35.260        13
35.270        13
35.280        27
35.290        47
35.300        40
35.310        27
35.320        53
35.330        20
35.340         7
35.350        27
35.360        20
35.370        53
35.380        53
35.390        13
35.400        13
35.410        40
35.420        33
35.430         7
35.440        13
35.450        20
35.460         7
35.470        20
35.480        27
35.490        40
35.500        27
35.510        20
35.520        27
35.530        27
35.540        27
35.550        13
35.560         7
35.570        33
35.580        13
35.590        27
35.600         7
35.610        13
35.620         0
35.630        33
35.640         7
35.650        27
35.660        33
35.670        20
35.680        13
35.690        60
35.700        47
35.710        27
35.720         0
35.730        27
35.740        27
35.750        40
35.760        20
35.770        13
35.780        27
35.790        13
35.800        33
35.810        20
35.820        20
35.830        27
35.840        33
35.850        27
35.860        40
35.870        20
35.880        20
35.890        33
35.900        27
35.910        20
35.920        20
35.930        27
35.940         0
35.950        20
35.960        40
35.970        20
35.980        27
35.990         7
36.000        27
36.010        13
36.020        47
36.030         7
36.040        20
36.050        20
36.060        13
36.070        20
36.080        27
36.090        40
36.100        20
36.110        33
36.120        27
36.130         7
36.140        13
36.150        27
36.160        13
36.170         7
36.180        27
36.190        20
36.200        20
36.210         7
36.220         0
36.230        47
36.240        20
36.250        20
36.260        20
36.270        27
36.280        47
36.290        20
36.300        27
36.310        27
36.320        13
36.330        20
36.340        27
36.350        20
36.360         7
36.370        27
36.380        27
36.390        13
36.400        13
36.410        20
36.420        20
36.430         7
36.440         7
36.450        13
36.460        33
36.470        20
36.480        27
36.490        33
36.500         7
36.510        20
36.520        20
36.530        40
36.540        27
36.550        20
36.560        27
36.570        20
36.580        53
36.590        33
36.600        20
36.610        13
36.620        13
36.630         7
36.640         7
36.650        20
36.660        40
36.670        20
36.680        13
36.690        40
36.700        13
36.710         0
36.720        20
36.730        33
36.740         0
36.750         0
36.760        13
36.770        27
36.780        20
36.790        53
36.800        27
36.810        13
36.820        27
36.830        40
36.840        20
36.850        60
36.860         7
36.870        20
36.880        20
36.890        20
36.900        20
36.910        40
36.920        27
36.930        20
36.940        20
36.950        40
36.960        13
36.970        13
36.980        13
36.990        20
37.000        13
37.010        13
37.020        13
37.030        13
37.040        20
37.050         7
37.060        20
37.070        20
37.080        20
37.090        20
37.100         0
37.110         7
37.120        47
37.130         7
37.140        20
37.150        47
37.160        20
37.170        27
37.180         0
37.190         7
37.200        13
37.210        13
37.220        33
37.230         7
37.240         7
37.250         7
37.260         0
37.270        13
37.280        27
37.290         0
37.300        33
37.310        20
37.320        20
37.330        13
37.340        20
37.350        13
37.360        13
37.370        27
37.380         7
37.390        13
37.400        20
37.410        20
37.420        33
37.430        13
37.440         0
37.450        33
37.460        40
37.470        27
37.480        27
37.490        13
37.500        20
37.510        20
37.520        20
37.530        40
37.540        33
37.550        33
37.560        13
37.570        33
37.580        27
37.590        20
37.600         7
37.610         0
37.620        20
37.630        27
37.640        20
37.650         7
37.660         7
37.670        20
37.680        13
37.690        20
37.700        40
37.710        20
37.720         0
37.730        20
37.740        33
37.750        20
37.760         7
37.770        47
37.780        33
37.790        20
37.800        13
37.810        40
37.820        33
37.830        20
37.840         0
37.850        27
37.860        47
37.870        13
37.880        27
37.890        27
37.900        33
37.910         0
37.920         7
37.930        40
37.940        27
37.950        40
37.960         7
37.970        13
37.980        40
37.990        20
38.000        27
38.010        33
38.020        20
38.030        40
38.040        27
38.050        33
38.060        40
38.070        27
38.080        20
38.090         7
38.100        33
38.110        60
38.120        47
38.130        40
38.140        27
38.150        53
38.160        53
38.170        47
38.180        27
38.190         7
38.200        73
38.210        40
38.220        40
38.230        67
38.240        40
38.250        60
38.260        40
38.270        67
38.280        53
38.290        53
38.300        73
38.310        33
38.320        33
38.330        20
38.340        60
38.350        40
38.360        33
38.370        33
38.380        40
38.390        40
38.400        60
38.410        40
38.420        33
38.430        20
38.440        40
38.450        27
38.460        20
38.470        27
38.480        20
38.490        13
38.500        33
38.510        13
38.520        40
38.530         7
38.540        20
38.550        33
38.560         0
38.570        33
38.580         0
38.590        20
38.600        20
38.610        13
38.620         7
38.630         0
38.640        27
38.650        47
38.660        33
38.670        13
38.680        27
38.690        20
38.700         7
38.710        13
38.720        13
38.730        33
38.740        13
38.750        13
38.760         7
38.770        13
38.780        13
38.790        27
38.800         7
38.810        27
38.820        33
38.830        27
38.840        13
38.850        20
38.860        27
38.870        20
38.880         7
38.890        27
38.900        27
38.910        27
38.920         7
38.930        20
38.940        33
38.950        13
38.960        13
38.970        13
38.980        20
38.990        27
39.000        13
39.010         0
39.020        13
39.030         0
39.040        13
39.050        27
39.060        27
39.070        13
39.080        27
39.090         7
39.100        13
39.110        20
39.120         7
39.130        20
39.140        20
39.150        33
39.160        20
39.170        33
39.180        47
39.190        20
39.200         7
39.210        27
39.220        20
39.230        27
39.240        27
39.250         0
39.260        27
39.270        33
39.280        13
39.290        40
39.300        13
39.310        13
39.320        40
39.330        20
39.340        33
39.350        20
39.360        53
39.370        20
39.380        20
39.390        53
39.400         7
39.410        27
39.420        33
39.430        47
39.440        27
39.450         7
39.460        13
39.470        33
39.480         0
39.490        20
39.500        40
39.510        13
39.520        20
39.530        13
39.540        33
39.550        33
39.560        27
39.570        13
39.580        27
39.590         7
39.600        33
39.610        60
39.620        13
39.630        13
39.640        20
39.650        20
39.660         7
39.670        27
39.680        40
39.690         7
39.700        40
39.710        13
39.720        20
39.730        20
39.740        40
39.750        33
39.760        33
39.770        27
39.780        33
39.790        20
39.800        33
39.810        20
39.820        20
39.830        20
39.840        33
39.850        53
39.860        47
39.870        40
39.880        13
39.890        27
39.900        13
39.910        47
39.920        27
39.930        20
39.940        27
39.950        20
39.960        33
39.970        27
39.980        40
39.990        33
40.000         7
40.010        13
40.020        13
40.030        20
40.040        27
40.050        20
40.060        13
40.070        20
40.080        27
40.090        20
40.100        27
40.110         7
40.120        40
40.130         0
40.140        33
40.150        27
40.160        40
40.170         7
40.180         7
40.190         7
40.200        27
40.210        20
40.220        40
40.230        27
40.240         7
40.250        40
40.260        40
40.270        40
40.280        13
40.290        13
40.300        13
40.310        13
40.320        27
40.330        20
40.340        27
40.350        53
40.360        13
40.370        13
40.380        47
40.390        13
40.400        20
40.410        20
40.420         7
40.430        27
40.440         7
40.450         0
40.460        20
40.470        33
40.480        33
40.490        47
40.500        13
40.510        53
40.520        27
40.530         7
40.540         7
40.550        20
40.560        27
40.570        20
40.580         7
40.590        20
40.600         7
40.610        20
40.620        20
40.630        13
40.640         0
40.650         0
40.660        27
40.670         7
40.680        13
40.690        20
40.700        40
40.710        13
40.720        27
40.730         7
40.740        27
40.750        20
40.760        27
40.770        33
40.780        20
40.790         7
40.800        27
40.810         7
40.820        20
40.830        13
40.840        33
40.850        27
40.860        27
40.870        20
40.880        27
40.890        13
40.900        20
40.910         0
40.920        13
40.930         0
40.940         0
40.950        13
40.960        27
40.970        40
40.980        13
40.990        33
41.000         7
41.010        20
41.020        27
41.030        40
41.040        27
41.050        40
41.060        20
41.070        20
41.080         0
41.090        20
41.100        13
41.110        13
41.120         7
41.130        47
41.140        27
41.150        27
41.160        27
41.170        20
41.180        20
41.190        20
41.200        20
41.210        13
41.220         0
41.230        27
41.240         0
41.250        20
41.260        13
41.270         7
41.280        20
41.290         7
41.300        33
41.310        13
41.320        33
41.330        20
41.340         7
41.350         7
41.360        13
41.370        13
41.380        33
41.390        20
41.400        13
41.410        27
41.420         7
41.430         0
41.440        13
41.450        20
41.460        20
41.470        20
41.480        27
41.490         7
41.500        27
41.510        20
41.520        20
41.530        13
41.540        13
41.550        27
41.560        20
41.570        13
41.580        13
41.590         7
41.600         7
41.610        33
41.620        27
41.630        20
41.640        20
41.650        20
41.660         7
41.670        20
41.680        20
41.690         7
41.700        40
41.710         0
41.720        13
41.730         0
41.740        40
41.750        20
41.760        20
41.770        40
41.780        13
41.790         7
41.800         0
41.810        13
41.820        47
41.830         0
41.840        27
41.850        27
41.860        27
41.870        27
41.880        20
41.890        13
41.900        33
41.910        33
41.920        27
41.930        20
41.940        40
41.950        27
41.960        20
41.970        47
41.980         0
41.990        60
42.000        27
42.010         7
42.020        27
42.030        13
42.040        20
42.050        27
42.060        27
42.070        27
42.080        40
42.090        20
42.100        20
42.110        13
42.120        13
42.130        33
42.140        40
42.150        13
42.160        13
42.170        13
42.180        27
42.190        13
42.200        20
42.210        33
42.220         0
42.230        13
42.240        33
42.250        13
42.260        20
42.270        13
42.280        20
42.290        33
42.300        20
42.310        20
42.320        27
42.330        20
42.340         0
42.350        13
42.360        33
42.370        27
42.380        33
42.390        27
42.400        33
42.410        40
42.420        13
42.430        20
42.440         7
42.450        13
42.460        33
42.470        13
42.480        53
42.490        27
42.500        20
42.510        13
42.520        40
42.530        20
42.540        20
42.550        20
42.560        13
42.570        27
42.580         7
42.590        13
42.600         0
42.610        20
42.620        13
42.630        27
42.640        33
42.650        27
42.660        20
42.670         7
42.680        27
42.690        13
42.700        20
42.710        13
42.720        27
42.730         7
42.740        33
42.750        20
42.760        47
42.770        13
42.780        20
42.790        13
42.800        27
42.810        33
42.820        27
42.830        47
42.840        20
42.850        40
42.860        20
42.870        27
42.880        27
42.890        40
42.900        13
42.910         7
42.920        20
42.930        33
42.940        13
42.950        13
42.960        33
42.970        27
42.980        20
42.990        27
43.000        13
43.010         7
43.020        47
43.030        53
43.040        47
43.050        33
43.060        53
43.070        20
43.080        27
43.090        27
43.100        40
43.110        13
43.120        27
43.130        20
43.140        40
43.150         7
43.160        40
43.170        40
43.180        27
43.190        27
43.200        20
43.210        53
43.220        40
43.230        33
43.240        27
43.250        47
43.260        47
43.270        13
43.280        20
43.290         7
43.300        33
43.310        13
43.320        33
43.330        13
43.340        40
43.350        20
43.360        27
43.370        33
43.380        13
43.390        40
43.400        27
43.410        27
43.420        60
43.430        60
43.440        33
43.450        33
43.460        27
43.470        53
43.480        20
43.490        47
43.500        47
43.510        27
43.520         7
43.530        53
43.540        73
43.550        47
43.560        33
43.570        33
43.580        27
43.590        33
43.600        40
43.610        40
43.620        20
43.630        13
43.640        33
43.650        53
43.660        40
43.670        27
43.680        27
43.690        53
43.700        40
43.710        20
43.720        20
43.730        47
43.740        20
43.750        47
43.760        13
43.770        13
43.780        27
43.790        47
43.800        20
43.810        47
43.820        40
43.830        53
43.840        20
43.850        20
43.860         7
43.870        53
43.880        33
43.890        33
43.900        53
43.910        47
43.920        67
43.930        60
43.940        87
43.950        93
43.960        60
43.970        67
43.980        60
43.990        73
44.000        73
44.010        80
44.020        67
44.030        93
44.040       120
44.050       133
44.060        80
44.070       133
44.080       127
44.090       173
44.100       220
44.110       240
44.120       287
44.130       267
44.140       220
44.150       347
44.160       313
44.170       280
44.180       480
44.190       413
44.200       446
44.210       613
44.220       753
44.230       573
44.240       853
44.250       873
44.260       933
44.270      1073
44.280      1220
44.290      1426
44.300      1379
44.310      1539
44.320      1606
44.330      1879
44.340      1766
44.350      1733
44.360      1766
44.370      1779
44.380      1833
44.390      1699
44.400      1606
44.410      1646
44.420      1566
44.430      1446
44.440      1373
44.450      1286
44.460      1213
44.470      1120
44.480      1020
44.490      1086
44.500      1020
44.510       873
44.520       733
44.530       680
44.540       706
44.550       453
44.560       426
44.570       393
44.580       373
44.590       300
44.600       280
44.610       220
44.620       180
44.630       167
44.640       133
44.650       147
44.660       147
44.670       107
44.680       113
44.690        93
44.700       133
44.710        40
44.720        67
44.730        60
44.740        60
44.750        80
44.760        53
44.770        47
44.780        53
44.790        40
44.800        60
44.810        33
44.820        67
44.830        53
44.840        67
44.850        40
44.860        67
44.870        40
44.880        27
44.890        53
44.900        40
44.910        60
44.920        33
44.930        27
44.940        47
44.950        53
44.960        53
44.970        20
44.980        73
44.990        60
45.000        33
45.010        20
45.020        47
45.030        27
45.040        20
45.050        53
45.060        60
45.070        47
45.080        40
45.090        33
45.100        27
45.110        20
45.120        33
45.130        40
45.140        47
45.150        60
45.160        13
45.170        13
45.180        27
45.190        33
45.200        27
45.210        33
45.220        33
45.230        27
45.240        40
45.250        20
45.260        20
45.270         7
45.280        20
45.290        33
45.300        47
45.310        13
45.320        13
45.330        47
45.340        20
45.350        47
45.360        47
45.370        27
45.380        33
45.390        33
45.400        27
45.410        27
45.420        53
45.430        40
45.440        20
45.450        27
45.460        40
45.470        53
45.480        40
45.490        80
45.500        20
45.510        13
45.520        27
45.530        33
45.540        40
45.550        67
45.560        13
45.570        53
45.580        13
45.590        20
45.600        27
45.610        20
45.620        13
45.630        20
45.640        33
45.650        27
45.660        33
45.670        40
45.680        33
45.690        40
45.700        33
45.710        40
45.720        47
45.730        60
45.740        33
45.750        20
45.760        47
45.770        20
45.780        27
45.790        27
45.800        60
45.810        40
45.820        40
45.830        13
45.840        20
45.850        13
45.860        40
45.870        27
45.880        53
45.890        27
45.900         7
45.910        13
45.920        20
45.930        27
45.940        20
45.950        13
45.960        33
45.970        13
45.980        20
45.990        27
46.000        40
46.010        20
46.020        33
46.030        27
46.040        53
46.050        27
46.060        33
46.070        13
46.080         7
46.090        40
46.100         0
46.110        20
46.120        27
46.130        20
46.140        40
46.150        13
46.160        40
46.170        27
46.180        20
46.190        33
46.200        13
46.210        53
46.220        13
46.230        27
46.240        20
46.250        27
46.260        20
46.270         0
46.280        13
46.290         7
46.300        13
46.310        13
46.320        27
46.330        13
46.340        40
46.350        20
46.360        27
46.370         7
46.380        33
46.390        33
46.400        33
46.410         7
46.420        13
46.430        67
46.440        20
46.450        13
46.460        20
46.470         7
46.480         7
46.490        20
46.500        13
46.510         7
46.520         7
46.530        13
46.540        20
46.550        33
46.560        27
46.570        20
46.580        33
46.590        27
46.600         0
46.610        20
46.620        33
46.630        13
46.640        33
46.650        13
46.660        27
46.670        27
46.680         7
46.690        40
46.700        53
46.710        47
46.720        33
46.730         0
46.740        27
46.750        27
46.760        27
46.770        33
46.780        13
46.790        13
46.800        20
46.810        47
46.820        27
46.830        33
46.840        27
46.850        33
46.860        20
46.870        27
46.880        27
46.890        20
46.900        33
46.910        20
46.920        47
46.930        20
46.940        33
46.950        13
46.960        20
46.970        27
46.980        20
46.990        33
47.000        20
47.010         7
47.020        20
47.030        20
47.040        20
47.050        13
47.060        13
47.070         7
47.080        13
47.090        33
47.100        33
47.110        27
47.120        27
47.130        13
47.140        33
47.150        13
47.160        20
47.170        47
47.180        33
47.190        40
47.200        20
47.210        13
47.220        20
47.230        33
47.240        20
47.250        20
47.260        40
47.270        47
47.280        40
47.290        20
47.300        13
47.310         0
47.320        20
47.330        13
47.340        13
47.350        33
47.360        27
47.370        27
47.380         7
47.390        13
47.400        33
47.410        27
47.420         7
47.430        27
47.440        27
47.450        33
47.460        33
47.470        27
47.480        33
47.490        40
47.500        20
47.510        20
47.520        53
47.530        13
47.540        27
47.550        20
47.560        33
47.570        40
47.580        20
47.590        33
47.600        13
47.610         7
47.620        27
47.630        33
47.640        13
47.650        13
47.660        20
47.670        13
47.680        13
47.690        33
47.700        60
47.710        13
47.720         7
47.730        40
47.740        27
47.750        27
47.760        67
47.770        13
47.780        13
47.790        13
47.800        20
47.810        20
47.820        20
47.830        40
47.840         7
47.850        20
47.860        33
47.870        33
47.880        13
47.890        13
47.900        13
47.910        40
47.920         7
47.930         7
47.940        33
47.950        20
47.960        13
47.970        33
47.980        33
47.990        20
48.000        47
48.010        20
48.020        13
48.030        13
48.040        13
48.050        47
48.060        40
48.070        13
48.080        27
48.090         0
48.100        20
48.110        27
48.120        33
48.130         7
48.140         0
48.150        20
48.160        13
48.170        20
48.180        13
48.190         0
48.200        40
48.210        20
48.220        33
48.230        27
48.240        20
48.250        13
48.260        20
48.270        33
48.280        13
48.290        27
48.300        13
48.310        27
48.320        13
48.330         0
48.340         7
48.350        13
48.360        20
48.370        13
48.380        13
48.390        20
48.400        27
48.410        40
48.420        20
48.430        20
48.440        20
48.450        20
48.460        40
48.470        27
48.480        80
48.490        20
48.500        20
48.510         7
48.520        27
48.530        27
48.540        13
48.550        40
48.560        40
48.570        40
48.580        27
48.590        33
48.600        13
48.610        47
48.620         0
48.630        13
48.640         7
48.650        20
48.660        13
48.670        33
48.680        60
48.690         7
48.700        13
48.710        20
48.720        27
48.730        13
48.740        20
48.750        27
48.760        47
48.770        33
48.780        27
48.790        13
48.800        20
48.810        20
48.820        13
48.830        20
48.840         0
48.850        13
48.860        27
48.870        20
48.880        27
48.890        20
48.900        47
48.910         7
48.920        27
48.930        40
48.940        20
48.950         7
48.960        20
48.970        13
48.980         0
48.990         7
49.000        33
49.010        27
49.020        13
49.030        20
49.040        27
49.050        13
49.060        13
49.070        13
49.080         7
49.090         0
49.100        27
49.110         7
49.120        13
49.130        40
49.140        13
49.150        27
49.160        33
49.170        27
49.180        33
49.190        27
49.200         7
49.210        20
49.220        40
49.230        13
49.240        27
49.250        47
49.260        27
49.270         0
49.280         0
49.290        13
49.300         7
49.310        27
49.320        27
49.330         7
49.340        13
49.350        13
49.360         7
49.370        13
49.380         7
49.390        33
49.400        20
49.410        20
49.420        20
49.430         7
49.440        33
49.450        20
49.460         7
49.470        33
49.480        20
49.490        13
49.500        13
49.510        13
49.520        20
49.530        40
49.540        20
49.550        13
49.560        13
49.570        27
49.580        27
49.590        13
49.600        27
49.610        33
49.620        27
49.630         7
49.640         0
49.650        33
49.660         7
49.670         0
49.680        20
49.690        33
49.700        20
49.710        20
49.720         7
49.730        20
49.740        27
49.750         7
49.760        33
49.770         7
49.780        20
49.790        27
49.800         7
49.810         7
49.820        27
49.830        27
49.840        13
49.850        27
49.860        13
49.870        27
49.880        20
49.890         0
49.900        27
49.910        40
49.920        13
49.930        33
49.940        20
49.950         0
49.960        20
49.970        20
49.980        40
49.990         0
50.000        40
50.010        13
50.020        40
50.030        20
50.040        40
50.050        13
50.060        33
50.070        40
50.080        27
50.090        13
50.100        27
50.110        33
50.120        33
50.130        27
50.140        13
50.150        13
50.160        27
50.170        20
50.180         7
50.190        20
50.200         7
50.210         7
50.220        27
50.230        20
50.240        33
50.250        13
50.260        27
50.270        20
50.280        13
50.290        27
50.300        13
50.310         7
50.320        13
50.330        27
50.340        40
50.350        33
50.360        13
50.370        13
50.380         7
50.390        13
50.400        27
50.410         7
50.420        13
50.430        20
50.440         7
50.450         7
50.460         7
50.470        20
50.480        33
50.490        40
50.500        13
50.510        13
50.520        27
50.530         7
50.540        40
50.550        33
50.560        13
50.570         7
50.580        40
50.590        13
50.600        13
50.610         7
50.620        13
50.630        33
50.640        20
50.650        27
50.660        20
50.670        40
50.680         7
50.690        33
50.700        13
50.710        40
50.720        40
50.730        27
50.740        27
50.750         0
50.760        47
50.770        13
50.780        33
50.790         7
50.800        20
50.810         7
50.820        40
50.830        13
50.840        27
50.850        20
50.860        33
50.870        20
50.880        13
50.890        13
50.900         0
50.910        27
50.920        27
50.930        33
50.940         7
50.950        13
50.960        33
50.970        13
50.980        33
50.990        33
51.000         7
51.010        20
51.020        33
51.030         7
51.040        27
51.050        20
51.060        20
51.070        20
51.080        33
51.090        27
51.100        27
51.110         7
51.120         7
51.130         7
51.140        13
51.150         7
51.160        20
51.170        27
51.180         0
51.190        20
51.200        20
51.210        13
51.220        27
51.230         7
51.240        27
51.250        47
51.260        20
51.270        27
51.280        13
51.290        20
51.300        20
51.310         7
51.320        20
51.330        20
51.340        27
51.350         7
51.360         7
51.370         0
51.380        27
51.390        20
51.400         7
51.410        13
51.420        20
51.430        27
51.440         7
51.450        27
51.460        40
51.470        13
51.480        33
51.490        33
51.500        27
51.510        13
51.520         7
51.530        13
51.540        20
51.550        27
51.560        27
51.570        27
51.580        20
51.590        20
51.600        27
51.610        40
51.620        13
51.630        27
51.640        13
51.650        33
51.660        33
51.670        13
51.680        33
51.690        13
51.700        13
51.710        20
51.720         7
51.730        40
51.740        33
51.750        47
51.760        27
51.770        40
51.780        13
51.790         7
51.800         7
51.810        13
51.820        27
51.830        27
51.840         7
51.850        20
51.860        27
51.870         7
51.880        13
51.890        53
51.900        13
51.910        40
51.920        13
51.930        20
51.940         7
51.950        20
51.960        40
51.970        20
51.980        40
51.990        27
52.000        60
52.010        47
52.020        20
52.030        27
52.040        33
52.050        27
52.060        40
52.070        27
52.080        13
52.090        13
52.100        33
52.110        27
52.120        40
52.130        20
52.140        20
52.150        47
52.160        27
52.170        73
52.180        13
52.190         7
52.200        20
52.210        20
52.220        20
52.230        33
52.240        27
52.250        33
52.260        20
52.270        27
52.280        47
52.290        20
52.300        40
52.310        53
52.320        33
52.330         7
52.340        33
52.350        33
52.360        20
52.370        67
52.380        73
52.390        53
52.400        67
52.410        47
52.420        33
52.430        73
52.440        87
52.450        73
52.460        53
52.470       100
52.480        93
52.490       120
52.500       107
52.510       113
52.520       127
52.530       167
52.540       167
52.550       207
52.560       127
52.570       273
52.580       160
52.590       220
52.600       187
52.610       107
52.620       173
52.630       187
52.640       200
52.650       140
52.660       100
52.670        93
52.680        87
52.690       113
52.700       147
52.710       167
52.720       113
52.730        93
52.740       120
52.750        60
52.760       100
52.770        87
52.780        47
52.790        73
52.800        53
52.810        27
52.820        53
52.830        33
52.840        27
52.850        27
52.860         7
52.870        27
52.880        13
52.890        40
52.900        40
52.910        40
52.920        20
52.930        13
52.940        33
52.950        20
52.960        40
52.970        33
52.980        13
52.990        20
53.000        20
53.010        20
53.020        13
53.030        13
53.040        33
53.050        27
53.060         7
53.070        33
53.080        13
53.090        47
53.100        13
53.110        27
53.120        27
53.130        27
53.140        33
53.150        13
53.160        53
53.170        27
53.180        20
53.190        53
53.200        40
53.210         7
53.220         7
53.230        27
53.240         7
53.250        20
53.260        20
53.270        67
53.280        33
53.290        27
53.300        27
53.310        27
53.320        13
53.330        13
53.340        13
53.350        13
53.360         0
53.370        13
53.380        47
53.390        27
53.400        20
53.410        40
53.420        20
53.430        13
53.440        33
53.450        40
53.460         7
53.470        13
53.480        13
53.490        27
53.500        27
53.510        13
53.520        20
53.530        33
53.540        20
53.550        27
53.560        27
53.570         7
53.580        53
53.590         7
53.600        13
53.610        20
53.620        13
53.630        20
53.640        13
53.650         7
53.660        27
53.670        13
53.680        20
53.690        33
53.700        13
53.710        33
53.720        33
53.730        13
53.740        13
53.750        13
53.760         7
53.770        40
53.780         0
53.790        40
53.800        20
53.810        33
53.820        47
53.830        13
53.840        13
53.850         7
53.860        27
53.870        13
53.880        27
53.890        13
53.900        40
53.910        27
53.920        20
53.930        20
53.940         0
53.950        33
53.960        20
53.970        27
53.980        27
53.990         0
54.000         0
54.010        20
54.020        40
54.030        20
54.040        13
54.050        13
54.060        13
54.070         7
54.080        47
54.090         7
54.100        27
54.110         0
54.120        27
54.130         7
54.140        13
54.150         7
54.160         0
54.170         0
54.180        13
54.190        27
54.200        40
54.210        27
54.220        27
54.230        20
54.240        20
54.250        13
54.260        13
54.270        27
54.280        20
54.290        27
54.300        27
54.310        27
54.320        13
54.330        33
54.340        47
54.350        13
54.360         7
54.370         7
54.380        33
54.390        20
54.400         7
54.410        13
54.420        33
54.430         0
54.440        13
54.450        20
54.460         0
54.470         7
54.480         7
54.490         7
54.500         7
54.510         7
54.520        20
54.530        13
54.540         7
54.550        27
54.560        27
54.570         7
54.580        27
54.590        13
54.600         7
54.610        13
54.620        20
54.630        27
54.640        27
54.650         0
54.660        20
54.670        33
54.680         7
54.690        13
54.700         0
54.710        20
54.720        20
54.730         0
54.740        20
54.750         0
54.760        20
54.770        47
54.780         7
54.790        13
54.800        20
54.810        20
54.820        13
54.830        20
54.840        13
54.850        33
54.860        33
54.870        47
54.880        13
54.890        13
54.900        33
54.910        40
54.920        13
54.930        40
54.940        20
54.950        80
54.960        67
54.970        33
54.980        40
54.990        60
55.000        47
55.010        60
55.020        73
55.030        47
55.040        67
55.050       113
55.060       120
55.070        87
55.080       107
55.090        60
55.100        73
55.110        80
55.120        80
55.130       120
55.140       133
55.150        67
55.160        87
55.170       107
55.180        73
55.190       140
55.200        93
55.210        80
55.220        87
55.230        67
55.240        67
55.250        73
55.260        60
55.270        60
55.280        73
55.290        67
55.300        93
55.310        87
55.320        53
55.330        87
55.340        47
55.350        13
55.360        47
55.370        47
55.380        20
55.390        27
55.400        33
55.410        67
55.420        20
55.430        20
55.440        33
55.450        13
55.460        33
55.470        27
55.480         7
55.490        20
55.500         0
55.510        13
55.520        33
55.530        13
55.540        27
55.550        27
55.560        20
55.570        27
55.580        40
55.590        20
55.600        13
55.610         7
55.620        20
55.630        13
55.640        27
55.650        13
55.660        13
55.670        20
55.680        13
55.690        13
55.700         7
55.710        20
55.720        27
55.730        20
55.740        13
55.750         7
55.760         0
55.770        13
55.780        13
55.790        20
55.800        20
55.810         0
55.820        27
55.830        13
55.840        20
55.850        20
55.860        40
55.870        20
55.880        13
55.890         7
55.900        27
55.910         7
55.920        27
55.930        20
55.940        13
55.950        20
55.960         7
55.970         0
55.980         0
55.990        20
56.000        13
56.010        13
56.020         7
56.030        20
56.040        13
56.050         7
56.060        13
56.070        13
56.080        13
56.090        33
56.100        20
56.110        13
56.120         0
56.130         0
56.140         0
56.150        13
56.160         7
56.170        40
56.180         7
56.190        13
56.200         7
56.210         7
56.220        40
56.230        13
56.240        20
56.250        13
56.260        27
56.270         7
56.280        33
56.290        20
56.300        13
56.310        20
56.320        13
56.330        27
56.340        20
56.350         7
56.360        13
56.370        13
56.380         7
56.390        13
56.400        13
56.410        20
56.420        13
56.430        13
56.440        13
56.450        13
56.460         0
56.470         7
56.480        20
56.490         7
56.500        67
56.510        40
56.520        20
56.530        20
56.540         7
56.550        27
56.560         0
56.570        27
56.580        33
56.590        27
56.600        33
56.610        13
56.620        13
56.630        20
56.640        60
56.650        13
56.660        20
56.670        33
56.680        13
56.690         7
56.700         7
56.710         0
56.720        20
56.730        27
56.740        20
56.750         0
56.760        33
56.770        27
56.780        13
56.790        13
56.800         7
56.810        20
56.820         7
56.830        47
56.840        13
56.850        20
56.860        13
56.870        27
56.880        13
56.890        33
56.900        20
56.910        13
56.920        13
56.930        20
56.940        27
56.950         7
56.960        13
56.970         7
56.980        20
56.990         7
57.000        27
57.010        20
57.020        13
57.030        27
57.040        13
57.050         7
57.060        13
57.070        13
57.080         0
57.090        20
57.100         0
57.110        27
57.120        13
57.130        27
57.140         7
57.150        20
57.160         7
57.170        13
57.180        33
57.190        33
57.200        20
57.210        13
57.220         0
57.230        20
57.240         7
57.250        13
57.260        13
57.270        27
57.280        27
57.290        20
57.300        40
57.310        13
57.320        20
57.330        27
57.340        20
57.350         7
57.360        27
57.370        33
57.380        27
57.390        20
57.400        20
57.410        20
57.420        33
57.430        27
57.440         0
57.450        33
57.460        20
57.470         7
57.480        27
57.490         7
57.500        20
57.510        40
57.520        13
57.530        20
57.540        20
57.550        33
57.560        13
57.570         0
57.580        27
57.590        33
57.600        20
57.610        13
57.620        20
57.630        27
57.640         7
57.650        13
57.660        13
57.670        20
57.680         7
57.690         7
57.700        27
57.710        47
57.720        27
57.730        13
57.740         0
57.750        27
57.760        13
57.770        13
57.780         7
57.790        27
57.800        13
57.810         7
57.820        27
57.830        33
57.840        20
57.850        27
57.860         7
57.870        13
57.880         7
57.890         7
57.900        20
57.910        20
57.920        20
57.930         0
57.940        27
57.950         0
57.960        20
57.970         7
57.980         7
57.990         7
58.000        33
58.010        13
58.020         0
58.030        20
58.040         0
58.050        13
58.060         0
58.070        20
58.080        20
58.090         7
58.100         7
58.110        27
58.120         7
58.130         7
58.140        13
58.150        13
58.160        20
58.170        20
58.180        13
58.190        20
58.200        33
58.210         7
58.220        13
58.230        33
58.240        27
58.250        33
58.260        20
58.270        20
58.280         7
58.290        13
58.300        13
58.310        27
58.320         7
58.330        20
58.340         7
58.350        13
58.360        13
58.370        13
58.380        20
58.390        20
58.400        13
58.410        13
58.420         0
58.430         7
58.440        13
58.450        27
58.460         0
58.470         0
58.480         7
58.490        13
58.500        27
58.510        33
58.520         7
58.530        13
58.540        13
58.550        27
58.560         0
58.570         0
58.580         7
58.590         7
58.600        27
58.610        20
58.620        13
58.630        13
58.640         7
58.650        13
58.660        27
58.670        13
58.680        13
58.690         7
58.700         7
58.710        27
58.720        27
58.730        13
58.740        33
58.750         7
58.760        13
58.770        27
58.780        13
58.790         7
58.800        13
58.810        27
58.820        20
58.830        13
58.840         0
58.850         7
58.860         0
58.870         7
58.880        13
58.890         7
58.900         7
58.910         0
58.920        33
58.930        20
58.940        40
58.950         7
58.960        27
58.970        27
58.980        13
58.990        20
59.000        13
59.010         0
59.020        13
59.030        33
59.040         7
59.050         0
59.060         7
59.070        13
59.080        27
59.090        13
59.100         7
59.110         7
59.120        13
59.130        33
59.140        20
59.150        13
59.160        20
59.170        13
59.180        20
59.190         7
59.200         7
59.210        40
59.220         7
59.230        13
59.240        13
59.250         0
59.260         7
59.270        13
59.280        13
59.290         0
59.300        20
59.310         7
59.320        20
59.330         7
59.340         0
59.350         0
59.360         0
59.370        13
59.380         7
59.390        33
59.400         7
59.410        13
59.420        27
59.430        20
59.440         7
59.450        20
59.460         7
59.470        27
59.480         7
59.490         7
59.500        20
59.510         0
59.520        13
59.530         7
59.540        20
59.550         0
59.560         0
59.570         0
59.580        53
59.590         7
59.600        33
59.610        47
59.620        20
59.630         7
59.640        27
59.650         7
59.660         7
59.670        20
59.680         7
59.690         7
59.700         7
59.710         7
59.720        20
59.730        13
59.740         7
59.750         0
59.760        20
59.770        47
59.780        20
59.790         7
59.800        13
59.810         7
59.820         7
59.830         7
59.840         7
59.850         0
59.860         0
59.870        13
59.880        20
59.890         0
59.900        20
59.910         0
59.920        27
59.930         7
59.940        27
59.950         7
59.960         0
59.970         0
59.980        13
59.990         0
60.000         0
