20.000        33
20.010        33
20.020        40
20.030        47
20.040        27
20.050        13
20.060        40
20.070        27
20.080        33
20.090        47
20.100        40
20.110        40
20.120        67
20.130        40
20.140        27
20.150        93
20.160        13
20.170        40
20.180        47
20.190        60
20.200         7
20.210        73
20.220        40
20.230        40
20.240        60
20.250        67
20.260        33
20.270        47
20.280        33
20.290        67
20.300        33
20.310        40
20.320        27
20.330        40
20.340        40
20.350        53
20.360        80
20.370        73
20.380        47
20.390        60
20.400        27
20.410        33
20.420       100
20.430        40
20.440        27
20.450        53
20.460        13
20.470        40
20.480        40
20.490         7
20.500        20
20.510        47
20.520        60
20.530        47
20.540        53
20.550        53
20.560        47
20.570        40
20.580        67
20.590        33
20.600        47
20.610        20
20.620        53
20.630        80
20.640        53
20.650        27
20.660        47
20.670        47
20.680        73
20.690        80
20.700        67
20.710        27
20.720         0
20.730        20
20.740        47
20.750        47
20.760        20
20.770        87
20.780        47
20.790         0
20.800        40
20.810        27
20.820        20
20.830        33
20.840        20
20.850        40
20.860        47
20.870        53
20.880        47
20.890        47
20.900        20
20.910        40
20.920        53
20.930        53
20.940        73
20.950        33
20.960        53
20.970        80
20.980        33
20.990        47
21.000        27
21.010        53
21.020        40
21.030        33
21.040        40
21.050        53
21.060        53
21.070        47
21.080        27
21.090        53
21.100        53
21.110        47
21.120        47
21.130        40
21.140        40
21.150        73
21.160        40
21.170        47
21.180        27
21.190        80
21.200        33
21.210        20
21.220        53
21.230        40
21.240        40
21.250        40
21.260        93
21.270        40
21.280        53
21.290        53
21.300        93
21.310        80
21.320        60
21.330        33
21.340        27
21.350        53
21.360        47
21.370        13
21.380        40
21.390        33
21.400        53
21.410        33
21.420        33
21.430        33
21.440        27
21.450        27
21.460        27
21.470        60
21.480         7
21.490        27
21.500        13
21.510        80
21.520        40
21.530        40
21.540        13
21.550        47
21.560        20
21.570         7
21.580        73
21.590        47
21.600        53
21.610        40
21.620        53
21.630        33
21.640        33
21.650        53
21.660        40
21.670        47
21.680        33
21.690        53
21.700        33
21.710        27
21.720        20
21.730        27
21.740        33
21.750        67
21.760        20
21.770        47
21.780         7
21.790        40
21.800        40
21.810        40
21.820        33
21.830        87
21.840        40
21.850        27
21.860        27
21.870        40
21.880        67
21.890        20
21.900        33
21.910        40
21.920        40
21.930        40
21.940        60
21.950        33
21.960        47
21.970        47
21.980       107
21.990        20
22.000        40
22.010        13
22.020        47
22.030        47
22.040        20
22.050        47
22.060        47
22.070        47
22.080        40
22.090        87
22.100        47
22.110        53
22.120        53
22.130        27
22.140        47
22.150        47
22.160        73
22.170        27
22.180        53
22.190        40
22.200        33
22.210        80
22.220        53
22.230        33
22.240        20
22.250        53
22.260        60
22.270        47
22.280        47
22.290        67
22.300        60
22.310        33
22.320        53
22.330        73
22.340        33
22.350        80
22.360        73
22.370        33
22.380        80
22.390        53
22.400        80
22.410        53
22.420        80
22.430       127
22.440        67
22.450       113
22.460       107
22.470       127
22.480       173
22.490       133
22.500       140
22.510       133
22.520       133
22.530       207
22.540       153
22.550       187
22.560       180
22.570       220
22.580       227
22.590       227
22.600       247
22.610       207
22.620       300
22.630       327
22.640       247
22.650       293
22.660       187
22.670       280
22.680       253
22.690       313
22.700       247
22.710       167
22.720       273
22.730       173
22.740       187
22.750       187
22.760       227
22.770       140
22.780       107
22.790       120
22.800       107
22.810       120
22.820       140
22.830       107
22.840       140
22.850        87
22.860       113
22.870       140
22.880       133
22.890        53
22.900       113
22.910        80
22.920       127
22.930        73
22.940       127
22.950        87
22.960       107
22.970        47
22.980        47
22.990        87
23.000        87
23.010        60
23.020        87
23.030        53
23.040        67
23.050        40
23.060        73
23.070        33
23.080        67
23.090        80
23.100        73
23.110        53
23.120        27
23.130        33
23.140        33
23.150        53
23.160        80
23.170        53
23.180        40
23.190        67
23.200        67
23.210        40
23.220        33
23.230        40
23.240        73
23.250        13
23.260        53
23.270        60
23.280        53
23.290        20
23.300        67
23.310        40
23.320        67
23.330        13
23.340        53
23.350        53
23.360        60
23.370        53
23.380        33
23.390        40
23.400        80
23.410        33
23.420        33
23.430        20
23.440        47
23.450        40
23.460        40
23.470        53
23.480        33
23.490        47
23.500        33
23.510        33
23.520        27
23.530        33
23.540        27
23.550        60
23.560        33
23.570        60
23.580        60
23.590        40
23.600        40
23.610        53
23.620        60
23.630        53
23.640        60
23.650        40
23.660        40
23.670        40
23.680         0
23.690        27
23.700        40
23.710        27
23.720        60
23.730        27
23.740        27
23.750        73
23.760        40
23.770        40
23.780        53
23.790        60
23.800        33
23.810        40
23.820        27
23.830        47
23.840        67
23.850        20
23.860        47
23.870        47
23.880        33
23.890        60
23.900        40
23.910        27
23.920        40
23.930        33
23.940        27
23.950        33
23.960        53
23.970        53
23.980        53
23.990        33
24.000        20
24.010        60
24.020        20
24.030        20
24.040        13
24.050        13
24.060        47
24.070        53
24.080        73
24.090        47
24.100        27
24.110        40
24.120        47
24.130        33
24.140        13
24.150        27
24.160        53
24.170        40
24.180        20
24.190        20
24.200        20
24.210        33
24.220        13
24.230        33
24.240        73
24.250        27
24.260        33
24.270        40
24.280        40
24.290        33
24.300        27
24.310        47
24.320        27
24.330        40
24.340        47
24.350        40
24.360        27
24.370        33
24.380        40
24.390        27
24.400        47
24.410        60
24.420        33
24.430        27
24.440        53
24.450        33
24.460        33
24.470        13
24.480        20
24.490        53
24.500        33
24.510        20
24.520        53
24.530        13
24.540        60
24.550        27
24.560        40
24.570        20
24.580        27
24.590        60
24.600        40
24.610        33
24.620        60
24.630        33
24.640        60
24.650        73
24.660        33
24.670        27
24.680        80
24.690        20
24.700        27
24.710        47
24.720        13
24.730        27
24.740        60
24.750        60
24.760        27
24.770        27
24.780        47
24.790        33
24.800        33
24.810        33
24.820        53
24.830        47
24.840        13
24.850        13
24.860        20
24.870        47
24.880        33
24.890        13
24.900        20
24.910        53
24.920        67
24.930        67
24.940        47
24.950        33
24.960        73
24.970        33
24.980        27
24.990        40
25.000         7
25.010        13
25.020        33
25.030        27
25.040        47
25.050        20
25.060        60
25.070        20
25.080        27
25.090        27
25.100        53
25.110        27
25.120        33
25.130        27
25.140        20
25.150        60
25.160        20
25.170        40
25.180        27
25.190        60
25.200        33
25.210        47
25.220        53
25.230        27
25.240        40
25.250        40
25.260        33
25.270        53
25.280        47
25.290         0
25.300        47
25.310        13
25.320        13
25.330        47
25.340        33
25.350        40
25.360        20
25.370        13
25.380        47
25.390        27
25.400        20
25.410        33
25.420        40
25.430        47
25.440        20
25.450        27
25.460        40
25.470        13
25.480        27
25.490        13
25.500        33
25.510        20
25.520        40
25.530        47
25.540        27
25.550        47
25.560        40
25.570        40
25.580        47
25.590        53
25.600        33
25.610        20
25.620        67
25.630        73
25.640        47
25.650        33
25.660        53
25.670        33
25.680        40
25.690        20
25.700        20
25.710        27
25.720        27
25.730        40
25.740        27
25.750        53
25.760        13
25.770        20
25.780        40
25.790        20
25.800        60
25.810        33
25.820        33
25.830        60
25.840        40
25.850        27
25.860        27
25.870        40
25.880        27
25.890        53
25.900        20
25.910        20
25.920        13
25.930        13
25.940        47
25.950        27
25.960        20
25.970        47
25.980        33
25.990        53
26.000        40
26.010         7
26.020        27
26.030        13
26.040        33
26.050        60
26.060        33
26.070        27
26.080         7
26.090        33
26.100        40
26.110        40
26.120        27
26.130        27
26.140        27
26.150        40
26.160        53
26.170        53
26.180        27
26.190        27
26.200        27
26.210        40
26.220        33
26.230         7
26.240         7
26.250        40
26.260        13
26.270        20
26.280        33
26.290        20
26.300        33
26.310         7
26.320         0
26.330        33
26.340        40
26.350        33
26.360        33
26.370        53
26.380        20
26.390        33
26.400        20
26.410        27
26.420        13
26.430        33
26.440        47
26.450         7
26.460        27
26.470        33
26.480        13
26.490        20
26.500        40
26.510        20
26.520        33
26.530        40
26.540        20
26.550        27
26.560        33
26.570        27
26.580        20
26.590        33
26.600        53
26.610        20
26.620        20
26.630        20
26.640        20
26.650        20
26.660        33
26.670        27
26.680        13
26.690        20
26.700        33
26.710        40
26.720         7
26.730        40
26.740        33
26.750        40
26.760        20
26.770        40
26.780        40
26.790        13
26.800        47
26.810        27
26.820        20
26.830        20
26.840        20
26.850         0
26.860        33
26.870        13
26.880        27
26.890        40
26.900         7
26.910        47
26.920        20
26.930        13
26.940         0
26.950         0
26.960         7
26.970        20
26.980        27
26.990        33
27.000        33
27.010        20
27.020        13
27.030        47
27.040        53
27.050        40
27.060        40
27.070        33
27.080        40
27.090        13
27.100        67
27.110        33
27.120         7
27.130        33
27.140        20
27.150        20
27.160        67
27.170        27
27.180        33
27.190        60
27.200        40
27.210        27
27.220        33
27.230        20
27.240        27
27.250         7
27.260        33
27.270        47
27.280        13
27.290        27
27.300        33
27.310        27
27.320        20
27.330        53
27.340        20
27.350        40
27.360        40
27.370        33
27.380        40
27.390        20
27.400        33
27.410        33
27.420        20
27.430        13
27.440        47
27.450        13
27.460        20
27.470        13
27.480        20
27.490        27
27.500        33
27.510        13
27.520        20
27.530        33
27.540        33
27.550        53
27.560        33
27.570        73
27.580        20
27.590        27
27.600         7
27.610        47
27.620        60
27.630        33
27.640        47
27.650        20
27.660        20
27.670        27
27.680        27
27.690        47
27.700        53
27.710        40
27.720        20
27.730        47
27.740        40
27.750        33
27.760        27
27.770        47
27.780        47
27.790        33
27.800        13
27.810        33
27.820        40
27.830        13
27.840        20
27.850        27
27.860        20
27.870        53
27.880        60
27.890        40
27.900        27
27.910        40
27.920        40
27.930        33
27.940         7
27.950        20
27.960        27
27.970        33
27.980        40
27.990        20
28.000        27
28.010        27
28.020        47
28.030        27
28.040        40
28.050        20
28.060        53
28.070        47
28.080        20
28.090        33
28.100        40
28.110        13
28.120        13
28.130        20
28.140         7
28.150         7
28.160        27
28.170         7
28.180        27
28.190        20
28.200        33
28.210        20
28.220        20
28.230        27
28.240        20
28.250        20
28.260        27
28.270        40
28.280         7
28.290        53
28.300        60
28.310        40
28.320        20
28.330        27
28.340        67
28.350        20
28.360        40
28.370        33
28.380         7
28.390        27
28.400        13
28.410        47
28.420        33
28.430        33
28.440        27
28.450        40
28.460         7
28.470        20
28.480        27
28.490        40
28.500        13
28.510        27
28.520        33
28.530        13
28.540         7
28.550        33
28.560        27
28.570         7
28.580        27
28.590        13
28.600        20
28.610        27
28.620        20
28.630        33
28.640        27
28.650        33
28.660        40
28.670        27
28.680        20
28.690        27
28.700         7
28.710        27
28.720        47
28.730        47
28.740        20
28.750        33
28.760        20
28.770        40
28.780        20
28.790        27
28.800        40
28.810        27
28.820        27
28.830        27
28.840        33
28.850        33
28.860        33
28.870         7
28.880        20
28.890        13
28.900        13
28.910        13
28.920         7
28.930        67
28.940        40
28.950        33
28.960        40
28.970        20
28.980        47
28.990        33
29.000        33
29.010        33
29.020        47
29.030        13
29.040        67
29.050        33
29.060        47
29.070        27
29.080        20
29.090        33
29.100        27
29.110        13
29.120        53
29.130        33
29.140        47
29.150        20
29.160        53
29.170        40
29.180        27
29.190        33
29.200        20
29.210        47
29.220        40
29.230        40
29.240        33
29.250        53
29.260        40
29.270        33
29.280        60
29.290        47
29.300        20
29.310        67
29.320        53
29.330        20
29.340        53
29.350        27
29.360        47
29.370        53
29.380        40
29.390        67
29.400        33
29.410        20
29.420        20
29.430        40
29.440        20
29.450        27
29.460        40
29.470        33
29.480        27
29.490         0
29.500        53
29.510        40
29.520        20
29.530        20
29.540        27
29.550        13
29.560        47
29.570        20
29.580        27
29.590        47
29.600         0
29.610        13
29.620        27
29.630        20
29.640        40
29.650        33
29.660         7
29.670        20
29.680        47
29.690        47
29.700        53
29.710        13
29.720        33
29.730        27
29.740        27
29.750        33
29.760         7
29.770        20
29.780        27
29.790        33
29.800        40
29.810        67
29.820         7
29.830         0
29.840        27
29.850        20
29.860        33
29.870        40
29.880        27
29.890        33
29.900        20
29.910        27
29.920        20
29.930        13
29.940        27
29.950        13
29.960         7
29.970        13
29.980        20
29.990        40
30.000        20
30.010         7
30.020        13
30.030         7
30.040        20
30.050        27
30.060        47
30.070        13
30.080        73
30.090         7
30.100        27
30.110        27
30.120        20
30.130        13
30.140        20
30.150         7
30.160        20
30.170        13
30.180        33
30.190        13
30.200        13
30.210        20
30.220        33
30.230        20
30.240         7
30.250        20
30.260        20
30.270        33
30.280        47
30.290        13
30.300        33
30.310        33
30.320        27
30.330        33
30.340        40
30.350        47
30.360        33
30.370        20
30.380        20
30.390        13
30.400         0
30.410        20
30.420        20
30.430        13
30.440        33
30.450        13
30.460        40
30.470         7
30.480        40
30.490        20
30.500        13
30.510        13
30.520        33
30.530        13
30.540        20
30.550         7
30.560        13
30.570        47
30.580        20
30.590        20
30.600        33
30.610        40
30.620        20
30.630        20
30.640        20
30.650         7
30.660        33
30.670        33
30.680        47
30.690        13
30.700        33
30.710        47
30.720        20
30.730        40
30.740        60
30.750        33
30.760        20
30.770        13
30.780         0
30.790         0
30.800        53
30.810        13
30.820        47
30.830        27
30.840        53
30.850        40
30.860        13
30.870        40
30.880        33
30.890        27
30.900        27
30.910        27
30.920        20
30.930        33
30.940        13
30.950        27
30.960        20
30.970        27
30.980         7
30.990        20
31.000        33
31.010        33
31.020        33
31.030        27
31.040        27
31.050        67
31.060        40
31.070        13
31.080        20
31.090        20
31.100        27
31.110        20
31.120        33
31.130        20
31.140        20
31.150        40
31.160        33
31.170        13
31.180        60
31.190        27
31.200        27
31.210        33
31.220        40
31.230        20
31.240        47
31.250        33
31.260        60
31.270        40
31.280        27
31.290        40
31.300        33
31.310        20
31.320        20
31.330        27
31.340        20
31.350        33
31.360        20
31.370        20
31.380        33
31.390        27
31.400        27
31.410        33
31.420        13
31.430        40
31.440        47
31.450        47
31.460        47
31.470        20
31.480        33
31.490        20
31.500        13
31.510        27
31.520        53
31.530        40
31.540        20
31.550        20
31.560        60
31.570        33
31.580        40
31.590        20
31.600        47
31.610        20
31.620        40
31.630        53
31.640        40
31.650        47
31.660        33
31.670        40
31.680        60
31.690        20
31.700        53
31.710        47
31.720        20
31.730        33
31.740        33
31.750        60
31.760        53
31.770        40
31.780        60
31.790        40
31.800        47
31.810        47
31.820        40
31.830        80
31.840        53
31.850        53
31.860        80
31.870        67
31.880        20
31.890        53
31.900        47
31.910        47
31.920        60
31.930        67
31.940        87
31.950        73
31.960       127
31.970        87
31.980        73
31.990       140
32.000        80
32.010        87
32.020       113
32.030       147
32.040       167
32.050       133
32.060       227
32.070       147
32.080       180
32.090       153
32.100       247
32.110       233
32.120       240
32.130       280
32.140       327
32.150       287
32.160       333
32.170       340
32.180       473
32.190       333
32.200       440
32.210       560
32.220       506
32.230       580
32.240       593
32.250       646
32.260       653
32.270       840
32.280       766
32.290       873
32.300      1033
32.310      1040
32.320      1053
32.330      1093
32.340      1166
32.350      1206
32.360      1106
32.370      1093
32.380      1319
32.390      1233
32.400      1140
32.410       980
32.420       986
32.430      1120
32.440       900
32.450      1000
32.460       906
32.470       806
32.480       946
32.490       953
32.500       753
32.510       933
32.520       693
32.530       586
32.540       546
32.550       726
32.560       566
32.570       407
32.580       413
32.590       353
32.600       340
32.610       473
32.620       393
32.630       413
32.640       260
32.650       260
32.660       267
32.670       200
32.680       247
32.690       173
32.700       193
32.710       127
32.720       120
32.730       147
32.740       133
32.750       100
32.760       147
32.770        93
32.780       127
32.790        87
32.800        67
32.810       120
32.820       100
32.830        73
32.840        93
32.850        73
32.860        53
32.870        93
32.880        67
32.890        53
32.900       113
32.910        53
32.920        60
32.930        53
32.940        60
32.950        73
32.960        47
32.970        47
32.980        47
32.990        13
33.000        47
33.010        47
33.020        40
33.030        60
33.040        13
33.050        60
33.060        53
33.070        53
33.080        20
33.090        80
33.100        20
33.110        80
33.120        33
33.130        20
33.140        27
33.150        33
33.160        47
33.170        20
33.180        33
33.190        60
33.200        13
33.210        20
33.220        60
33.230        20
33.240        20
33.250        27
33.260        47
33.270        53
33.280        20
33.290        13
33.300        33
33.310        33
33.320        27
33.330        40
33.340        27
33.350        67
33.360        53
33.370        40
33.380        20
33.390        20
33.400        40
33.410        53
33.420        53
33.430        40
33.440        13
33.450        20
33.460        13
33.470        47
33.480        40
33.490        27
33.500        47
33.510        40
33.520        27
33.530        33
33.540         7
33.550        20
33.560        33
33.570        47
33.580        33
33.590        13
33.600        27
33.610         7
33.620        33
33.630        27
33.640        47
33.650        13
33.660        33
33.670        27
33.680        20
33.690        27
33.700        20
33.710        33
33.720         0
33.730        33
33.740        47
33.750         7
33.760        20
33.770         7
33.780        20
33.790        33
33.800        27
33.810        33
33.820        33
33.830        13
33.840         7
33.850        47
33.860         7
33.870         7
33.880        33
33.890        20
33.900        47
33.910        27
33.920        20
33.930        20
33.940        40
33.950        27
33.960        20
33.970        53
33.980        27
33.990        13
34.000        33
34.010        20
34.020        40
34.030        40
34.040        27
34.050        20
34.060        20
34.070        20
34.080        27
34.090        13
34.100        27
34.110        27
34.120        47
34.130        33
34.140         0
34.150        33
34.160        27
34.170        13
34.180        27
34.190        40
34.200        27
34.210        27
34.220         7
34.230         0
34.240        33
34.250        27
34.260        20
34.270        40
34.280        20
34.290        13
34.300        27
34.310         7
34.320        13
34.330        27
34.340        40
34.350        27
34.360        27
34.370        20
34.380        13
34.390         7
34.400        13
34.410         0
34.420        13
34.430         7
34.440        33
34.450        13
34.460        27
34.470        20
34.480        47
34.490        20
34.500        13
34.510        20
34.520        40
34.530        27
34.540        33
34.550        33
34.560        13
34.570        33
34.580        27
34.590        13
34.600        33
34.610        27
34.620        27
34.630        27
34.640        27
34.650         7
34.660        33
34.670        33
34.680         7
34.690        13
34.700        33
34.710         7
34.720        33
34.730        27
34.740        33
34.750        20
34.760        20
34.770        47
34.780        47
34.790        20
34.800        27
34.810         7
34.820        33
34.830        27
34.840        13
34.850        27
34.860         7
34.870        47
34.880        20
34.890        20
34.900        13
34.910         7
34.920         7
34.930         7
34.940        40
34.950        13
34.960        20
34.970        13
34.980        47
34.990        20
35.000        20
35.010        27
35.020         0
35.030         7
35.040        13
35.050         7
35.060        33
35.070        47
35.080        27
35.090        27
35.100         0
35.110        33
35.120        27
35.130        40
35.140         0
35.150         7
35.160         7
35.170        13
35.180        20
35.190        40
35.200         0
35.210        20
35.220         7
35.230        27
35.240        13
35.250        53
35.260        13
35.270        27
35.280        27
35.290        13
35.300        13
35.310        27
35.320         7
35.330        27
35.340        27
35.350        33
35.360         7
35.370        47
35.380        20
35.390         0
35.400        20
35.410         7
35.420        13
35.430        13
35.440        53
35.450         7
35.460         0
35.470        53
35.480        40
35.490        20
35.500        40
35.510        33
35.520        20
35.530        33
35.540        33
35.550        27
35.560         7
35.570        33
35.580        13
35.590        27
35.600        33
35.610        20
35.620        27
35.630        20
35.640        60
35.650        33
35.660        27
35.670        40
35.680         7
35.690        20
35.700        60
35.710        40
35.720        53
35.730        13
35.740        20
35.750        27
35.760        27
35.770         7
35.780        27
35.790        13
35.800        33
35.810         7
35.820        20
35.830        47
35.840        27
35.850        33
35.860        40
35.870        40
35.880        20
35.890        27
35.900        27
35.910        20
35.920        13
35.930        13
35.940         7
35.950        47
35.960        20
35.970        33
35.980        33
35.990        27
36.000         7
36.010        13
36.020        20
36.030         7
36.040        47
36.050        33
36.060        27
36.070        13
36.080        27
36.090        27
36.100        13
36.110        13
36.120        13
36.130        27
36.140        20
36.150        33
36.160        13
36.170        13
36.180        13
36.190        27
36.200        47
36.210        20
36.220        47
36.230        13
36.240         7
36.250        40
36.260        33
36.270        20
36.280        20
36.290         7
36.300         0
36.310         0
36.320        20
36.330         7
36.340        13
36.350        33
36.360        20
36.370        20
36.380        13
36.390        20
36.400        27
36.410        13
36.420        13
36.430        47
36.440         7
36.450        13
36.460         7
36.470        20
36.480        20
36.490        20
36.500        13
36.510        20
36.520        13
36.530         7
36.540         7
36.550        13
36.560        20
36.570        20
36.580        33
36.590        13
36.600        20
36.610         7
36.620        53
36.630        20
36.640         0
36.650        27
36.660        20
36.670        20
36.680        20
36.690        20
36.700         7
36.710        13
36.720        33
36.730        20
36.740         7
36.750        13
36.760        13
36.770        13
36.780        33
36.790        13
36.800        27
36.810        20
36.820        20
36.830        13
36.840        40
36.850         7
36.860        20
36.870        33
36.880        20
36.890         7
36.900         7
36.910        20
36.920        13
36.930        20
36.940        20
36.950        13
36.960        20
36.970        40
36.980        20
36.990        27
37.000        40
37.010        47
37.020        27
37.030        20
37.040        40
37.050        27
37.060        27
37.070        13
37.080        13
37.090         7
37.100        33
37.110        13
37.120         7
37.130        33
37.140        40
37.150        27
37.160        33
37.170        27
37.180        33
37.190        20
37.200        27
37.210        33
37.220         7
37.230        13
37.240        13
37.250        13
37.260        33
37.270        53
37.280        20
37.290        20
37.300        13
37.310        33
37.320        27
37.330        20
37.340        40
37.350        13
37.360         7
37.370        20
37.380        27
37.390        20
37.400         7
37.410         0
37.420         0
37.430         0
37.440        47
37.450        27
37.460        13
37.470        33
37.480        33
37.490         7
37.500         7
37.510        13
37.520        47
37.530        20
37.540        33
37.550        27
37.560        27
37.570         7
37.580        33
37.590        27
37.600        27
37.610        40
37.620        13
37.630        40
37.640        27
37.650        13
37.660        20
37.670        13
37.680        20
37.690        27
37.700        27
37.710        33
37.720        13
37.730        27
37.740        20
37.750        27
37.760        33
37.770        13
37.780        27
37.790        20
37.800        20
37.810         0
37.820         7
37.830        27
37.840        13
37.850        27
37.860        53
37.870        27
37.880        20
37.890        33
37.900         7
37.910        47
37.920        20
37.930        13
37.940        20
37.950        27
37.960         7
37.970        20
37.980        40
37.990        20
38.000        27
38.010         7
38.020        40
38.030        20
38.040        20
38.050        27
38.060        27
38.070        20
38.080        40
38.090        20
38.100        13
38.110        13
38.120         7
38.130         7
38.140        20
38.150        20
38.160        13
38.170        13
38.180        13
38.190        13
38.200        27
38.210         7
38.220        13
38.230        13
38.240        20
38.250         7
38.260         7
38.270        20
38.280        20
38.290        20
38.300        27
38.310         0
38.320        47
38.330        40
38.340        27
38.350        20
38.360        40
38.370         7
38.380        13
38.390         7
38.400        40
38.410        13
38.420        27
38.430        27
38.440        20
38.450        53
38.460        20
38.470        20
38.480        33
38.490        20
38.500        13
38.510        33
38.520         7
38.530         0
38.540         7
38.550        13
38.560        20
38.570        40
38.580        40
38.590        27
38.600         7
38.610        13
38.620        20
38.630        27
38.640        27
38.650         7
38.660        13
38.670        40
38.680         0
38.690         7
38.700        20
38.710        13
38.720         7
38.730        27
38.740        20
38.750        27
38.760        33
38.770        27
38.780        27
38.790        20
38.800        40
38.810         7
38.820        20
38.830        20
38.840        13
38.850        27
38.860        20
38.870         7
38.880        47
38.890        20
38.900         0
38.910        20
38.920        20
38.930        13
38.940         7
38.950        27
38.960        27
38.970         7
38.980        40
38.990        20
39.000        13
39.010        33
39.020        20
39.030        13
39.040        13
39.050        13
39.060        33
39.070         0
39.080        33
39.090        20
39.100        33
39.110        20
39.120        20
39.130         7
39.140        33
39.150        20
39.160        40
39.170         7
39.180        20
39.190        20
39.200        27
39.210        13
39.220        20
39.230        20
39.240        20
39.250        33
39.260         7
39.270        47
39.280        27
39.290        27
39.300        13
39.310        20
39.320         7
39.330        33
39.340        33
39.350         0
39.360        27
39.370        27
39.380        40
39.390        13
39.400        33
39.410        13
39.420        40
39.430        20
39.440        40
39.450        20
39.460        20
39.470         0
39.480         0
39.490        27
39.500        40
39.510         7
39.520         7
39.530        33
39.540        27
39.550        13
39.560        27
39.570        27
39.580        27
39.590        27
39.600        27
39.610        20
39.620        13
39.630        20
39.640        27
39.650         0
39.660        20
39.670        27
39.680         7
39.690         0
39.700        20
39.710        40
39.720        27
39.730        13
39.740        33
39.750        27
39.760        13
39.770         7
39.780        20
39.790        13
39.800         7
39.810        33
39.820        20
39.830        33
39.840        33
39.850        33
39.860        40
39.870        40
39.880        20
39.890        33
39.900        47
39.910        27
39.920        20
39.930        47
39.940        13
39.950        40
39.960        40
39.970        60
39.980        27
39.990        60
40.000        53
40.010        20
40.020        53
40.030        47
40.040        47
40.050        33
40.060        40
40.070        13
40.080        33
40.090        27
40.100        40
40.110        40
40.120        20
40.130        33
40.140        27
40.150        13
40.160        33
40.170        33
40.180        33
40.190        27
40.200        27
40.210         7
40.220        20
40.230        33
40.240        20
40.250         0
40.260        27
40.270         7
40.280        20
40.290        27
40.300        40
40.310        20
40.320        33
40.330        27
40.340        27
40.350        20
40.360        13
40.370        47
40.380         7
40.390        13
40.400        27
40.410        40
40.420         7
40.430        27
40.440        60
40.450        13
40.460         7
40.470        40
40.480         0
40.490        27
40.500        27
40.510         7
40.520        33
40.530        13
40.540        27
40.550        27
40.560         0
40.570        13
40.580        20
40.590        27
40.600        13
40.610        40
40.620         7
40.630        20
40.640         7
40.650        27
40.660        47
40.670        13
40.680        13
40.690        27
40.700        13
40.710        13
40.720        33
40.730        33
40.740        27
40.750        13
40.760        33
40.770        40
40.780         7
40.790         0
40.800        47
40.810        40
40.820        13
40.830        13
40.840        20
40.850        13
40.860         7
40.870         0
40.880        13
40.890        33
40.900        27
40.910        13
40.920        13
40.930        13
40.940         7
40.950         0
40.960        20
40.970        20
40.980        20
40.990        40
41.000        27
41.010        13
41.020        13
41.030        13
41.040         7
41.050        20
41.060        13
41.070        27
41.080        33
41.090        33
41.100        13
41.110        33
41.120        47
41.130        33
41.140        40
41.150         7
41.160        40
41.170        20
41.180        27
41.190        13
41.200        20
41.210        33
41.220         7
41.230        20
41.240        20
41.250        27
41.260        20
41.270        20
41.280        13
41.290         7
41.300        27
41.310        47
41.320        27
41.330        27
41.340        47
41.350        40
41.360        47
41.370        20
41.380         7
41.390        27
41.400        47
41.410        20
41.420        27
41.430        13
41.440        33
41.450        27
41.460        33
41.470        40
41.480        27
41.490        33
41.500        33
41.510        27
41.520        40
41.530        27
41.540        20
41.550        20
41.560        53
41.570        13
41.580        33
41.590        47
41.600        20
41.610        47
41.620        33
41.630        67
41.640        20
41.650        13
41.660        40
41.670        13
41.680        27
41.690        47
41.700        20
41.710        20
41.720        33
41.730        33
41.740        33
41.750         7
41.760        13
41.770        27
41.780        40
41.790        33
41.800        20
41.810        33
41.820        20
41.830        13
41.840        27
41.850        33
41.860        20
41.870        13
41.880        27
41.890        27
41.900        60
41.910         7
41.920        33
41.930        13
41.940        13
41.950        13
41.960         7
41.970         0
41.980        27
41.990        27
42.000        33
42.010        27
42.020         7
42.030        13
42.040        20
42.050        13
42.060         7
42.070        33
42.080        13
42.090        33
42.100        20
42.110        13
42.120         7
42.130        13
42.140        27
42.150        27
42.160        13
42.170        20
42.180        13
42.190        13
42.200        13
42.210        13
42.220         7
42.230        13
42.240        20
42.250        27
42.260        20
42.270        47
42.280        20
42.290        13
42.300        20
42.310        27
42.320        53
42.330        33
42.340         0
42.350        33
42.360         7
42.370        47
42.380        20
42.390        20
42.400        13
42.410        20
42.420        20
42.430        20
42.440        27
42.450        27
42.460        47
42.470         7
42.480        20
42.490        47
42.500        27
42.510        13
42.520        27
42.530         0
42.540        20
42.550        13
42.560        20
42.570         7
42.580        33
42.590        20
42.600        27
42.610         7
42.620        13
42.630        27
42.640        27
42.650        27
42.660        33
42.670         7
42.680         0
42.690        13
42.700         0
42.710        20
42.720        40
42.730        27
42.740        13
42.750        47
42.760         7
42.770        27
42.780        13
42.790        13
42.800        13
42.810         0
42.820         7
42.830        20
42.840        27
42.850        27
42.860        20
42.870        27
42.880        27
42.890        20
42.900         7
42.910         7
42.920         7
42.930        20
42.940        13
42.950        27
42.960        33
42.970        27
42.980        27
42.990        33
43.000        40
43.010        20
43.020        27
43.030         7
43.040        47
43.050         7
43.060        27
43.070         7
43.080        60
43.090        13
43.100        33
43.110        47
43.120        13
43.130        53
43.140         7
43.150        33
43.160        33
43.170        13
43.180        27
43.190        40
43.200        27
43.210        27
43.220        20
43.230        33
43.240        33
43.250        33
43.260        27
43.270        13
43.280        40
43.290        20
43.300        13
43.310         7
43.320         7
43.330        33
43.340        53
43.350        13
43.360         7
43.370         7
43.380        13
43.390        40
43.400        20
43.410        33
43.420        33
43.430        40
43.440        13
43.450         7
43.460        27
43.470        20
43.480        40
43.490        13
43.500        27
43.510        20
43.520        20
43.530        60
43.540         7
43.550         7
43.560        40
43.570         7
43.580        53
43.590        13
43.600         7
43.610         7
43.620        33
43.630         7
43.640        40
43.650        20
43.660        47
43.670        27
43.680        13
43.690         7
43.700         0
43.710        20
43.720        27
43.730         7
43.740        20
43.750        67
43.760        33
43.770        13
43.780         7
43.790        20
43.800        33
43.810        27
43.820         7
43.830        33
43.840        53
43.850        20
43.860        33
43.870        40
43.880        27
43.890        27
43.900        20
43.910        13
43.920        20
43.930        13
43.940        60
43.950        20
43.960        27
43.970        33
43.980        27
43.990        40
44.000        13
44.010         7
44.020        20
44.030        20
44.040        13
44.050        13
44.060        13
44.070        40
44.080        13
44.090        20
44.100        33
44.110        27
44.120        33
44.130        13
44.140        13
44.150        40
44.160         7
44.170        13
44.180        33
44.190        13
44.200        27
44.210        20
44.220        33
44.230        13
44.240        13
44.250        20
44.260        40
44.270        53
44.280        20
44.290        27
44.300         7
44.310         7
44.320        27
44.330        20
44.340        33
44.350        27
44.360        20
44.370        33
44.380         7
44.390        33
44.400        13
44.410        33
44.420        40
44.430        33
44.440        33
44.450        53
44.460        33
44.470        33
44.480        40
44.490        27
44.500        47
44.510        20
44.520        20
44.530        40
44.540        13
44.550        40
44.560        27
44.570        33
44.580        47
44.590        40
44.600        33
44.610        67
44.620        40
44.630        53
44.640        20
44.650        53
44.660        47
44.670        47
44.680        60
44.690        13
44.700        40
44.710        73
44.720        80
44.730        33
44.740        53
44.750        27
44.760        40
44.770        47
44.780        33
44.790        53
44.800        60
44.810        33
44.820        53
44.830        80
44.840        73
44.850        27
44.860        60
44.870        33
44.880        47
44.890        47
44.900        40
44.910        73
44.920        47
44.930        73
44.940        60
44.950        40
44.960        40
44.970        20
44.980        47
44.990        40
45.000        47
45.010        47
45.020        47
45.030        67
45.040        33
45.050        80
45.060        40
45.070        87
45.080        40
45.090        93
45.100       107
45.110       120
45.120        53
45.130        60
45.140        67
45.150        60
45.160        87
45.170        87
45.180       113
45.190        67
45.200        80
45.210       100
45.220        73
45.230       127
45.240        73
45.250        93
45.260        87
45.270        93
45.280       100
45.290        87
45.300        33
45.310        73
45.320        67
45.330        80
45.340        93
45.350        87
45.360        67
45.370        80
45.380        73
45.390       100
45.400       147
45.410       140
45.420       107
45.430       113
45.440       120
45.450        80
45.460       133
45.470       107
45.480        80
45.490       147
45.500       147
45.510       147
45.520       113
45.530       147
45.540       167
45.550       147
45.560       113
45.570       153
45.580       200
45.590       167
45.600       173
45.610       180
45.620       233
45.630       220
45.640       200
45.650       200
45.660       220
45.670       247
45.680       240
45.690       253
45.700       313
45.710       213
45.720       293
45.730       213
45.740       280
45.750       287
45.760       340
45.770       380
45.780       353
45.790       360
45.800       367
45.810       500
45.820       460
45.830       380
45.840       420
45.850       586
45.860       593
45.870       526
45.880       713
45.890       573
45.900       686
45.910       646
45.920       820
45.930       773
45.940       653
45.950       766
45.960       906
45.970       920
45.980       960
45.990      1140
46.000      1060
46.010      1100
46.020      1206
46.030      1286
46.040      1439
46.050      1273
46.060      1386
46.070      1513
46.080      1553
46.090      1466
46.100      1599
46.110      1893
46.120      1793
46.130      1719
46.140      1979
46.150      1939
46.160      1986
46.170      1926
46.180      2033
46.190      1886
46.200      2246
46.210      2146
46.220      2372
46.230      2352
46.240      2086
46.250      2219
46.260      2299
46.270      2352
46.280      2172
46.290      2039
46.300      2259
46.310      2299
46.320      2212
46.330      2119
46.340      2019
46.350      1933
46.360      1893
46.370      1819
46.380      1946
46.390      1986
46.400      1939
46.410      1633
46.420      1639
46.430      1846
46.440      1826
46.450      1639
46.460      1406
46.470      1419
46.480      1459
46.490      1439
46.500      1513
46.510      1273
46.520      1446
46.530      1279
46.540      1246
46.550      1419
46.560      1180
46.570      1026
46.580      1026
46.590      1026
46.600       940
46.610       813
46.620       806
46.630       753
46.640       753
46.650       660
46.660       620
46.670       700
46.680       573
46.690       753
46.700       560
46.710       620
46.720       493
46.730       400
46.740       546
46.750       446
46.760       500
46.770       433
46.780       493
46.790       446
46.800       387
46.810       360
46.820       353
46.830       307
46.840       373
46.850       287
46.860       300
46.870       313
46.880       380
46.890       213
46.900       273
46.910       253
46.920       300
46.930       227
46.940       167
46.950       200
46.960       180
46.970       187
46.980       213
46.990       180
47.000       173
47.010       160
47.020       193
47.030       207
47.040       127
47.050       127
47.060       153
47.070       133
47.080       133
47.090        87
47.100       167
47.110       113
47.120       160
47.130        73
47.140       107
47.150       113
47.160       107
47.170       140
47.180        93
47.190        67
47.200       153
47.210       153
47.220        93
47.230       113
47.240       140
47.250        67
47.260        40
47.270       100
47.280       127
47.290        93
47.300        80
47.310        80
47.320       167
47.330        73
47.340        73
47.350       113
47.360       113
47.370       133
47.380        67
47.390        67
47.400       107
47.410        67
47.420        53
47.430        87
47.440        60
47.450        73
47.460        53
47.470        67
47.480       133
47.490        40
47.500        73
47.510        67
47.520        87
47.530        60
47.540        40
47.550        27
47.560        33
47.570        80
47.580        67
47.590        80
47.600        33
47.610        53
47.620        73
47.630        67
47.640        73
47.650        53
47.660        80
47.670        33
47.680        53
47.690        73
47.700        53
47.710        13
47.720        80
47.730        47
47.740        73
47.750        20
47.760        47
47.770        40
47.780        80
47.790        20
47.800        47
47.810        33
47.820        40
47.830        47
47.840        27
47.850        20
47.860        87
47.870        73
47.880        47
47.890        93
47.900        60
47.910        27
47.920        53
47.930        40
47.940        20
47.950         7
47.960        27
47.970        40
47.980        80
47.990        27
48.000        33
48.010        33
48.020        27
48.030        60
48.040        60
48.050        47
48.060        53
48.070        67
48.080        53
48.090        40
48.100        47
48.110        53
48.120        47
48.130        47
48.140        40
48.150        40
48.160        47
48.170        40
48.180        53
48.190        47
48.200        93
48.210        13
48.220        13
48.230        67
48.240        27
48.250        40
48.260        27
48.270        40
48.280        53
48.290        47
48.300        47
48.310         0
48.320        47
48.330        87
48.340        40
48.350        53
48.360        27
48.370        60
48.380        27
48.390        47
48.400        33
48.410        27
48.420        47
48.430        33
48.440        20
48.450        47
48.460        47
48.470        53
48.480        47
48.490        47
48.500        67
48.510        40
48.520        33
48.530        33
48.540        40
48.550        20
48.560        33
48.570        33
48.580        60
48.590        53
48.600        40
48.610        27
48.620         7
48.630        40
48.640        40
48.650        33
48.660        33
48.670        33
48.680        33
48.690        20
48.700         7
48.710        33
48.720        60
48.730        60
48.740        40
48.750        47
48.760        13
48.770        13
48.780        40
48.790         7
48.800        40
48.810        27
48.820        33
48.830        47
48.840        13
48.850        27
48.860        27
48.870        13
48.880        53
48.890        27
48.900        27
48.910        33
48.920        33
48.930        13
48.940        33
48.950        33
48.960        47
48.970        33
48.980        33
48.990         7
49.000        27
49.010        47
49.020        13
49.030         7
49.040        27
49.050        40
49.060        27
49.070        27
49.080        27
49.090        27
49.100        53
49.110        27
49.120        27
49.130        33
49.140        20
49.150        33
49.160        27
49.170        13
49.180        47
49.190        20
49.200        27
49.210        27
49.220        33
49.230        20
49.240        27
49.250        60
49.260        53
49.270        20
49.280        27
49.290        27
49.300        40
49.310        27
49.320        53
49.330        40
49.340        27
49.350        20
49.360        27
49.370        13
49.380        13
49.390        20
49.400        33
49.410        33
49.420        33
49.430        47
49.440        40
49.450        33
49.460        33
49.470        33
49.480         0
49.490        27
49.500        13
49.510        60
49.520         0
49.530        13
49.540        33
49.550        47
49.560        40
49.570        53
49.580        40
49.590        27
49.600        33
49.610        13
49.620        27
49.630        40
49.640        20
49.650         0
49.660        33
49.670        27
49.680        13
49.690        40
49.700         0
49.710        40
49.720         7
49.730        13
49.740        27
49.750        33
49.760        20
49.770        20
49.780        27
49.790        27
49.800        33
49.810        27
49.820        13
49.830        20
49.840        13
49.850        20
49.860        13
49.870        13
49.880        33
49.890        27
49.900        27
49.910        27
49.920        13
49.930        20
49.940        20
49.950        33
49.960        27
49.970        33
49.980        33
49.990        13
50.000        33
50.010        20
50.020        33
50.030        53
50.040        47
50.050        27
50.060        27
50.070        33
50.080        33
50.090        20
50.100        20
50.110        27
50.120         7
50.130        20
50.140        47
50.150        20
50.160        33
50.170        27
50.180        13
50.190        53
50.200        33
50.210        20
50.220        27
50.230        20
50.240        40
50.250        33
50.260        60
50.270        67
50.280        33
50.290        33
50.300        13
50.310        47
50.320        47
50.330        13
50.340        20
50.350        60
50.360        13
50.370        27
50.380        27
50.390        13
50.400        13
50.410        27
50.420        27
50.430        20
50.440        40
50.450        27
50.460        13
50.470         7
50.480         7
50.490         7
50.500        33
50.510        20
50.520        13
50.530        27
50.540        20
50.550        27
50.560        33
50.570        13
50.580         7
50.590        47
50.600        13
50.610        33
50.620        40
50.630        20
50.640        67
50.650        33
50.660        27
50.670        13
50.680        13
50.690        20
50.700        33
50.710        47
50.720        13
50.730        40
50.740         7
50.750        13
50.760        33
50.770         7
50.780        27
50.790        27
50.800        33
50.810        13
50.820        33
50.830        13
50.840        27
50.850        13
50.860        47
50.870         7
50.880        27
50.890        53
50.900        40
50.910        33
50.920        20
50.930        33
50.940         7
50.950        33
50.960        40
50.970         7
50.980        40
50.990        27
51.000        40
51.010        40
51.020        33
51.030        13
51.040        33
51.050        20
51.060        27
51.070        47
51.080        20
51.090         7
51.100        20
51.110        13
51.120        53
51.130        13
51.140        33
51.150        13
51.160        13
51.170        67
51.180        33
51.190        13
51.200        13
51.210        47
51.220        20
51.230        27
51.240        27
51.250        33
51.260        13
51.270        33
51.280        13
51.290        40
51.300        33
51.310        20
51.320        40
51.330        27
51.340        33
51.350        27
51.360        33
51.370        27
51.380        27
51.390        40
51.400        20
51.410        20
51.420        20
51.430        27
51.440        60
51.450        20
51.460        27
51.470        13
51.480        33
51.490        47
51.500        27
51.510        47
51.520        47
51.530        20
51.540        33
51.550        27
51.560        47
51.570        33
51.580        27
51.590        20
51.600        47
51.610        13
51.620        53
51.630        33
51.640        27
51.650        33
51.660        27
51.670        33
51.680        27
51.690        40
51.700        53
51.710        40
51.720        20
51.730        47
51.740        33
51.750        47
51.760        60
51.770        13
51.780        13
51.790        33
51.800         0
51.810        20
51.820        13
51.830        27
51.840        33
51.850        27
51.860         7
51.870        20
51.880        40
51.890        27
51.900        40
51.910        47
51.920        53
51.930        33
51.940        40
51.950        33
51.960        80
51.970        40
51.980        40
51.990        33
52.000        27
52.010        27
52.020        33
52.030        27
52.040        40
52.050        27
52.060        20
52.070        40
52.080        40
52.090        27
52.100         7
52.110        27
52.120        53
52.130        40
52.140        40
52.150        40
52.160        53
52.170        20
52.180        53
52.190        47
52.200        20
52.210        13
52.220        13
52.230        33
52.240        27
52.250        20
52.260        27
52.270        33
52.280        20
52.290        33
52.300        60
52.310        47
52.320        53
52.330        47
52.340        40
52.350        40
52.360        27
52.370        40
52.380         0
52.390        20
52.400        40
52.410        33
52.420        40
52.430        33
52.440        33
52.450        67
52.460        60
52.470        47
52.480        20
52.490        20
52.500        27
52.510        13
52.520        47
52.530        33
52.540        47
52.550        40
52.560        53
52.570        33
52.580        40
52.590        20
52.600        47
52.610        27
52.620        33
52.630        73
52.640        40
52.650        53
52.660        40
52.670        40
52.680        33
52.690        67
52.700        40
52.710        33
52.720        47
52.730        40
52.740        40
52.750        33
52.760        20
52.770        47
52.780        53
52.790         7
52.800        47
52.810        53
52.820        40
52.830        40
52.840        20
52.850        40
52.860        60
52.870         0
52.880        20
52.890        40
52.900        53
52.910        27
52.920        47
52.930        33
52.940        47
52.950        33
52.960        40
52.970        27
52.980        40
52.990        40
53.000        20
53.010        27
53.020        20
53.030        40
53.040        47
53.050        67
53.060        20
53.070        27
53.080        27
53.090        40
53.100        67
53.110        40
53.120         7
53.130        47
53.140        27
53.150        53
53.160        53
53.170        27
53.180        33
53.190        20
53.200        20
53.210        40
53.220        60
53.230        60
53.240         0
53.250        27
53.260        13
53.270        33
53.280        27
53.290        60
53.300        27
53.310        33
53.320        40
53.330        13
53.340        20
53.350        33
53.360        27
53.370        40
53.380        33
53.390        53
53.400        40
53.410        27
53.420        13
53.430        27
53.440        27
53.450        47
53.460        20
53.470        27
53.480        13
53.490        47
53.500        13
53.510        13
53.520        40
53.530        20
53.540        20
53.550        33
53.560        20
53.570        60
53.580         0
53.590        20
53.600        33
53.610        40
53.620        27
53.630        20
53.640        53
53.650         0
53.660        33
53.670        13
53.680        47
53.690        20
53.700        40
53.710        27
53.720        53
53.730        40
53.740        33
53.750        40
53.760        27
53.770        27
53.780        13
53.790        13
53.800        13
53.810         7
53.820        27
53.830        33
53.840        20
53.850        20
53.860        27
53.870        27
53.880        13
53.890        27
53.900         7
53.910        40
53.920        27
53.930        20
53.940        20
53.950        13
53.960        20
53.970        27
53.980        27
53.990        27
54.000        20
54.010        20
54.020        27
54.030        27
54.040        20
54.050        13
54.060        20
54.070         7
54.080        40
54.090        47
54.100        20
54.110        13
54.120        40
54.130        27
54.140         7
54.150        33
54.160         7
54.170        27
54.180        13
54.190        40
54.200        47
54.210         7
54.220        27
54.230        33
54.240        40
54.250        33
54.260        13
54.270        33
54.280        53
54.290         0
54.300        27
54.310         0
54.320        40
54.330        13
54.340        47
54.350        53
54.360        20
54.370        20
54.380        33
54.390        33
54.400        13
54.410        33
54.420        27
54.430        40
54.440        53
54.450        33
54.460        20
54.470        53
54.480        27
54.490        33
54.500        33
54.510        20
54.520        27
54.530        33
54.540        27
54.550        20
54.560        20
54.570        20
54.580        20
54.590         7
54.600         7
54.610        20
54.620        60
54.630        13
54.640         7
54.650        33
54.660        20
54.670        40
54.680        40
54.690        27
54.700        20
54.710        20
54.720        47
54.730         7
54.740        13
54.750        13
54.760        13
54.770        33
54.780        33
54.790        20
54.800        27
54.810        13
54.820         7
54.830        13
54.840        33
54.850        13
54.860        13
54.870        13
54.880        20
54.890        33
54.900        20
54.910        13
54.920        13
54.930        47
54.940        27
54.950        20
54.960        27
54.970        20
54.980         7
54.990        27
55.000        33
55.010        13
55.020        13
55.030         7
55.040         7
55.050        27
55.060        13
55.070        20
55.080        33
55.090        13
55.100        13
55.110        47
55.120        20
55.130        13
55.140        27
55.150        33
55.160        13
55.170         7
55.180        20
55.190        13
55.200        33
55.210        27
55.220        40
55.230        13
55.240        13
55.250        20
55.260        27
55.270        33
55.280        20
55.290        33
55.300         7
55.310        13
55.320        13
55.330        27
55.340        20
55.350        27
55.360        13
55.370        13
55.380        20
55.390        20
55.400        20
55.410         7
55.420        27
55.430        13
55.440         7
55.450        20
55.460        33
55.470        47
55.480        13
55.490        20
55.500        33
55.510        33
55.520        13
55.530        13
55.540        27
55.550         7
55.560        20
55.570         0
55.580        27
55.590         0
55.600        27
55.610        53
55.620        20
55.630        13
55.640         0
55.650        13
55.660        47
55.670         7
55.680        13
55.690        47
55.700         7
55.710        13
55.720        20
55.730        13
55.740        13
55.750        20
55.760        27
55.770        20
55.780        40
55.790         0
55.800         7
55.810        20
55.820        20
55.830        13
55.840         0
55.850        13
55.860        27
55.870        27
55.880        33
55.890        33
55.900         0
55.910        27
55.920        20
55.930         7
55.940        13
55.950        20
55.960         7
55.970        27
55.980        13
55.990        20
56.000        13
56.010         7
56.020         0
56.030        67
56.040         7
56.050        33
56.060        13
56.070        47
56.080         0
56.090         7
56.100        13
56.110        20
56.120        13
56.130        20
56.140         0
56.150         0
56.160         7
56.170        20
56.180        20
56.190        13
56.200        33
56.210        13
56.220         7
56.230         7
56.240        27
56.250        40
56.260        20
56.270        20
56.280        20
56.290         0
56.300        33
56.310        40
56.320        33
56.330        33
56.340        13
56.350        20
56.360        47
56.370         7
56.380         7
56.390        27
56.400        33
56.410         7
56.420        27
56.430        20
56.440        33
56.450         0
56.460        13
56.470        13
56.480        27
56.490         0
56.500        33
56.510        20
56.520        20
56.530        13
56.540        40
56.550        27
56.560        13
56.570        13
56.580        20
56.590        27
56.600        20
56.610         7
56.620         7
56.630        20
56.640        13
56.650        27
56.660         7
56.670        27
56.680        27
56.690         7
56.700        13
56.710        33
56.720        13
56.730        20
56.740        20
56.750         7
56.760        33
56.770        27
56.780        13
56.790        13
56.800         0
56.810        13
56.820        13
56.830         0
56.840        33
56.850        13
56.860        33
56.870         7
56.880        13
56.890        40
56.900        13
56.910        13
56.920        40
56.930        13
56.940         7
56.950         7
56.960        20
56.970        27
56.980        27
56.990         7
57.000        20
57.010        20
57.020        27
57.030         0
57.040        13
57.050        40
57.060        13
57.070        13
57.080        53
57.090        13
57.100        20
57.110        27
57.120         0
57.130        27
57.140         7
57.150        13
57.160        20
57.170        27
57.180        13
57.190         7
57.200        47
57.210        13
57.220         0
57.230        27
57.240        20
57.250        13
57.260        33
57.270        20
57.280         0
57.290        20
57.300         7
57.310        20
57.320        40
57.330        13
57.340         0
57.350        13
57.360        27
57.370        13
57.380        20
57.390        20
57.400        33
57.410        20
57.420        20
57.430        13
57.440         7
57.450        27
57.460        33
57.470        27
57.480        20
57.490        27
57.500         7
57.510        20
57.520        20
57.530        33
57.540        13
57.550        13
57.560         7
57.570         7
57.580         7
57.590        20
57.600        33
57.610        60
57.620        33
57.630         7
57.640        33
57.650        27
57.660         7
57.670        20
57.680        13
57.690        13
57.700        27
57.710        33
57.720        27
57.730        33
57.740        40
57.750        33
57.760        20
57.770        47
57.780        13
57.790         0
57.800        27
57.810        20
57.820        60
57.830         7
57.840        13
57.850        20
57.860        13
57.870        27
57.880        33
57.890        27
57.900        27
57.910        20
57.920         7
57.930        33
57.940        13
57.950        20
57.960        27
57.970        13
57.980        20
57.990         7
58.000         7
58.010        40
58.020        13
58.030        27
58.040        20
58.050        13
58.060        47
58.070        13
58.080        27
58.090        20
58.100         7
58.110        20
58.120        13
58.130        33
58.140        13
58.150        20
58.160         7
58.170        20
58.180         0
58.190        20
58.200        13
58.210        20
58.220         7
58.230        13
58.240        20
58.250        13
58.260        20
58.270        13
58.280        20
58.290         7
58.300        13
58.310        33
58.320         7
58.330        13
58.340        13
58.350        13
58.360         7
58.370        27
58.380        27
58.390         7
58.400        27
58.410        47
58.420         0
58.430         7
58.440        20
58.450        13
58.460        13
58.470        13
58.480        13
58.490        13
58.500        13
58.510        13
58.520        20
58.530        20
58.540         7
58.550         7
58.560         7
58.570        20
58.580        27
58.590        13
58.600        13
58.610        13
58.620        13
58.630        20
58.640        13
58.650        40
58.660        13
58.670        13
58.680        27
58.690        13
58.700         0
58.710         7
58.720        33
58.730        20
58.740        13
58.750        40
58.760        20
58.770        13
58.780         7
58.790         7
58.800        40
58.810         7
58.820        27
58.830        33
58.840        20
58.850        40
58.860        20
58.870         7
58.880         0
58.890        33
58.900        13
58.910        13
58.920        13
58.930        27
58.940         7
58.950         7
58.960        27
58.970        13
58.980        13
58.990        27
59.000        27
59.010        13
59.020        20
59.030         7
59.040        13
59.050        40
59.060        13
59.070        13
59.080        27
59.090         7
59.100        20
59.110         7
59.120        27
59.130        13
59.140        33
59.150        13
59.160        13
59.170        20
59.180         0
59.190        13
59.200        13
59.210        33
59.220        20
59.230        20
59.240        27
59.250        20
59.260        27
59.270        33
59.280        13
59.290        27
59.300        13
59.310        13
59.320         7
59.330         7
59.340        13
59.350         0
59.360        13
59.370        20
59.380         7
59.390         0
59.400        20
59.410        27
59.420        13
59.430         0
59.440        27
59.450        20
59.460        20
59.470        27
59.480         7
59.490        20
59.500         7
59.510        20
59.520        20
59.530        27
59.540        47
59.550         0
59.560        20
59.570        13
59.580        13
59.590        27
59.600        40
59.610        13
59.620         7
59.630         7
59.640        27
59.650        20
59.660         7
59.670        27
59.680         7
59.690        20
59.700        13
59.710        20
59.720        13
59.730        13
59.740        27
59.750        13
59.760        27
59.770         0
59.780         0
59.790        27
59.800         7
59.810         7
59.820         7
59.830        20
59.840        33
59.850        13
59.860         7
59.870        20
59.880         0
59.890        27
59.900        13
59.910        27
59.920         0
59.930         7
59.940         0
59.950        13
59.960        13
59.970        20
59.980         7
59.990        27
60.000         7
