20.000        47
20.010        47
20.020        40
20.030        53
20.040        73
20.050        47
20.060        60
20.070        47
20.080        80
20.090        60
20.100        60
20.110        40
20.120        60
20.130        53
20.140        47
20.150        47
20.160        20
20.170        60
20.180        20
20.190        40
20.200        40
20.210        33
20.220        80
20.230        47
20.240        60
20.250        20
20.260        33
20.270        47
20.280        40
20.290        27
20.300        20
20.310        40
20.320        53
20.330        33
20.340        60
20.350        27
20.360        40
20.370        60
20.380        13
20.390        40
20.400        33
20.410        47
20.420        67
20.430        20
20.440        40
20.450         7
20.460        53
20.470        33
20.480        40
20.490        53
20.500        73
20.510        20
20.520        47
20.530        33
20.540        67
20.550        27
20.560        40
20.570        53
20.580        20
20.590        40
20.600        67
20.610        40
20.620        47
20.630        40
20.640        60
20.650        40
20.660        33
20.670        27
20.680        60
20.690        47
20.700        47
20.710        67
20.720        47
20.730        20
20.740        27
20.750        47
20.760        40
20.770        27
20.780        47
20.790        47
20.800        40
20.810        47
20.820        20
20.830        53
20.840        33
20.850        27
20.860        67
20.870        47
20.880        67
20.890        40
20.900        53
20.910        53
20.920        13
20.930        40
20.940        20
20.950        87
20.960        53
20.970        67
20.980        47
20.990        27
21.000        27
21.010        60
21.020        47
21.030        13
21.040        33
21.050        13
21.060        53
21.070        33
21.080        40
21.090         7
21.100        20
21.110        40
21.120        53
21.130        47
21.140        40
21.150        40
21.160        53
21.170        40
21.180        33
21.190        40
21.200        33
21.210        33
21.220        60
21.230        20
21.240        60
21.250        47
21.260        13
21.270        20
21.280        40
21.290        33
21.300        80
21.310        73
21.320        13
21.330        80
21.340        47
21.350        93
21.360        40
21.370        33
21.380        53
21.390        40
21.400        47
21.410        27
21.420        47
21.430        40
21.440        40
21.450        40
21.460        60
21.470        40
21.480        27
21.490        40
21.500        40
21.510        27
21.520        27
21.530        47
21.540        67
21.550        20
21.560        13
21.570        60
21.580        33
21.590        53
21.600        60
21.610        13
21.620        53
21.630        73
21.640        53
21.650        53
21.660        67
21.670        33
21.680        60
21.690        20
21.700        40
21.710        40
21.720        60
21.730        40
21.740        47
21.750        60
21.760        33
21.770        27
21.780        47
21.790        33
21.800        47
21.810        20
21.820        40
21.830        53
21.840        47
21.850        20
21.860        40
21.870        67
21.880        33
21.890        40
21.900        47
21.910        13
21.920        40
21.930        40
21.940        40
21.950        27
21.960        60
21.970        67
21.980        53
21.990        40
22.000        40
22.010        33
22.020        53
22.030        47
22.040        40
22.050        47
22.060        67
22.070        53
22.080        20
22.090        40
22.100        20
22.110        60
22.120        73
22.130        27
22.140        60
22.150        53
22.160        67
22.170        27
22.180        67
22.190        40
22.200        67
22.210        40
22.220        40
22.230        33
22.240        60
22.250        27
22.260        67
22.270        40
22.280        33
22.290        60
22.300        60
22.310        53
22.320        67
22.330        67
22.340        60
22.350        40
22.360        67
22.370        80
22.380        47
22.390        60
22.400        87
22.410        40
22.420       100
22.430        73
22.440        87
22.450        80
22.460        87
22.470        73
22.480        87
22.490       140
22.500       140
22.510       100
22.520        87
22.530       133
22.540       127
22.550       120
22.560       213
22.570       207
22.580       207
22.590       260
22.600       247
22.610       260
22.620       247
22.630       313
22.640       273
22.650       313
22.660       340
22.670       407
22.680       387
22.690       353
22.700       367
22.710       340
22.720       400
22.730       220
22.740       280
22.750       307
22.760       273
22.770       273
22.780       207
22.790       167
22.800       213
22.810       213
22.820       213
22.830       167
22.840       153
22.850       180
22.860       127
22.870       127
22.880       180
22.890        87
22.900       107
22.910        53
22.920       120
22.930        93
22.940        60
22.950        87
22.960        80
22.970       100
22.980        80
22.990        53
23.000        80
23.010        73
23.020        73
23.030        47
23.040        80
23.050        60
23.060       107
23.070        67
23.080        53
23.090        60
23.100        67
23.110        60
23.120        73
23.130        53
23.140        73
23.150        80
23.160        60
23.170        60
23.180        93
23.190        67
23.200        67
23.210        93
23.220        93
23.230        47
23.240        80
23.250        67
23.260        73
23.270        40
23.280        53
23.290        60
23.300        73
23.310        40
23.320        33
23.330        27
23.340        47
23.350        33
23.360        33
23.370        40
23.380        33
23.390        47
23.400        53
23.410        40
23.420        60
23.430        67
23.440        47
23.450        67
23.460        47
23.470        33
23.480        47
23.490        67
23.500        60
23.510        60
23.520        87
23.530        27
23.540        87
23.550        27
23.560        40
23.570        40
23.580        73
23.590        60
23.600        47
23.610        80
23.620        73
23.630        40
23.640        60
23.650        27
23.660        20
23.670        67
23.680        27
23.690        40
23.700        47
23.710        13
23.720        33
23.730        47
23.740        60
23.750        33
23.760        47
23.770        53
23.780        33
23.790        87
23.800        53
23.810        33
23.820        40
23.830         0
23.840        53
23.850        33
23.860        80
23.870        60
23.880        53
23.890        20
23.900        47
23.910        33
23.920        20
23.930        47
23.940         7
23.950        73
23.960        33
23.970        13
23.980        20
23.990        47
24.000        33
24.010        73
24.020        53
24.030        93
24.040        20
24.050        47
24.060        27
24.070        27
24.080        27
24.090        53
24.100        20
24.110        40
24.120        40
24.130        40
24.140        27
24.150        40
24.160        53
24.170        27
24.180        33
24.190        40
24.200        47
24.210        73
24.220        73
24.230        53
24.240        73
24.250        40
24.260        33
24.270        60
24.280        67
24.290        33
24.300        20
24.310        73
24.320        40
24.330        47
24.340        47
24.350        33
24.360        47
24.370        33
24.380        67
24.390        53
24.400        40
24.410        67
24.420        40
24.430        33
24.440        20
24.450        60
24.460        33
24.470        40
24.480        53
24.490        60
24.500        73
24.510        53
24.520        73
24.530        60
24.540        27
24.550        47
24.560        27
24.570        40
24.580        47
24.590        47
24.600        27
24.610        47
24.620        53
24.630        33
24.640        67
24.650        60
24.660        60
24.670        80
24.680        47
24.690        40
24.700        27
24.710        73
24.720        60
24.730        47
24.740        73
24.750        67
24.760        67
24.770       100
24.780        33
24.790        67
24.800        40
24.810        60
24.820        87
24.830        40
24.840        73
24.850        33
24.860        47
24.870        47
24.880        53
24.890        53
24.900        60
24.910        87
24.920        47
24.930        73
24.940        53
24.950        67
24.960        53
24.970        60
24.980       100
24.990        53
25.000        87
25.010        40
25.020        53
25.030        47
25.040        33
25.050        47
25.060        67
25.070        67
25.080        80
25.090        53
25.100        47
25.110        47
25.120        73
25.130        40
25.140        67
25.150        60
25.160        93
25.170        73
25.180       100
25.190        53
25.200        93
25.210        60
25.220        60
25.230        93
25.240       113
25.250        53
25.260        87
25.270        33
25.280        93
25.290        73
25.300        87
25.310       113
25.320        93
25.330        60
25.340        60
25.350        67
25.360       107
25.370       107
25.380        93
25.390       107
25.400        93
25.410        80
25.420       167
25.430       167
25.440       187
25.450       187
25.460       173
25.470       213
25.480       187
25.490       300
25.500       327
25.510       440
25.520       786
25.530      1180
25.540      2026
25.550      3938
25.560      5924
25.570      7450
25.580      5904
25.590      4092
25.600      3545
25.610      3785
25.620      4545
25.630      5091
25.640      4918
25.650      3865
25.660      3072
25.670      2712
25.680      2439
25.690      2286
25.700      2499
25.710      2252
25.720      2359
25.730      2166
25.740      1966
25.750      1573
25.760      1626
25.770      1193
25.780      1173
25.790       840
25.800       706
25.810       613
25.820       573
25.830       293
25.840       200
25.850       153
25.860       187
25.870       127
25.880       113
25.890       200
25.900       140
25.910       160
25.920       133
25.930        67
25.940       140
25.950       133
25.960        93
25.970       133
25.980       120
25.990       140
26.000       107
26.010        93
26.020       167
26.030       127
26.040       120
26.050       180
26.060       147
26.070       107
26.080       127
26.090       153
26.100       120
26.110       113
26.120        73
26.130       133
26.140       100
26.150       100
26.160        87
26.170        80
26.180       147
26.190       120
26.200       107
26.210        93
26.220       100
26.230       113
26.240       140
26.250       113
26.260       113
26.270       160
26.280        93
26.290       100
26.300       133
26.310       127
26.320       140
26.330        87
26.340       153
26.350        93
26.360       127
26.370        47
26.380       147
26.390       107
26.400       113
26.410       147
26.420       133
26.430       113
26.440       160
26.450       127
26.460       127
26.470        93
26.480       100
26.490       113
26.500        73
26.510       127
26.520       107
26.530       133
26.540       127
26.550       140
26.560       133
26.570       120
26.580       127
26.590       133
26.600       120
26.610       127
26.620       133
26.630       113
26.640       113
26.650        87
26.660       120
26.670        80
26.680        93
26.690       120
26.700       100
26.710       107
26.720       133
26.730        73
26.740       120
26.750       200
26.760        80
26.770        93
26.780        93
26.790        87
26.800        53
26.810       127
26.820       113
26.830        93
26.840       127
26.850       100
26.860       100
26.870       120
26.880       100
26.890       120
26.900       113
26.910       173
26.920       133
26.930       120
26.940       100
26.950       127
26.960       153
26.970       107
26.980       187
26.990       187
27.000       167
27.010       113
27.020        87
27.030       100
27.040       100
27.050        93
27.060        73
27.070        87
27.080       127
27.090       140
27.100        93
27.110       140
27.120       133
27.130       127
27.140       133
27.150       120
27.160       107
27.170       133
27.180       180
27.190       113
27.200        93
27.210       127
27.220       107
27.230       100
27.240        87
27.250       140
27.260       140
27.270        93
27.280       107
27.290       173
27.300       133
27.310       147
27.320       127
27.330       180
27.340       120
27.350       140
27.360       107
27.370       140
27.380       127
27.390       133
27.400       153
27.410       140
27.420       120
27.430       100
27.440       133
27.450       140
27.460       187
27.470       167
27.480       140
27.490       160
27.500       200
27.510       173
27.520       160
27.530       153
27.540       207
27.550        53
27.560       133
27.570       127
27.580       147
27.590       160
27.600       113
27.610       160
27.620       147
27.630       127
27.640        87
27.650       100
27.660        93
27.670       167
27.680       153
27.690       160
27.700       153
27.710        87
27.720       120
27.730       193
27.740       127
27.750       160
27.760       107
27.770       187
27.780       140
27.790       147
27.800       160
27.810       193
27.820       147
27.830       120
27.840        80
27.850       173
27.860       147
27.870        93
27.880       140
27.890       140
27.900       160
27.910       140
27.920       133
27.930       107
27.940       207
27.950       113
27.960       187
27.970       107
27.980       200
27.990       167
28.000       127
28.010       140
28.020       120
28.030       160
28.040       140
28.050       120
28.060       120
28.070       107
28.080       127
28.090       153
28.100       113
28.110       180
28.120       173
28.130       167
28.140       140
28.150       173
28.160       100
28.170       120
28.180       167
28.190       153
28.200       153
28.210       180
28.220       140
28.230       167
28.240       127
28.250       180
28.260       113
28.270       113
28.280       133
28.290       147
28.300       127
28.310       147
28.320       227
28.330       233
28.340       220
28.350       147
28.360       127
28.370       160
28.380       167
28.390       100
28.400       140
28.410       120
28.420       147
28.430       180
28.440       113
28.450       113
28.460       167
28.470       113
28.480       167
28.490       193
28.500       173
28.510       140
28.520       153
28.530       173
28.540       133
28.550       113
28.560       167
28.570       113
28.580       147
28.590       227
28.600       107
28.610       160
28.620       147
28.630       147
28.640       160
28.650       140
28.660       120
28.670       153
28.680       140
28.690       107
28.700       167
28.710       113
28.720       147
28.730       227
28.740       200
28.750       180
28.760       100
28.770       213
28.780       173
28.790       187
28.800       133
28.810       153
28.820       160
28.830       160
28.840       160
28.850       180
28.860       160
28.870       153
28.880       167
28.890       167
28.900       193
28.910       147
28.920       120
28.930       140
28.940       180
28.950       187
28.960       127
28.970       233
28.980       200
28.990       180
29.000       120
29.010       187
29.020       180
29.030       200
29.040       213
29.050       267
29.060       180
29.070       173
29.080       147
29.090       153
29.100       167
29.110       127
29.120       160
29.130       167
29.140       147
29.150       207
29.160       160
29.170       173
29.180       200
29.190       180
29.200       153
29.210       100
29.220       120
29.230       240
29.240       173
29.250       200
29.260       147
29.270       127
29.280       220
29.290       160
29.300       220
29.310       180
29.320       213
29.330       173
29.340       120
29.350       153
29.360       200
29.370       200
29.380       187
29.390       180
29.400       187
29.410       113
29.420       187
29.430       160
29.440       113
29.450       167
29.460       120
29.470       120
29.480        93
29.490       160
29.500       173
29.510       100
29.520       187
29.530       147
29.540       180
29.550       113
29.560       100
29.570       207
29.580       160
29.590       127
29.600       207
29.610       187
29.620       147
29.630       200
29.640       147
29.650       133
29.660       187
29.670       140
29.680       160
29.690       167
29.700       140
29.710       193
29.720       153
29.730       167
29.740       273
29.750       160
29.760       167
29.770       133
29.780       147
29.790       153
29.800       187
29.810       127
29.820       187
29.830       213
29.840       173
29.850       127
29.860       220
29.870       120
29.880       107
29.890       173
29.900       140
29.910       147
29.920       167
29.930       173
29.940       160
29.950       140
29.960       153
29.970       147
29.980       120
29.990       200
30.000       193
30.010       187
30.020       180
30.030       167
30.040       140
30.050       160
30.060       153
30.070       140
30.080       180
30.090       167
30.100       127
30.110       147
30.120       107
30.130       127
30.140       140
30.150       180
30.160       127
30.170       160
30.180       107
30.190       127
30.200       140
30.210       140
30.220       180
30.230       133
30.240       160
30.250       187
30.260       127
30.270       127
30.280       153
30.290       133
30.300       127
30.310       160
30.320       127
30.330       133
30.340       160
30.350       213
30.360       140
30.370       140
30.380        80
30.390       107
30.400       133
30.410       140
30.420       147
30.430       153
30.440       120
30.450       133
30.460       180
30.470       153
30.480       107
30.490       160
30.500       127
30.510       160
30.520       153
30.530       153
30.540       100
30.550        67
30.560       100
30.570       127
30.580       120
30.590       133
30.600       147
30.610       127
30.620       140
30.630       160
30.640        87
30.650       100
30.660       100
30.670        73
30.680       133
30.690        87
30.700        87
30.710       113
30.720       120
30.730       140
30.740       133
30.750       107
30.760       100
30.770       140
30.780       107
30.790       127
30.800       187
30.810        93
30.820       113
30.830       160
30.840       153
30.850       173
30.860       160
30.870       167
30.880       160
30.890       147
30.900       200
30.910       160
30.920       180
30.930       120
30.940       133
30.950        73
30.960        67
30.970       127
30.980        87
30.990       127
31.000       160
31.010       107
31.020       140
31.030       147
31.040       133
31.050       173
31.060       147
31.070        87
31.080       173
31.090       113
31.100       153
31.110        73
31.120       147
31.130       107
31.140       100
31.150       127
31.160       193
31.170       147
31.180       107
31.190       113
31.200       140
31.210       113
31.220       107
31.230       167
31.240       120
31.250       180
31.260       113
31.270        80
31.280       140
31.290       153
31.300       133
31.310       187
31.320       113
31.330       120
31.340       147
31.350        87
31.360       167
31.370       140
31.380        93
31.390       120
31.400       113
31.410        80
31.420       100
31.430        87
31.440       100
31.450        93
31.460       153
31.470       120
31.480       120
31.490       193
31.500       140
31.510       107
31.520       180
31.530       107
31.540       120
31.550       120
31.560        53
31.570       113
31.580       127
31.590       120
31.600       127
31.610        73
31.620       140
31.630       113
31.640       167
31.650       153
31.660        93
31.670       140
31.680       107
31.690       147
31.700       100
31.710       167
31.720       113
31.730       180
31.740       153
31.750       160
31.760       173
31.770       140
31.780       107
31.790       120
31.800       133
31.810       120
31.820       147
31.830       133
31.840       173
31.850       113
31.860        67
31.870       167
31.880       180
31.890       120
31.900       133
31.910       147
31.920       120
31.930       193
31.940       167
31.950       113
31.960       147
31.970       113
31.980       173
31.990       113
32.000       153
32.010       193
32.020       180
32.030       160
32.040       180
32.050       140
32.060       213
32.070       187
32.080       180
32.090       207
32.100       227
32.110       300
32.120       200
32.130       267
32.140       307
32.150       233
32.160       313
32.170       313
32.180       333
32.190       340
32.200       300
32.210       546
32.220       400
32.230       526
32.240       513
32.250       560
32.260       580
32.270       706
32.280       660
32.290       786
32.300       793
32.310       866
32.320       906
32.330      1153
32.340      1213
32.350      1080
32.360      1053
32.370      1133
32.380      1220
32.390      1126
32.400       960
32.410      1319
32.420      1180
32.430      1306
32.440      1180
32.450      1186
32.460      1080
32.470      1033
32.480      1060
32.490       940
32.500      1046
32.510       900
32.520       866
32.530       673
32.540       626
32.550       686
32.560       540
32.570       620
32.580       520
32.590       360
32.600       407
32.610       560
32.620       420
32.630       407
32.640       307
32.650       347
32.660       327
32.670       287
32.680       253
32.690       220
32.700       180
32.710       207
32.720       160
32.730       193
32.740       160
32.750       173
32.760       153
32.770       153
32.780       227
32.790       173
32.800       153
32.810       133
32.820       167
32.830       127
32.840       140
32.850       147
32.860       193
32.870       120
32.880       153
32.890        80
32.900       167
32.910        93
32.920       107
32.930       120
32.940        93
32.950       140
32.960       127
32.970        80
32.980        87
32.990       100
33.000       120
33.010       133
33.020        87
33.030       127
33.040        93
33.050        87
33.060       180
33.070       133
33.080        93
33.090       153
33.100        80
33.110        73
33.120        93
33.130       107
33.140       127
33.150       107
33.160       100
33.170       127
33.180       113
33.190       113
33.200        80
33.210        87
33.220       133
33.230       133
33.240        73
33.250       127
33.260       133
33.270       113
33.280       147
33.290       127
33.300       133
33.310       127
33.320       107
33.330       133
33.340        73
33.350        93
33.360        67
33.370        73
33.380       113
33.390       107
33.400       113
33.410       120
33.420       120
33.430       107
33.440       100
33.450       100
33.460        93
33.470       100
33.480        60
33.490       153
33.500        93
33.510       113
33.520        80
33.530       113
33.540        87
33.550       107
33.560        67
33.570        93
33.580        80
33.590        93
33.600        60
33.610       100
33.620        73
33.630       140
33.640        80
33.650       133
33.660        53
33.670       107
33.680        93
33.690        80
33.700       127
33.710       100
33.720        67
33.730       100
33.740       100
33.750        93
33.760       100
33.770        93
33.780       100
33.790       100
33.800        87
33.810        73
33.820        93
33.830        80
33.840       107
33.850       100
33.860       113
33.870       113
33.880        47
33.890        80
33.900       120
33.910        80
33.920        67
33.930       113
33.940        93
33.950        87
33.960        47
33.970        73
33.980        80
33.990        73
34.000        73
34.010        33
34.020        80
34.030        67
34.040        80
34.050       140
34.060       100
34.070       107
34.080        60
34.090        73
34.100        67
34.110        67
34.120        67
34.130        93
34.140        87
34.150        67
34.160        80
34.170        53
34.180        73
34.190        67
34.200       100
34.210        47
34.220       100
34.230        60
34.240        47
34.250        93
34.260        80
34.270        60
34.280        80
34.290        87
34.300        93
34.310        87
34.320       100
34.330        73
34.340        87
34.350       100
34.360        73
34.370       100
34.380       140
34.390       107
34.400        87
34.410        93
34.420        60
34.430        67
34.440        73
34.450        53
34.460        73
34.470        33
34.480        53
34.490        73
34.500        80
34.510        53
34.520       107
34.530        47
34.540        60
34.550       107
34.560        60
34.570       120
34.580       107
34.590       133
34.600        67
34.610        67
34.620        53
34.630        73
34.640        80
34.650        60
34.660       113
34.670        80
34.680        53
34.690        67
34.700        40
34.710        87
34.720        73
34.730       120
34.740        60
34.750        80
34.760        73
34.770        60
34.780        80
34.790        60
34.800        47
34.810        87
34.820        40
34.830        67
34.840        33
34.850        80
34.860        47
34.870        87
34.880        93
34.890        93
34.900        73
34.910       100
34.920        80
34.930        73
34.940       100
34.950        67
34.960       113
34.970        47
34.980        67
34.990       100
35.000       100
35.010        87
35.020        27
35.030        87
35.040        67
35.050        93
35.060       100
35.070        73
35.080       107
35.090        53
35.100        53
35.110        87
35.120        60
35.130        73
35.140        60
35.150        47
35.160        60
35.170        40
35.180       100
35.190        80
35.200        87
35.210       100
35.220        53
35.230        33
35.240       107
35.250        40
35.260        73
35.270        87
35.280        60
35.290        40
35.300        87
35.310        80
35.320       100
35.330        73
35.340        40
35.350        67
35.360        80
35.370       107
35.380        53
35.390        53
35.400        73
35.410        53
35.420        87
35.430        60
35.440        73
35.450        33
35.460       147
35.470        47
35.480        60
35.490        87
35.500        40
35.510        47
35.520        53
35.530        67
35.540       127
35.550        47
35.560        67
35.570        53
35.580        80
35.590        47
35.600        80
35.610        67
35.620        60
35.630        67
35.640        40
35.650        87
35.660        73
35.670        67
35.680        40
35.690        67
35.700        47
35.710        53
35.720        60
35.730        60
35.740        93
35.750        53
35.760        73
35.770        60
35.780        87
35.790        67
35.800        60
35.810        40
35.820        93
35.830        40
35.840        80
35.850        60
35.860       100
35.870        47
35.880        27
35.890        60
35.900        47
35.910        47
35.920        80
35.930        67
35.940        33
35.950       100
35.960        60
35.970        33
35.980        53
35.990        47
36.000        67
36.010        67
36.020        67
36.030        60
36.040        40
36.050        40
36.060       100
36.070        60
36.080        93
36.090       100
36.100        80
36.110        80
36.120        73
36.130        93
36.140        27
36.150        93
36.160        40
36.170        33
36.180        27
36.190        67
36.200       100
36.210        60
36.220        73
36.230        53
36.240        60
36.250        67
36.260        73
36.270        67
36.280        80
36.290        40
36.300        60
36.310        47
36.320        20
36.330        47
36.340        73
36.350        47
36.360        40
36.370        53
36.380        53
36.390        73
36.400        40
36.410       107
36.420        40
36.430        60
36.440        67
36.450        40
36.460        53
36.470        40
36.480        47
36.490        93
36.500        67
36.510        60
36.520        87
36.530        47
36.540        47
36.550        87
36.560        60
36.570        67
36.580        73
36.590        60
36.600        67
36.610        27
36.620        73
36.630        60
36.640        80
36.650        53
36.660        67
36.670        73
36.680        53
36.690        40
36.700        27
36.710        40
36.720        60
36.730        73
36.740        27
36.750        40
36.760        93
36.770        60
36.780        60
36.790        53
36.800        47
36.810        53
36.820        73
36.830        60
36.840        80
36.850        40
36.860        87
36.870        20
36.880        53
36.890        27
36.900        53
36.910        53
36.920        67
36.930        60
36.940        80
36.950        67
36.960        33
36.970        40
36.980        53
36.990        13
37.000        53
37.010        67
37.020        40
37.030        33
37.040        53
37.050        33
37.060        27
37.070        20
37.080        47
37.090        87
37.100        60
37.110        40
37.120        73
37.130        60
37.140        60
37.150        80
37.160        60
37.170        80
37.180        47
37.190        27
37.200        73
37.210        47
37.220        40
37.230        47
37.240        73
37.250        33
37.260        47
37.270        60
37.280        53
37.290        47
37.300        53
37.310        73
37.320        53
37.330       100
37.340        47
37.350        33
37.360        67
37.370        60
37.380        47
37.390        53
37.400        53
37.410        73
37.420        60
37.430        47
37.440        27
37.450        60
37.460        67
37.470        47
37.480        47
37.490        40
37.500        67
37.510        53
37.520        73
37.530        47
37.540        20
37.550        33
37.560        87
37.570        80
37.580        27
37.590        53
37.600        13
37.610        60
37.620        47
37.630        33
37.640        53
37.650        47
37.660        60
37.670        40
37.680        53
37.690        47
37.700       100
37.710        47
37.720        47
37.730        40
37.740        13
37.750        20
37.760        53
37.770        40
37.780        73
37.790        47
37.800        40
37.810        47
37.820        33
37.830        20
37.840        20
37.850        20
37.860        40
37.870        60
37.880        27
37.890        60
37.900        47
37.910        47
37.920        27
37.930        53
37.940        13
37.950        33
37.960        53
37.970        40
37.980        20
37.990        20
38.000        47
38.010        60
38.020        53
38.030        40
38.040        60
38.050        67
38.060        33
38.070        33
38.080        53
38.090        67
38.100        40
38.110        53
38.120        27
38.130        33
38.140        40
38.150        13
38.160        67
38.170        47
38.180        33
38.190        40
38.200        33
38.210        60
38.220        47
38.230        20
38.240        53
38.250        47
38.260        73
38.270        60
38.280        13
38.290        40
38.300        47
38.310        27
38.320        73
38.330        33
38.340        53
38.350        53
38.360        47
38.370        80
38.380        20
38.390        13
38.400        40
38.410        47
38.420        40
38.430        93
38.440        53
38.450        47
38.460        67
38.470        60
38.480        27
38.490        27
38.500        73
38.510        20
38.520        47
38.530        20
38.540        27
38.550        47
38.560        47
38.570        67
38.580        27
38.590        27
38.600        20
38.610        33
38.620        47
38.630        33
38.640        20
38.650        20
38.660        47
38.670        47
38.680        67
38.690        20
38.700        40
38.710        60
38.720        40
38.730        33
38.740        67
38.750        27
38.760        27
38.770        27
38.780        40
38.790        47
38.800        33
38.810        27
38.820        40
38.830        20
38.840        33
38.850        20
38.860        47
38.870        47
38.880        73
38.890        27
38.900        47
38.910        80
38.920        87
38.930        53
38.940        53
38.950        40
38.960        60
38.970        40
38.980        67
38.990        27
39.000        53
39.010        33
39.020        33
39.030        60
39.040        20
39.050        33
39.060        27
39.070        20
39.080        40
39.090        20
39.100        40
39.110        53
39.120        27
39.130        40
39.140        60
39.150        47
39.160        47
39.170        67
39.180        27
39.190        47
39.200         7
39.210        27
39.220        60
39.230        27
39.240        40
39.250        47
39.260        40
39.270        33
39.280        27
39.290        73
39.300        67
39.310        40
39.320        47
39.330        27
39.340        60
39.350        40
39.360        73
39.370        53
39.380        27
39.390        47
39.400        20
39.410        53
39.420        40
39.430        53
39.440        53
39.450        40
39.460        13
39.470        40
39.480        27
39.490        60
39.500        47
39.510        40
39.520        87
39.530        47
39.540        47
39.550        33
39.560        27
39.570        40
39.580        47
39.590        20
39.600        47
39.610        47
39.620        53
39.630        60
39.640        33
39.650        27
39.660        53
39.670        40
39.680        60
39.690        40
39.700        40
39.710        40
39.720        47
39.730        53
39.740        47
39.750        27
39.760        53
39.770        13
39.780        13
39.790        47
39.800        53
39.810        13
39.820        27
39.830        40
39.840        67
39.850        40
39.860        87
39.870        60
39.880        40
39.890        40
39.900        20
39.910        60
39.920        33
39.930        60
39.940        60
39.950        20
39.960        53
39.970        67
39.980        33
39.990        40
40.000        73
40.010        60
40.020        60
40.030        33
40.040        73
40.050        87
40.060        33
40.070        27
40.080        80
40.090       107
40.100        47
40.110        33
40.120        33
40.130        20
40.140        40
40.150        60
40.160        40
40.170        93
40.180        40
40.190        40
40.200        53
40.210        47
40.220        40
40.230        33
40.240        20
40.250        87
40.260        47
40.270        47
40.280        47
40.290        13
40.300        40
40.310        33
40.320         7
40.330        20
40.340        53
40.350        13
40.360        47
40.370        60
40.380        53
40.390        47
40.400        40
40.410        47
40.420        73
40.430         7
40.440        33
40.450        53
40.460        73
40.470        40
40.480        27
40.490        20
40.500        67
40.510        13
40.520        20
40.530        47
40.540        27
40.550        40
40.560        40
40.570        27
40.580        13
40.590        60
40.600        53
40.610        27
40.620        73
40.630        13
40.640        20
40.650        33
40.660         7
40.670        33
40.680        20
40.690        33
40.700        47
40.710        40
40.720        20
40.730        47
40.740        27
40.750        27
40.760        40
40.770        13
40.780        40
40.790        40
40.800        53
40.810        20
40.820        47
40.830        47
40.840        47
40.850        40
40.860        73
40.870        33
40.880        20
40.890        27
40.900        53
40.910        13
40.920        27
40.930        47
40.940        53
40.950        47
40.960        20
40.970        40
40.980        33
40.990        27
41.000        47
41.010        13
41.020        47
41.030        33
41.040         7
41.050        40
41.060        27
41.070        40
41.080        33
41.090        13
41.100        40
41.110        13
41.120        40
41.130        33
41.140        67
41.150        20
41.160        60
41.170        20
41.180        47
41.190        27
41.200        33
41.210        27
41.220        53
41.230        33
41.240        20
41.250        40
41.260        67
41.270        33
41.280        53
41.290        40
41.300        73
41.310        20
41.320        20
41.330        60
41.340        47
41.350        53
41.360        13
41.370        33
41.380        40
41.390        47
41.400        27
41.410        33
41.420        33
41.430        73
41.440        27
41.450        20
41.460        47
41.470        87
41.480        73
41.490        53
41.500        33
41.510        47
41.520        40
41.530        33
41.540        27
41.550        60
41.560        33
41.570        73
41.580        67
41.590        33
41.600        27
41.610        73
41.620        27
41.630        53
41.640        73
41.650        40
41.660        67
41.670        73
41.680        27
41.690        47
41.700        67
41.710        53
41.720        47
41.730        53
41.740        33
41.750        80
41.760        27
41.770        47
41.780        73
41.790        67
41.800        47
41.810        53
41.820        53
41.830        27
41.840        33
41.850        60
41.860        40
41.870        27
41.880        40
41.890        60
41.900        40
41.910        40
41.920        33
41.930        67
41.940        27
41.950        47
41.960        60
41.970        33
41.980        40
41.990        53
42.000        47
42.010        47
42.020        40
42.030        20
42.040        47
42.050        20
42.060        40
42.070        47
42.080        47
42.090        40
42.100        13
42.110        20
42.120         0
42.130        27
42.140        27
42.150        27
42.160        33
42.170        47
42.180        47
42.190        47
42.200        33
42.210        40
42.220        20
42.230        47
42.240        47
42.250        20
42.260         7
42.270        13
42.280        40
42.290        47
42.300        20
42.310        47
42.320        20
42.330         7
42.340        47
42.350        27
42.360        47
42.370        40
42.380        20
42.390        27
42.400        47
42.410        40
42.420        33
42.430        33
42.440        13
42.450        53
42.460        40
42.470        47
42.480        47
42.490        80
42.500         7
42.510        40
42.520        33
42.530        27
42.540        60
42.550        20
42.560        13
42.570        67
42.580        40
42.590        27
42.600        47
42.610        33
42.620        47
42.630        27
42.640        33
42.650        20
42.660        27
42.670        33
42.680        53
42.690        40
42.700        20
42.710        40
42.720         7
42.730        27
42.740        47
42.750        33
42.760        33
42.770        20
42.780        33
42.790        13
42.800        33
42.810        13
42.820        20
42.830        53
42.840        53
42.850        20
42.860        40
42.870        40
42.880        40
42.890        27
42.900        40
42.910        67
42.920        40
42.930        47
42.940        20
42.950         7
42.960        33
42.970        27
42.980        27
42.990        47
43.000        53
43.010        13
43.020        53
43.030        13
43.040        60
43.050        53
43.060        53
43.070        47
43.080        47
43.090        47
43.100        27
43.110        20
43.120        20
43.130        40
43.140        20
43.150        20
43.160        47
43.170         7
43.180        20
43.190        40
43.200        33
43.210        27
43.220        13
43.230        20
43.240        27
43.250        27
43.260        33
43.270        47
43.280        13
43.290        20
43.300        27
43.310        20
43.320        47
43.330        27
43.340        13
43.350        80
43.360        33
43.370        47
43.380        47
43.390        20
43.400         0
43.410        47
43.420        13
43.430        73
43.440        53
43.450        27
43.460        13
43.470        33
43.480        60
43.490        47
43.500        33
43.510        40
43.520        33
43.530        20
43.540        13
43.550        60
43.560        20
43.570        33
43.580        27
43.590        20
43.600        40
43.610        13
43.620        33
43.630        33
43.640        20
43.650        20
43.660        20
43.670        13
43.680        33
43.690        47
43.700         7
43.710        13
43.720        20
43.730        20
43.740        20
43.750        33
43.760        27
43.770        33
43.780        60
43.790        20
43.800        27
43.810        60
43.820        47
43.830        33
43.840        20
43.850        40
43.860        40
43.870        40
43.880        47
43.890        40
43.900        53
43.910        13
43.920        47
43.930        27
43.940        27
43.950        27
43.960        53
43.970        40
43.980        20
43.990        27
44.000        40
44.010        27
44.020        40
44.030        20
44.040         7
44.050        53
44.060        13
44.070        20
44.080        27
44.090         7
44.100        27
44.110        47
44.120        67
44.130        27
44.140        20
44.150        53
44.160        33
44.170        40
44.180        20
44.190        40
44.200        60
44.210        60
44.220        73
44.230        33
44.240        47
44.250        13
44.260        40
44.270        27
44.280        33
44.290        53
44.300        27
44.310        33
44.320        27
44.330        20
44.340        53
44.350        20
44.360        20
44.370        20
44.380        33
44.390        13
44.400        27
44.410        40
44.420        20
44.430        40
44.440        47
44.450        33
44.460        33
44.470        53
44.480        67
44.490        40
44.500        67
44.510        40
44.520        47
44.530         7
44.540        13
44.550        40
44.560        47
44.570        40
44.580        60
44.590        33
44.600        53
44.610        40
44.620        40
44.630        13
44.640        27
44.650        73
44.660        53
44.670        53
44.680        60
44.690        27
44.700        47
44.710       100
44.720        40
44.730       100
44.740        27
44.750        67
44.760       100
44.770        80
44.780        20
44.790        47
44.800        40
44.810        67
44.820        67
44.830        67
44.840        80
44.850        47
44.860        67
44.870        60
44.880        93
44.890        60
44.900        40
44.910        67
44.920       113
44.930        67
44.940        33
44.950        80
44.960        60
44.970        87
44.980        80
44.990        53
45.000        53
45.010        33
45.020        40
45.030        87
45.040        80
45.050        73
45.060        73
45.070        60
45.080        87
45.090        67
45.100        87
45.110        80
45.120        67
45.130       100
45.140        60
45.150       120
45.160        80
45.170        80
45.180        93
45.190        93
45.200        67
45.210        80
45.220        40
45.230        80
45.240        80
45.250        80
45.260        33
45.270        73
45.280       100
45.290       107
45.300       127
45.310       107
45.320        73
45.330       120
45.340        53
45.350        80
45.360        80
45.370        73
45.380       100
45.390       133
45.400        67
45.410        73
45.420       113
45.430       127
45.440       120
45.450       127
45.460        93
45.470       147
45.480       100
45.490       127
45.500       120
45.510       133
45.520       160
45.530       133
45.540       193
45.550       140
45.560       133
45.570       180
45.580       120
45.590       160
45.600        93
45.610       180
45.620       147
45.630       167
45.640       147
45.650       233
45.660       207
45.670       207
45.680       173
45.690       240
45.700       280
45.710       187
45.720       253
45.730       320
45.740       307
45.750       280
45.760       320
45.770       333
45.780       340
45.790       400
45.800       293
45.810       393
45.820       300
45.830       373
45.840       460
45.850       426
45.860       480
45.870       433
45.880       533
45.890       526
45.900       613
45.910       586
45.920       640
45.930       726
45.940       713
45.950       780
45.960       773
45.970       786
45.980       873
45.990       860
46.000       860
46.010       933
46.020      1133
46.030      1140
46.040      1153
46.050      1299
46.060      1286
46.070      1293
46.080      1359
46.090      1566
46.100      1546
46.110      1779
46.120      1646
46.130      1853
46.140      1759
46.150      2006
46.160      2039
46.170      2079
46.180      1913
46.190      2339
46.200      2399
46.210      2306
46.220      2746
46.230      2812
46.240      2892
46.250      2852
46.260      2819
46.270      2766
46.280      2965
46.290      3072
46.300      3132
46.310      3072
46.320      3092
46.330      3105
46.340      2979
46.350      3312
46.360      3039
46.370      3272
46.380      3052
46.390      2892
46.400      2686
46.410      2852
46.420      2932
46.430      2892
46.440      2779
46.450      2746
46.460      2806
46.470      2626
46.480      2246
46.490      2279
46.500      2232
46.510      2172
46.520      2159
46.530      1899
46.540      2119
46.550      1846
46.560      1853
46.570      1699
46.580      1666
46.590      1519
46.600      1406
46.610      1333
46.620      1319
46.630      1259
46.640      1226
46.650      1220
46.660      1093
46.670      1026
46.680       900
46.690       980
46.700       853
46.710       853
46.720       820
46.730       560
46.740       720
46.750       873
46.760       593
46.770       640
46.780       526
46.790       586
46.800       700
46.810       560
46.820       586
46.830       526
46.840       446
46.850       433
46.860       500
46.870       373
46.880       393
46.890       353
46.900       380
46.910       347
46.920       413
46.930       307
46.940       353
46.950       280
46.960       373
46.970       287
46.980       293
46.990       267
47.000       220
47.010       260
47.020       313
47.030       267
47.040       227
47.050       213
47.060       280
47.070       187
47.080       247
47.090       207
47.100       253
47.110       307
47.120       320
47.130       453
47.140       407
47.150       566
47.160       833
47.170       740
47.180       866
47.190       866
47.200       780
47.210       826
47.220       720
47.230       606
47.240       460
47.250       360
47.260       340
47.270       240
47.280       240
47.290       180
47.300       233
47.310       200
47.320       187
47.330       253
47.340       187
47.350       113
47.360       153
47.370       140
47.380       127
47.390       140
47.400       107
47.410       133
47.420       133
47.430       113
47.440       127
47.450       127
47.460        60
47.470       120
47.480        87
47.490        87
47.500       100
47.510        93
47.520        93
47.530       127
47.540       100
47.550        67
47.560       140
47.570        53
47.580        87
47.590        67
47.600        87
47.610        87
47.620       107
47.630        60
47.640        87
47.650        73
47.660        80
47.670        80
47.680        47
47.690        73
47.700        47
47.710        53
47.720        53
47.730        40
47.740        73
47.750        47
47.760        60
47.770        93
47.780        60
47.790        87
47.800        67
47.810        67
47.820        53
47.830        80
47.840        60
47.850        80
47.860        40
47.870        33
47.880        93
47.890        60
47.900        67
47.910        47
47.920        53
47.930        87
47.940        60
47.950        73
47.960        87
47.970        60
47.980        67
47.990        40
48.000        33
48.010        67
48.020        27
48.030        93
48.040        73
48.050        60
48.060        47
48.070        53
48.080        33
48.090        53
48.100        60
48.110       127
48.120        20
48.130        53
48.140        47
48.150        73
48.160        40
48.170        27
48.180        60
48.190        40
48.200        67
48.210        27
48.220        27
48.230        87
48.240        87
48.250        53
48.260        13
48.270        67
48.280        87
48.290        20
48.300        33
48.310        47
48.320        27
48.330        67
48.340        47
48.350        27
48.360        53
48.370        60
48.380        20
48.390        67
48.400        40
48.410       107
48.420        87
48.430        73
48.440        40
48.450        87
48.460        47
48.470        40
48.480        47
48.490        73
48.500        67
48.510        40
48.520        53
48.530        67
48.540        67
48.550        53
48.560        53
48.570        53
48.580        60
48.590        67
48.600        20
48.610        40
48.620        33
48.630        13
48.640        20
48.650        33
48.660        40
48.670        67
48.680        40
48.690        47
48.700        53
48.710        47
48.720        33
48.730        33
48.740        60
48.750        80
48.760        67
48.770        80
48.780        20
48.790        73
48.800        40
48.810        20
48.820        47
48.830        27
48.840        20
48.850        53
48.860        47
48.870        47
48.880        20
48.890        40
48.900        53
48.910        47
48.920        33
48.930        40
48.940        67
48.950        20
48.960        27
48.970        47
48.980        40
48.990        87
49.000        47
49.010        47
49.020        73
49.030        47
49.040        67
49.050        47
49.060        47
49.070        27
49.080        13
49.090        73
49.100        33
49.110        53
49.120        40
49.130        47
49.140        33
49.150        20
49.160        47
49.170        47
49.180        40
49.190        60
49.200        67
49.210        53
49.220        67
49.230        47
49.240        33
49.250        13
49.260        47
49.270        60
49.280        47
49.290        47
49.300        73
49.310        33
49.320        80
49.330        33
49.340        27
49.350        33
49.360        67
49.370        40
49.380        47
49.390        40
49.400        73
49.410        27
49.420        33
49.430        40
49.440        27
49.450        33
49.460        27
49.470        40
49.480        33
49.490        47
49.500        27
49.510        40
49.520        53
49.530        40
49.540        33
49.550        53
49.560        60
49.570        33
49.580        47
49.590        33
49.600        47
49.610        53
49.620        67
49.630        40
49.640        33
49.650        20
49.660        13
49.670        27
49.680        53
49.690        27
49.700        33
49.710        53
49.720        27
49.730        53
49.740        53
49.750        80
49.760        60
49.770        47
49.780        73
49.790        73
49.800        40
49.810        40
49.820        13
49.830        33
49.840        40
49.850        47
49.860        27
49.870         7
49.880        53
49.890        53
49.900        67
49.910        33
49.920        40
49.930        33
49.940        20
49.950        53
49.960        40
49.970        33
49.980        60
49.990        93
50.000        60
50.010        33
50.020        27
50.030        27
50.040        47
50.050        20
50.060        20
50.070        20
50.080        53
50.090        53
50.100        80
50.110        47
50.120        20
50.130         7
50.140        40
50.150        33
50.160        60
50.170        40
50.180        27
50.190        20
50.200        27
50.210        40
50.220        47
50.230        47
50.240        13
50.250        47
50.260        33
50.270        20
50.280        20
50.290        40
50.300        60
50.310        47
50.320        53
50.330        27
50.340        27
50.350        27
50.360        27
50.370        53
50.380        40
50.390        40
50.400        47
50.410        20
50.420        53
50.430        27
50.440        80
50.450        20
50.460        47
50.470        47
50.480        53
50.490        27
50.500        27
50.510        33
50.520        33
50.530        47
50.540        60
50.550        40
50.560        40
50.570        53
50.580        20
50.590        73
50.600        80
50.610        73
50.620        80
50.630        27
50.640        60
50.650       140
50.660       133
50.670       147
50.680       133
50.690       147
50.700       153
50.710       213
50.720       187
50.730       240
50.740       247
50.750       193
50.760       247
50.770       267
50.780       213
50.790       167
50.800       247
50.810       160
50.820       260
50.830       247
50.840       207
50.850       267
50.860       187
50.870       227
50.880       227
50.890       300
50.900       193
50.910       220
50.920       193
50.930       187
50.940       227
50.950       273
50.960       213
50.970       167
50.980       160
50.990       280
51.000       193
51.010       227
51.020       253
51.030       207
51.040       187
51.050       233
51.060       233
51.070       260
51.080       260
51.090       307
51.100       193
51.110       253
51.120       180
51.130       153
51.140       133
51.150       200
51.160       200
51.170       167
51.180       213
51.190       267
51.200       220
51.210       247
51.220       160
51.230       260
51.240       200
51.250       227
51.260       333
51.270       187
51.280       227
51.290       220
51.300       180
51.310       207
51.320       213
51.330       287
51.340       240
51.350       240
51.360       240
51.370       180
51.380       267
51.390       233
51.400       207
51.410       180
51.420       247
51.430       220
51.440       187
51.450       247
51.460       227
51.470       260
51.480       260
51.490       200
51.500       213
51.510       253
51.520       287
51.530       180
51.540       240
51.550       253
51.560       240
51.570       273
51.580       167
51.590       187
51.600       213
51.610       240
51.620       300
51.630       280
51.640       227
51.650       220
51.660       207
51.670       220
51.680       220
51.690       273
51.700       187
51.710       247
51.720       233
51.730       233
51.740       240
51.750       307
51.760       213
51.770       253
51.780       240
51.790       287
51.800       253
51.810       253
51.820       267
51.830       327
51.840       247
51.850       287
51.860       307
51.870       327
51.880       227
51.890       280
51.900       253
51.910       260
51.920       287
51.930       280
51.940       313
51.950       313
51.960       313
51.970       280
51.980       253
51.990       300
52.000       260
52.010       180
52.020       387
52.030       327
52.040       347
52.050       320
52.060       300
52.070       300
52.080       373
52.090       347
52.100       353
52.110       293
52.120       360
52.130       313
52.140       433
52.150       420
52.160       453
52.170       367
52.180       480
52.190       433
52.200       526
52.210       480
52.220       460
52.230       566
52.240       646
52.250       673
52.260       720
52.270       880
52.280       866
52.290       986
52.300      1153
52.310      1120
52.320      1459
52.330      1446
52.340      1753
52.350      1606
52.360      1666
52.370      1626
52.380      1826
52.390      1813
52.400      1986
52.410      1799
52.420      1873
52.430      1899
52.440      2079
52.450      2646
52.460      3059
52.470      3652
52.480      4572
52.490      5864
52.500      7930
52.510     10063
52.520     13981
52.530     23337
52.540     37892
52.550     60776
52.560     79655
52.570     93876
52.580    101293
52.590    103299
52.600    100546
52.610     89004
52.620     69306
52.630     48907
52.640     32227
52.650     23457
52.660     20512
52.670     22144
52.680     28175
52.690     38811
52.700     48467
52.710     55025
52.720     58863
52.730     59030
52.740     56078
52.750     49227
52.760     38311
52.770     26143
52.780     17007
52.790     11229
52.800      8043
52.810      6464
52.820      5811
52.830      5564
52.840      4825
52.850      4372
52.860      3572
52.870      3239
52.880      2706
52.890      2266
52.900      1946
52.910      1586
52.920      1379
52.930      1233
52.940       926
52.950       720
52.960       960
52.970       900
52.980       913
52.990       813
53.000       673
53.010       600
53.020       726
53.030       660
53.040       553
53.050       520
53.060       553
53.070       593
53.080       593
53.090       580
53.100       446
53.110       486
53.120       526
53.130       440
53.140       413
53.150       433
53.160       426
53.170       453
53.180       453
53.190       387
53.200       380
53.210       400
53.220       380
53.230       333
53.240       340
53.250       440
53.260       287
53.270       333
53.280       307
53.290       367
53.300       293
53.310       287
53.320       400
53.330       380
53.340       320
53.350       273
53.360       307
53.370       347
53.380       340
53.390       293
53.400       340
53.410       273
53.420       307
53.430       240
53.440       280
53.450       260
53.460       313
53.470       207
53.480       253
53.490       227
53.500       233
53.510       260
53.520       280
53.530       287
53.540       140
53.550       233
53.560       227
53.570       220
53.580       293
53.590       220
53.600       253
53.610       187
53.620       220
53.630       313
53.640       227
53.650       227
53.660       240
53.670       200
53.680       240
53.690       180
53.700       227
53.710       127
53.720       213
53.730       233
53.740       187
53.750       300
53.760       200
53.770       153
53.780       173
53.790       220
53.800       253
53.810       193
53.820       200
53.830       213
53.840       307
53.850       173
53.860       247
53.870       167
53.880       187
53.890       207
53.900       193
53.910       147
53.920       173
53.930       153
53.940       193
53.950       140
53.960       233
53.970       200
53.980       193
53.990       140
54.000       240
54.010       220
54.020       220
54.030       180
54.040       187
54.050       180
54.060       180
54.070       147
54.080       153
54.090       180
54.100       153
54.110       287
54.120       147
54.130       147
54.140       167
54.150       160
54.160       200
54.170       207
54.180       207
54.190       187
54.200       213
54.210       193
54.220       267
54.230       147
54.240       173
54.250       127
54.260       253
54.270       233
54.280       167
54.290       200
54.300        73
54.310       247
54.320       127
54.330       127
54.340       207
54.350       193
54.360       227
54.370       133
54.380       207
54.390       200
54.400       160
54.410       187
54.420       187
54.430       193
54.440       127
54.450       193
54.460       167
54.470       147
54.480       120
54.490       193
54.500       180
54.510       173
54.520       167
54.530       180
54.540       193
54.550       140
54.560       160
54.570       200
54.580       173
54.590       107
54.600       167
54.610       173
54.620       213
54.630       120
54.640       153
54.650       187
54.660       140
54.670       140
54.680       153
54.690       127
54.700       160
54.710       173
54.720       160
54.730       160
54.740       153
54.750       140
54.760       193
54.770       113
54.780       200
54.790       120
54.800       160
54.810       133
54.820       180
54.830       167
54.840       187
54.850       200
54.860       127
54.870       147
54.880       127
54.890       140
54.900       140
54.910       180
54.920       147
54.930       127
54.940       207
54.950       180
54.960       107
54.970        87
54.980       113
54.990       120
55.000       187
55.010       140
55.020       173
55.030       133
55.040       127
55.050       133
55.060       207
55.070       133
55.080       160
55.090        87
55.100       147
55.110       113
55.120       133
55.130       120
55.140       113
55.150       127
55.160       167
55.170       207
55.180       153
55.190       120
55.200       113
55.210       140
55.220       147
55.230       140
55.240       147
55.250       160
55.260       100
55.270       153
55.280       107
55.290       133
55.300       127
55.310       187
55.320       153
55.330       173
55.340       140
55.350       147
55.360       220
55.370        93
55.380       160
55.390       113
55.400       160
55.410       140
55.420       127
55.430       133
55.440       147
55.450       147
55.460       153
55.470       127
55.480       140
55.490       180
55.500       120
55.510       133
55.520       120
55.530       127
55.540       127
55.550       100
55.560       100
55.570        87
55.580       133
55.590       113
55.600        73
55.610       133
55.620       127
55.630       167
55.640        80
55.650        93
55.660       180
55.670       100
55.680       107
55.690       107
55.700       147
55.710       113
55.720       153
55.730       153
55.740       147
55.750       160
55.760       127
55.770       153
55.780       113
55.790       127
55.800        47
55.810       127
55.820       107
55.830       107
55.840       133
55.850       140
55.860       160
55.870        93
55.880       120
55.890       127
55.900       100
55.910       153
55.920       127
55.930       153
55.940        60
55.950       187
55.960        73
55.970       127
55.980       147
55.990       107
56.000       127
56.010       113
56.020       173
56.030       120
56.040       127
56.050       133
56.060       127
56.070       140
56.080       120
56.090       107
56.100        93
56.110       187
56.120       100
56.130        80
56.140       127
56.150        93
56.160       127
56.170       127
56.180       127
56.190       140
56.200       127
56.210        73
56.220       120
56.230       113
56.240       140
56.250       147
56.260        87
56.270        80
56.280       100
56.290       100
56.300       100
56.310        87
56.320       127
56.330       167
56.340       107
56.350       153
56.360       113
56.370       127
56.380       113
56.390       127
56.400       120
56.410       187
56.420        67
56.430       113
56.440        80
56.450       147
56.460       107
56.470       140
56.480       153
56.490       107
56.500        67
56.510       140
56.520       147
56.530        87
56.540       140
56.550       120
56.560       113
56.570       140
56.580        93
56.590        87
56.600       120
56.610       107
56.620       113
56.630       140
56.640        93
56.650       113
56.660        73
56.670       107
56.680       127
56.690       180
56.700        53
56.710       107
56.720       107
56.730       100
56.740        67
56.750        73
56.760       140
56.770       153
56.780        67
56.790       120
56.800       120
56.810        67
56.820        93
56.830        87
56.840       120
56.850       107
56.860       153
56.870        73
56.880       133
56.890       127
56.900       147
56.910       113
56.920        80
56.930        93
56.940       100
56.950       100
56.960       140
56.970        60
56.980        60
56.990        87
57.000       100
57.010       153
57.020        67
57.030       120
57.040       107
57.050       153
57.060       167
57.070        73
57.080       100
57.090        73
57.100       140
57.110       153
57.120        80
57.130       133
57.140        53
57.150        80
57.160       113
57.170        80
57.180       100
57.190       100
57.200       107
57.210        80
57.220        67
57.230       133
57.240        87
57.250       107
57.260        73
57.270       100
57.280        60
57.290        87
57.300       113
57.310       107
57.320       100
57.330       133
57.340        60
57.350       107
57.360        67
57.370        73
57.380        87
57.390        73
57.400        93
57.410        80
57.420        80
57.430        93
57.440       127
57.450       140
57.460        87
57.470        73
57.480        67
57.490        73
57.500       140
57.510        93
57.520        73
57.530        80
57.540       107
57.550       187
57.560        80
57.570        87
57.580        73
57.590       113
57.600       120
57.610        93
57.620       120
57.630        80
57.640        73
57.650        93
57.660       100
57.670       173
57.680       107
57.690        67
57.700        80
57.710       107
57.720        67
57.730        60
57.740       127
57.750        93
57.760        73
57.770       147
57.780        67
57.790       107
57.800        53
57.810       120
57.820        60
57.830       100
57.840       107
57.850       133
57.860        87
57.870        80
57.880       133
57.890        73
57.900       113
57.910       127
57.920       107
57.930        87
57.940       100
57.950        80
57.960       107
57.970        93
57.980       107
57.990       107
58.000        53
58.010        67
58.020        80
58.030        47
58.040        67
58.050        40
58.060       100
58.070        60
58.080        80
58.090       100
58.100        87
58.110        60
58.120        93
58.130        80
58.140        60
58.150        93
58.160        80
58.170        67
58.180       100
58.190       107
58.200       100
58.210        80
58.220        80
58.230        47
58.240       127
58.250        67
58.260       107
58.270        67
58.280       100
58.290        87
58.300        73
58.310       113
58.320        80
58.330       113
58.340       120
58.350       140
58.360        93
58.370        53
58.380       100
58.390       133
58.400        93
58.410       133
58.420        93
58.430        67
58.440        60
58.450        47
58.460        67
58.470        87
58.480        60
58.490       107
58.500        33
58.510        60
58.520       100
58.530       100
58.540        87
58.550        53
58.560        87
58.570        73
58.580        67
58.590        73
58.600        53
58.610        87
58.620       100
58.630       113
58.640        53
58.650        53
58.660        80
58.670        60
58.680       100
58.690        73
58.700        67
58.710        67
58.720        87
58.730        73
58.740        40
58.750       100
58.760        47
58.770       100
58.780       107
58.790        53
58.800       140
58.810        87
58.820        60
58.830       107
58.840        67
58.850       127
58.860        93
58.870        93
58.880        33
58.890        87
58.900        67
58.910        67
58.920        80
58.930        73
58.940       100
58.950       107
58.960        80
58.970        67
58.980        33
58.990        67
59.000        87
59.010        73
59.020       120
59.030        93
59.040        73
59.050       100
59.060        67
59.070       100
59.080        67
59.090        73
59.100       100
59.110        67
59.120       120
59.130        47
59.140        60
59.150        47
59.160        73
59.170        80
59.180       107
59.190        53
59.200        53
59.210       113
59.220        47
59.230        73
59.240        87
59.250       107
59.260       133
59.270        53
59.280        60
59.290        80
59.300        60
59.310        60
59.320       113
59.330        93
59.340        87
59.350       113
59.360        67
59.370        53
59.380       100
59.390        53
59.400        60
59.410        53
59.420        27
59.430        53
59.440        33
59.450        47
59.460        60
59.470        60
59.480        80
59.490        80
59.500        67
59.510        60
59.520        93
59.530        67
59.540        47
59.550        53
59.560        47
59.570        53
59.580       100
59.590        73
59.600        53
59.610        60
59.620        47
59.630        67
59.640       120
59.650        47
59.660        93
59.670        60
59.680        67
59.690       107
59.700        47
59.710        93
59.720        47
59.730        60
59.740        67
59.750       127
59.760        87
59.770        67
59.780       107
59.790        67
59.800        33
59.810        87
59.820       107
59.830       127
59.840        93
59.850        40
59.860        67
59.870        93
59.880        60
59.890       100
59.900        60
59.910        67
59.920        67
59.930        80
59.940        67
59.950        60
59.960        80
59.970        60
59.980        40
59.990        60
60.000        53
