20.000        33
20.010        33
20.020        33
20.030        40
20.040        40
20.050        47
20.060        27
20.070        20
20.080        40
20.090        47
20.100        33
20.110        67
20.120        33
20.130        20
20.140        33
20.150        47
20.160        73
20.170        47
20.180        40
20.190        47
20.200        80
20.210        40
20.220        33
20.230        40
20.240        67
20.250        20
20.260        20
20.270        20
20.280        53
20.290        27
20.300        67
20.310        47
20.320        87
20.330        33
20.340        53
20.350        47
20.360        60
20.370        33
20.380        47
20.390        53
20.400        20
20.410        40
20.420        27
20.430        27
20.440        87
20.450        60
20.460        20
20.470        33
20.480        27
20.490        40
20.500        40
20.510        73
20.520        53
20.530        47
20.540        47
20.550        53
20.560        40
20.570        53
20.580        67
20.590        27
20.600        33
20.610        53
20.620        53
20.630        33
20.640        47
20.650        40
20.660        47
20.670        40
20.680        20
20.690        60
20.700        53
20.710        67
20.720        60
20.730        40
20.740        33
20.750        53
20.760        40
20.770        40
20.780        47
20.790        53
20.800        67
20.810        40
20.820        40
20.830        40
20.840        40
20.850        20
20.860        53
20.870        53
20.880        87
20.890        53
20.900        73
20.910        53
20.920        47
20.930        47
20.940        33
20.950        27
20.960        40
20.970        53
20.980        60
20.990        40
21.000        27
21.010        27
21.020        13
21.030        53
21.040         7
21.050        47
21.060        33
21.070        40
21.080        53
21.090        47
21.100        33
21.110        27
21.120        47
21.130        53
21.140        20
21.150        40
21.160        40
21.170        47
21.180        47
21.190        27
21.200        40
21.210        53
21.220        60
21.230        80
21.240        60
21.250        27
21.260        87
21.270        53
21.280        27
21.290        67
21.300        53
21.310        40
21.320        73
21.330        67
21.340        53
21.350        27
21.360        53
21.370        53
21.380        47
21.390        40
21.400        40
21.410        33
21.420        40
21.430        27
21.440        53
21.450        27
21.460        93
21.470        87
21.480        40
21.490        47
21.500        27
21.510        53
21.520        33
21.530        47
21.540        47
21.550        40
21.560        33
21.570        27
21.580        53
21.590        47
21.600        73
21.610        40
21.620        40
21.630        47
21.640        27
21.650       107
21.660        40
21.670        27
21.680        13
21.690        27
21.700        33
21.710        40
21.720        33
21.730        53
21.740        53
21.750        53
21.760        53
21.770        27
21.780        27
21.790        47
21.800        27
21.810        20
21.820        33
21.830        80
21.840        40
21.850        33
21.860        20
21.870        20
21.880        40
21.890        33
21.900        40
21.910        20
21.920        60
21.930         7
21.940        33
21.950        53
21.960        40
21.970        67
21.980        47
21.990        40
22.000        47
22.010        47
22.020        33
22.030        27
22.040        73
22.050        40
22.060        53
22.070        73
22.080        40
22.090        27
22.100        80
22.110        33
22.120        40
22.130        53
22.140        40
22.150        60
22.160        27
22.170        33
22.180        40
22.190        73
22.200        33
22.210        67
22.220        60
22.230        13
22.240        53
22.250        33
22.260        20
22.270        40
22.280        47
22.290        27
22.300        33
22.310        20
22.320        40
22.330        73
22.340        53
22.350        40
22.360        40
22.370        60
22.380        33
22.390        40
22.400        33
22.410        80
22.420        67
22.430        13
22.440        47
22.450        47
22.460        20
22.470        27
22.480        60
22.490        60
22.500        67
22.510        47
22.520        33
22.530        80
22.540        67
22.550        67
22.560        80
22.570        60
22.580        60
22.590        73
22.600        60
22.610        87
22.620       113
22.630        93
22.640       100
22.650        93
22.660       167
22.670        93
22.680       160
22.690       120
22.700       113
22.710       133
22.720       180
22.730       300
22.740       313
22.750       347
22.760       407
22.770       327
22.780       353
22.790       413
22.800       526
22.810       473
22.820       440
22.830       480
22.840       453
22.850       433
22.860       360
22.870       360
22.880       327
22.890       227
22.900       320
22.910       253
22.920       247
22.930       193
22.940       193
22.950        67
22.960        53
22.970       133
22.980        60
22.990        87
23.000        67
23.010        80
23.020        80
23.030       100
23.040        33
23.050        40
23.060        67
23.070        13
23.080        27
23.090        47
23.100        80
23.110        27
23.120        93
23.130        47
23.140        47
23.150        47
23.160        27
23.170        27
23.180        60
23.190        53
23.200        33
23.210        40
23.220        67
23.230        40
23.240        40
23.250        20
23.260        13
23.270        47
23.280        27
23.290        47
23.300        40
23.310        33
23.320        47
23.330        60
23.340        13
23.350        27
23.360        73
23.370        40
23.380        53
23.390        67
23.400        60
23.410        73
23.420        27
23.430        87
23.440        20
23.450        20
23.460        47
23.470        33
23.480        47
23.490        27
23.500        40
23.510        33
23.520        53
23.530        60
23.540        47
23.550        53
23.560        20
23.570        53
23.580        33
23.590        33
23.600        40
23.610        53
23.620        47
23.630        27
23.640        27
23.650        60
23.660        47
23.670        27
23.680        40
23.690        60
23.700        47
23.710        27
23.720        53
23.730        80
23.740        80
23.750        40
23.760        47
23.770        53
23.780        47
23.790         0
23.800        27
23.810        27
23.820        47
23.830        33
23.840        40
23.850        73
23.860        53
23.870        33
23.880        20
23.890        33
23.900        27
23.910        47
23.920        60
23.930        20
23.940        73
23.950        20
23.960        40
23.970        47
23.980        47
23.990        27
24.000        40
24.010        60
24.020        27
24.030        33
24.040         7
24.050        20
24.060        40
24.070        73
24.080        33
24.090        80
24.100        67
24.110        67
24.120        33
24.130        47
24.140        47
24.150        67
24.160        33
24.170        47
24.180        67
24.190        20
24.200        73
24.210        47
24.220        53
24.230        33
24.240        27
24.250        47
24.260        53
24.270        20
24.280        33
24.290        47
24.300        20
24.310        53
24.320         7
24.330        47
24.340        33
24.350        67
24.360        53
24.370        33
24.380        20
24.390        40
24.400        27
24.410        13
24.420        33
24.430        20
24.440        33
24.450        73
24.460        40
24.470        27
24.480        33
24.490        40
24.500        60
24.510        47
24.520        27
24.530        13
24.540        60
24.550        27
24.560        33
24.570        20
24.580        27
24.590        53
24.600        20
24.610        47
24.620        27
24.630        33
24.640        20
24.650        27
24.660        73
24.670        40
24.680        40
24.690        60
24.700        80
24.710        33
24.720        20
24.730         7
24.740        40
24.750        33
24.760        47
24.770        53
24.780        20
24.790        20
24.800        33
24.810        20
24.820        73
24.830        27
24.840        20
24.850        40
24.860        40
24.870        27
24.880        47
24.890         7
24.900        33
24.910        47
24.920        47
24.930        73
24.940        13
24.950        27
24.960        73
24.970        27
24.980        40
24.990        40
25.000        47
25.010        33
25.020        33
25.030        33
25.040        60
25.050        40
25.060        20
25.070        47
25.080        33
25.090        47
25.100        47
25.110        40
25.120        60
25.130        67
25.140        40
25.150        33
25.160        13
25.170        20
25.180        53
25.190        27
25.200        40
25.210        13
25.220        27
25.230        33
25.240        60
25.250        60
25.260        13
25.270        40
25.280        33
25.290        67
25.300        60
25.310        33
25.320        33
25.330        47
25.340        67
25.350        53
25.360        40
25.370        53
25.380        33
25.390        53
25.400        47
25.410        47
25.420        60
25.430        73
25.440        47
25.450        47
25.460        40
25.470        47
25.480        40
25.490        33
25.500        60
25.510        67
25.520       140
25.530        60
25.540        93
25.550        67
25.560       133
25.570       153
25.580       127
25.590       207
25.600       147
25.610       207
25.620       147
25.630       187
25.640       200
25.650       113
25.660       133
25.670       120
25.680       140
25.690       167
25.700       167
25.710        73
25.720        87
25.730        53
25.740        33
25.750        47
25.760        47
25.770        20
25.780        27
25.790        40
25.800        40
25.810        27
25.820        53
25.830        20
25.840        40
25.850        27
25.860        27
25.870        27
25.880         7
25.890        20
25.900        53
25.910        27
25.920        47
25.930        60
25.940        80
25.950        33
25.960        40
25.970        20
25.980        47
25.990        47
26.000        13
26.010        27
26.020        27
26.030        13
26.040        47
26.050        33
26.060        73
26.070        27
26.080        47
26.090        40
26.100        13
26.110        20
26.120        33
26.130        40
26.140        47
26.150        73
26.160        33
26.170        33
26.180        13
26.190        33
26.200        40
26.210        40
26.220        13
26.230        53
26.240        27
26.250        40
26.260        20
26.270        20
26.280        53
26.290        53
26.300        27
26.310        53
26.320        47
26.330        33
26.340        27
26.350        60
26.360        53
26.370        67
26.380        80
26.390        47
26.400        33
26.410        47
26.420        47
26.430        27
26.440        27
26.450        27
26.460        47
26.470        53
26.480        27
26.490        13
26.500        73
26.510        40
26.520        40
26.530        13
26.540        73
26.550        27
26.560        27
26.570        53
26.580        27
26.590        20
26.600        33
26.610        47
26.620        47
26.630        67
26.640        33
26.650        47
26.660        53
26.670        40
26.680        33
26.690        47
26.700        73
26.710        47
26.720        27
26.730        60
26.740        40
26.750        33
26.760        27
26.770        60
26.780        13
26.790        20
26.800        13
26.810        40
26.820        60
26.830        20
26.840        13
26.850        20
26.860        27
26.870        13
26.880        47
26.890        33
26.900        53
26.910        67
26.920        13
26.930        47
26.940        20
26.950        40
26.960        40
26.970        20
26.980        67
26.990        27
27.000        20
27.010        33
27.020        33
27.030        20
27.040        33
27.050        27
27.060        40
27.070        67
27.080        47
27.090        33
27.100        27
27.110        40
27.120        20
27.130        47
27.140        13
27.150        27
27.160        67
27.170        27
27.180        73
27.190        20
27.200        33
27.210        53
27.220        60
27.230        13
27.240        20
27.250        13
27.260        20
27.270        40
27.280        33
27.290        40
27.300        40
27.310        47
27.320        27
27.330        60
27.340        33
27.350        40
27.360        27
27.370        27
27.380        27
27.390        20
27.400        13
27.410        47
27.420        13
27.430        40
27.440         7
27.450        60
27.460        40
27.470        67
27.480        13
27.490        47
27.500        53
27.510        20
27.520        27
27.530        33
27.540        13
27.550        33
27.560        13
27.570        47
27.580        33
27.590        67
27.600        13
27.610        33
27.620        33
27.630        20
27.640        40
27.650        20
27.660        27
27.670        47
27.680        47
27.690        33
27.700        13
27.710        47
27.720        40
27.730        47
27.740        33
27.750        33
27.760         7
27.770        13
27.780        40
27.790        20
27.800        27
27.810        47
27.820        33
27.830        27
27.840        40
27.850        33
27.860        20
27.870        33
27.880        40
27.890        20
27.900        87
27.910        53
27.920        67
27.930        47
27.940        47
27.950         7
27.960         7
27.970        40
27.980        53
27.990        47
28.000        47
28.010        20
28.020        27
28.030        40
28.040        13
28.050        20
28.060        20
28.070        20
28.080        53
28.090        47
28.100        33
28.110        20
28.120        20
28.130        27
28.140        53
28.150        33
28.160        27
28.170        40
28.180        27
28.190        33
28.200        13
28.210        33
28.220        13
28.230        27
28.240        33
28.250        40
28.260        53
28.270        60
28.280         7
28.290        40
28.300        27
28.310        47
28.320        73
28.330        60
28.340        33
28.350        53
28.360        40
28.370        20
28.380        47
28.390        47
28.400         7
28.410        60
28.420        20
28.430         7
28.440        20
28.450         7
28.460        33
28.470        33
28.480        47
28.490        40
28.500         7
28.510        20
28.520        40
28.530        60
28.540        20
28.550        20
28.560        67
28.570        47
28.580        27
28.590        33
28.600        67
28.610        53
28.620        33
28.630        47
28.640        33
28.650        53
28.660        20
28.670        13
28.680        33
28.690        67
28.700        47
28.710        20
28.720        53
28.730        20
28.740        33
28.750        13
28.760        27
28.770        33
28.780        20
28.790        20
28.800        40
28.810        53
28.820        20
28.830        20
28.840        20
28.850        13
28.860        33
28.870        27
28.880        53
28.890        20
28.900        20
28.910        20
28.920        27
28.930        40
28.940        20
28.950        33
28.960        27
28.970        20
28.980        67
28.990        60
29.000        27
29.010        40
29.020        27
29.030        33
29.040        20
29.050        20
29.060        67
29.070        53
29.080        33
29.090        33
29.100        27
29.110        53
29.120        27
29.130        60
29.140        40
29.150        27
29.160        13
29.170        40
29.180        27
29.190        27
29.200        53
29.210        47
29.220        40
29.230        47
29.240        47
29.250        47
29.260        13
29.270        27
29.280        20
29.290        27
29.300        33
29.310        47
29.320        33
29.330         0
29.340        27
29.350        27
29.360        20
29.370        13
29.380        40
29.390        20
29.400        13
29.410        33
29.420        20
29.430        40
29.440        13
29.450        40
29.460        40
29.470        27
29.480        27
29.490        40
29.500        40
29.510        33
29.520        13
29.530        33
29.540        40
29.550        33
29.560        27
29.570        33
29.580        27
29.590        20
29.600        20
29.610        47
29.620        20
29.630        53
29.640        73
29.650        47
29.660        27
29.670        40
29.680        33
29.690        47
29.700        40
29.710        53
29.720        47
29.730        20
29.740        47
29.750        13
29.760        40
29.770        13
29.780        20
29.790        27
29.800        40
29.810        67
29.820        20
29.830        40
29.840        33
29.850        20
29.860        27
29.870        53
29.880        27
29.890        33
29.900        60
29.910        20
29.920        27
29.930        33
29.940        47
29.950        27
29.960        20
29.970        27
29.980        33
29.990        40
30.000        40
30.010        20
30.020        27
30.030        13
30.040        33
30.050        47
30.060        33
30.070        40
30.080        27
30.090        67
30.100        27
30.110        20
30.120        13
30.130        20
30.140        33
30.150        27
30.160        13
30.170        40
30.180        40
30.190        33
30.200        47
30.210        80
30.220         7
30.230        13
30.240        33
30.250        40
30.260        27
30.270        33
30.280        13
30.290        33
30.300        40
30.310        27
30.320        33
30.330        27
30.340        20
30.350        33
30.360        53
30.370        40
30.380        40
30.390        27
30.400        20
30.410        47
30.420        20
30.430        27
30.440        33
30.450        47
30.460        33
30.470        20
30.480        33
30.490        20
30.500        27
30.510        33
30.520        27
30.530        53
30.540        20
30.550        33
30.560        20
30.570        40
30.580        20
30.590        20
30.600        47
30.610        53
30.620        13
30.630        20
30.640        20
30.650        60
30.660        60
30.670        13
30.680         7
30.690        47
30.700        33
30.710         7
30.720        40
30.730         7
30.740        20
30.750        53
30.760        47
30.770        27
30.780        47
30.790        33
30.800        40
30.810        20
30.820        13
30.830        13
30.840        27
30.850        13
30.860        40
30.870        20
30.880        33
30.890        40
30.900        20
30.910        27
30.920        13
30.930        40
30.940        47
30.950        20
30.960        20
30.970        47
30.980        40
30.990        20
31.000         7
31.010        20
31.020        27
31.030        27
31.040        13
31.050        13
31.060        20
31.070        33
31.080        60
31.090        13
31.100        20
31.110         0
31.120        27
31.130        20
31.140        13
31.150        13
31.160        20
31.170        13
31.180        33
31.190        13
31.200        13
31.210        27
31.220        33
31.230        27
31.240        40
31.250        27
31.260        40
31.270        40
31.280        27
31.290        33
31.300        40
31.310        40
31.320        20
31.330        53
31.340        13
31.350        27
31.360        33
31.370        33
31.380        53
31.390        53
31.400        20
31.410        20
31.420        40
31.430        33
31.440         7
31.450        33
31.460        47
31.470        13
31.480        40
31.490        13
31.500        40
31.510         7
31.520        27
31.530        27
31.540        33
31.550        20
31.560        60
31.570        67
31.580        20
31.590        47
31.600        33
31.610        60
31.620        27
31.630        67
31.640        33
31.650        20
31.660        13
31.670        20
31.680        33
31.690         7
31.700        20
31.710        20
31.720        47
31.730        33
31.740        27
31.750        40
31.760         7
31.770        13
31.780        27
31.790        20
31.800        40
31.810        20
31.820        20
31.830        40
31.840        53
31.850        40
31.860        33
31.870         7
31.880        40
31.890        27
31.900        47
31.910        33
31.920        27
31.930        20
31.940        13
31.950        33
31.960        27
31.970        20
31.980        33
31.990        27
32.000        27
32.010        27
32.020        27
32.030        40
32.040        40
32.050        27
32.060        27
32.070        47
32.080         0
32.090        27
32.100        33
32.110        60
32.120        53
32.130        80
32.140        67
32.150        33
32.160        47
32.170        60
32.180        80
32.190        53
32.200        67
32.210        47
32.220        47
32.230        93
32.240        47
32.250        47
32.260        60
32.270        47
32.280        67
32.290        53
32.300        93
32.310        67
32.320        67
32.330        60
32.340       120
32.350       107
32.360       100
32.370       173
32.380       153
32.390       140
32.400       147
32.410       200
32.420       180
32.430       247
32.440       273
32.450       260
32.460       313
32.470       300
32.480       187
32.490       267
32.500       233
32.510       267
32.520       247
32.530       213
32.540       240
32.550       193
32.560       160
32.570       200
32.580       193
32.590        87
32.600       127
32.610       133
32.620       140
32.630       100
32.640        53
32.650        80
32.660       133
32.670        60
32.680        60
32.690        47
32.700        47
32.710        53
32.720        47
32.730        53
32.740        27
32.750        67
32.760        53
32.770        60
32.780        47
32.790        53
32.800        27
32.810        40
32.820        40
32.830        27
32.840        20
32.850        53
32.860        47
32.870        27
32.880        20
32.890        73
32.900        33
32.910        60
32.920        27
32.930        40
32.940        20
32.950        20
32.960        53
32.970        13
32.980        13
32.990        40
33.000        33
33.010        53
33.020        20
33.030        33
33.040        33
33.050        53
33.060        47
33.070        33
33.080        53
33.090        33
33.100        27
33.110        20
33.120        27
33.130        13
33.140        20
33.150        33
33.160        13
33.170        33
33.180         7
33.190         7
33.200        20
33.210        27
33.220        27
33.230        20
33.240        27
33.250        33
33.260        33
33.270        67
33.280        27
33.290        13
33.300        13
33.310        47
33.320        27
33.330        33
33.340        20
33.350        20
33.360        47
33.370        13
33.380        27
33.390        40
33.400        20
33.410        53
33.420        13
33.430        20
33.440        20
33.450        27
33.460        33
33.470        33
33.480        60
33.490        33
33.500        27
33.510        40
33.520        27
33.530        40
33.540        20
33.550        27
33.560        27
33.570        33
33.580        33
33.590        40
33.600        33
33.610        20
33.620        27
33.630        33
33.640        20
33.650        47
33.660        47
33.670        27
33.680        20
33.690        20
33.700        27
33.710         7
33.720        40
33.730        13
33.740        27
33.750        13
33.760        40
33.770        27
33.780        27
33.790         7
33.800        13
33.810        13
33.820         7
33.830        60
33.840        20
33.850        27
33.860        27
33.870        33
33.880        40
33.890        20
33.900        20
33.910        27
33.920        27
33.930        33
33.940         7
33.950        27
33.960         7
33.970        40
33.980        47
33.990        20
34.000        33
34.010        20
34.020        20
34.030        80
34.040        27
34.050         7
34.060        47
34.070        33
34.080        20
34.090        20
34.100        53
34.110        13
34.120        40
34.130        20
34.140        27
34.150        20
34.160        13
34.170        33
34.180        13
34.190        20
34.200        40
34.210        33
34.220        20
34.230        20
34.240        60
34.250        27
34.260        40
34.270         7
34.280        33
34.290        47
34.300        20
34.310        47
34.320        33
34.330        33
34.340        13
34.350        33
34.360        47
34.370        27
34.380         7
34.390        13
34.400        33
34.410        53
34.420        13
34.430        33
34.440        27
34.450        40
34.460        27
34.470        27
34.480        27
34.490        20
34.500        40
34.510        20
34.520        20
34.530        33
34.540        40
34.550        20
34.560        33
34.570        13
34.580        20
34.590        27
34.600        27
34.610        27
34.620         0
34.630        33
34.640        13
34.650        47
34.660        53
34.670        13
34.680        13
34.690        73
34.700        47
34.710        20
34.720        13
34.730        13
34.740        27
34.750        27
34.760        27
34.770        27
34.780        33
34.790        20
34.800        20
34.810        13
34.820        33
34.830        53
34.840        27
34.850        33
34.860        33
34.870        33
34.880        33
34.890        27
34.900        27
34.910        20
34.920        33
34.930        27
34.940        47
34.950        40
34.960        73
34.970        93
34.980        87
34.990        53
35.000        87
35.010       100
35.020       113
35.030       113
35.040       153
35.050       127
35.060       220
35.070       253
35.080       187
35.090       233
35.100       193
35.110       327
35.120       313
35.130       426
35.140       360
35.150       380
35.160       620
35.170       560
35.180       420
35.190       480
35.200       347
35.210       407
35.220       300
35.230       340
35.240       273
35.250       340
35.260       253
35.270       273
35.280       233
35.290       227
35.300       207
35.310       167
35.320       107
35.330       120
35.340        53
35.350        67
35.360        33
35.370        47
35.380        67
35.390        27
35.400        67
35.410        33
35.420        27
35.430        40
35.440        20
35.450        33
35.460        27
35.470        33
35.480        20
35.490         7
35.500        47
35.510        27
35.520        27
35.530        13
35.540        47
35.550        40
35.560        20
35.570        20
35.580        13
35.590        47
35.600        33
35.610        13
35.620        47
35.630         7
35.640         7
35.650        53
35.660        40
35.670        47
35.680        33
35.690        40
35.700        13
35.710        27
35.720        13
35.730         7
35.740        20
35.750        13
35.760        33
35.770        27
35.780        13
35.790        27
35.800        13
35.810        40
35.820        20
35.830        27
35.840        27
35.850        33
35.860        47
35.870        13
35.880        27
35.890        47
35.900        47
35.910        27
35.920        27
35.930        20
35.940        13
35.950        13
35.960        47
35.970         0
35.980        53
35.990        47
36.000        13
36.010        13
36.020        33
36.030        40
36.040        13
36.050        73
36.060        27
36.070        27
36.080         7
36.090        53
36.100        20
36.110        40
36.120        27
36.130        20
36.140        33
36.150         7
36.160        27
36.170        20
36.180        27
36.190         0
36.200        47
36.210        13
36.220        13
36.230        27
36.240        13
36.250        27
36.260        20
36.270        47
36.280        53
36.290        20
36.300        27
36.310        27
36.320        27
36.330        13
36.340        33
36.350        40
36.360        20
36.370        33
36.380        47
36.390        13
36.400        27
36.410        40
36.420         7
36.430        13
36.440        20
36.450        13
36.460         7
36.470        27
36.480        27
36.490        47
36.500        20
36.510        27
36.520        13
36.530        13
36.540        33
36.550         7
36.560        20
36.570         0
36.580        27
36.590        47
36.600        27
36.610        33
36.620        60
36.630        40
36.640        13
36.650         7
36.660        13
36.670        27
36.680        13
36.690        20
36.700        33
36.710        60
36.720        27
36.730        20
36.740        53
36.750        20
36.760        47
36.770        40
36.780        53
36.790        33
36.800        27
36.810        13
36.820        47
36.830        20
36.840        13
36.850        27
36.860        20
36.870        27
36.880        33
36.890        13
36.900        13
36.910        13
36.920        13
36.930        27
36.940        33
36.950        20
36.960        20
36.970         7
36.980        13
36.990        13
37.000        53
37.010        53
37.020        60
37.030        47
37.040        27
37.050        20
37.060        33
37.070        20
37.080        27
37.090        47
37.100        33
37.110        27
37.120         7
37.130         7
37.140        20
37.150        27
37.160        33
37.170        40
37.180         7
37.190        40
37.200        27
37.210        13
37.220        27
37.230        27
37.240        73
37.250        20
37.260        20
37.270        20
37.280        40
37.290        13
37.300        27
37.310        13
37.320        27
37.330        40
37.340        33
37.350        27
37.360        40
37.370        60
37.380        20
37.390         7
37.400        20
37.410        33
37.420        40
37.430        20
37.440        13
37.450         0
37.460        40
37.470        13
37.480        20
37.490        33
37.500        27
37.510        33
37.520        27
37.530        33
37.540        40
37.550        27
37.560         7
37.570        13
37.580        13
37.590        13
37.600        20
37.610        27
37.620        40
37.630        33
37.640        20
37.650        33
37.660        33
37.670        13
37.680        53
37.690        20
37.700        33
37.710        40
37.720        20
37.730        53
37.740        73
37.750        60
37.760        73
37.770        87
37.780        87
37.790       160
37.800       127
37.810       160
37.820       180
37.830       160
37.840       207
37.850       120
37.860       133
37.870       107
37.880        67
37.890        93
37.900        67
37.910       127
37.920        80
37.930        87
37.940        47
37.950        80
37.960        47
37.970        27
37.980        20
37.990        33
38.000        40
38.010        33
38.020        20
38.030        20
38.040        33
38.050        27
38.060         7
38.070        20
38.080        53
38.090        27
38.100        20
38.110        13
38.120         7
38.130        13
38.140        33
38.150         7
38.160        40
38.170        13
38.180        27
38.190        27
38.200        27
38.210        20
38.220        27
38.230        27
38.240        40
38.250        27
38.260        40
38.270         7
38.280        20
38.290        20
38.300        40
38.310        20
38.320        13
38.330         0
38.340        33
38.350         7
38.360        40
38.370        27
38.380        20
38.390        13
38.400        27
38.410        27
38.420        20
38.430        13
38.440        20
38.450        20
38.460        13
38.470        13
38.480        27
38.490        13
38.500        13
38.510        40
38.520        20
38.530        27
38.540         0
38.550        27
38.560        20
38.570        40
38.580        27
38.590         0
38.600        27
38.610         7
38.620        20
38.630        20
38.640        33
38.650        33
38.660        33
38.670        13
38.680        20
38.690        40
38.700         7
38.710        33
38.720         7
38.730        20
38.740        13
38.750        33
38.760        13
38.770         7
38.780        33
38.790        20
38.800        47
38.810        40
38.820        33
38.830        40
38.840        20
38.850        20
38.860        27
38.870        20
38.880        27
38.890        40
38.900        27
38.910        40
38.920        33
38.930         7
38.940        13
38.950        13
38.960         7
38.970        20
38.980        20
38.990        20
39.000        13
39.010        27
39.020        47
39.030        20
39.040        20
39.050        27
39.060        40
39.070        47
39.080        20
39.090        33
39.100        13
39.110        20
39.120        20
39.130        27
39.140        13
39.150         7
39.160        53
39.170        47
39.180         7
39.190        27
39.200        33
39.210         7
39.220         7
39.230        13
39.240        53
39.250         7
39.260        33
39.270        27
39.280        13
39.290        13
39.300        27
39.310        13
39.320        13
39.330        20
39.340        27
39.350        13
39.360        27
39.370        13
39.380        53
39.390        27
39.400        33
39.410        20
39.420        20
39.430         0
39.440         7
39.450        20
39.460        27
39.470        33
39.480        20
39.490        27
39.500        27
39.510        60
39.520        27
39.530        20
39.540        27
39.550        40
39.560         7
39.570        27
39.580        53
39.590        60
39.600         7
39.610        13
39.620        33
39.630        20
39.640        13
39.650        27
39.660        47
39.670        33
39.680        20
39.690        13
39.700        53
39.710        27
39.720        13
39.730        40
39.740        20
39.750        27
39.760        13
39.770        27
39.780         7
39.790        27
39.800        13
39.810        47
39.820         7
39.830        60
39.840        20
39.850        40
39.860        13
39.870         7
39.880        40
39.890        67
39.900       100
39.910        67
39.920        87
39.930        27
39.940        73
39.950        60
39.960        73
39.970        80
39.980        80
39.990       100
40.000        80
40.010       140
40.020       153
40.030       113
40.040        93
40.050       107
40.060        93
40.070       140
40.080       153
40.090        73
40.100       133
40.110        87
40.120        60
40.130        80
40.140       100
40.150        80
40.160       120
40.170        93
40.180        47
40.190       120
40.200        53
40.210        13
40.220        73
40.230        67
40.240        20
40.250        40
40.260        33
40.270        27
40.280        27
40.290        27
40.300        27
40.310        13
40.320        20
40.330        13
40.340        33
40.350         7
40.360        27
40.370        33
40.380        33
40.390        53
40.400        20
40.410        20
40.420        20
40.430        20
40.440        13
40.450        40
40.460        13
40.470        33
40.480        13
40.490        27
40.500        20
40.510        27
40.520        40
40.530        20
40.540        27
40.550        20
40.560        13
40.570        27
40.580        13
40.590        20
40.600        13
40.610        33
40.620        53
40.630         0
40.640        20
40.650        20
40.660        53
40.670        53
40.680         0
40.690        33
40.700        40
40.710        13
40.720         7
40.730        13
40.740        13
40.750        20
40.760        27
40.770        20
40.780        20
40.790        27
40.800        27
40.810        33
40.820        27
40.830        53
40.840        13
40.850        20
40.860        33
40.870        27
40.880        13
40.890        20
40.900        53
40.910        13
40.920        20
40.930        20
40.940        33
40.950        20
40.960        20
40.970         7
40.980        27
40.990        27
41.000        33
41.010        20
41.020        33
41.030         0
41.040        40
41.050        13
41.060        13
41.070        20
41.080        13
41.090        47
41.100        13
41.110         7
41.120        40
41.130        13
41.140        33
41.150        27
41.160        20
41.170         7
41.180        27
41.190         7
41.200         7
41.210        33
41.220         7
41.230        27
41.240        47
41.250        27
41.260        13
41.270         7
41.280        33
41.290        20
41.300        20
41.310        20
41.320        27
41.330         7
41.340        27
41.350        20
41.360         7
41.370        40
41.380        20
41.390        33
41.400        33
41.410        13
41.420        67
41.430        20
41.440        20
41.450        13
41.460        40
41.470        20
41.480        27
41.490        33
41.500         7
41.510        40
41.520        20
41.530        47
41.540        33
41.550        60
41.560        47
41.570        27
41.580        33
41.590        47
41.600        40
41.610        40
41.620        47
41.630        33
41.640        53
41.650        80
41.660        87
41.670       153
41.680       133
41.690       193
41.700       180
41.710        80
41.720       173
41.730       133
41.740       113
41.750       127
41.760       127
41.770        80
41.780        87
41.790        60
41.800       107
41.810        53
41.820       120
41.830        40
41.840       100
41.850       100
41.860        73
41.870       100
41.880        73
41.890        47
41.900        60
41.910        40
41.920        33
41.930        40
41.940        13
41.950        13
41.960        27
41.970        33
41.980        27
41.990        67
42.000        33
42.010        13
42.020        27
42.030        47
42.040        13
42.050        20
42.060        67
42.070        33
42.080        33
42.090        27
42.100        13
42.110        27
42.120        33
42.130        33
42.140        20
42.150        47
42.160        27
42.170        33
42.180        20
42.190        47
42.200        27
42.210        40
42.220         7
42.230        27
42.240        27
42.250        33
42.260        20
42.270        27
42.280        33
42.290        20
42.300        13
42.310        40
42.320        13
42.330        67
42.340        27
42.350        40
42.360        13
42.370        27
42.380        27
42.390        20
42.400        20
42.410        20
42.420         7
42.430        13
42.440        27
42.450         7
42.460        13
42.470        33
42.480        13
42.490        20
42.500        13
42.510        53
42.520        13
42.530        27
42.540         0
42.550        47
42.560         7
42.570        13
42.580        13
42.590        20
42.600         0
42.610        20
42.620        53
42.630        33
42.640        27
42.650         7
42.660        40
42.670        27
42.680        33
42.690        20
42.700        13
42.710        13
42.720        47
42.730        40
42.740        27
42.750        13
42.760        33
42.770        27
42.780        33
42.790        33
42.800        20
42.810        20
42.820        27
42.830         7
42.840        33
42.850        20
42.860        33
42.870        27
42.880        27
42.890        20
42.900        27
42.910        13
42.920        27
42.930        13
42.940        33
42.950        20
42.960        27
42.970        20
42.980        20
42.990         7
43.000        47
43.010        27
43.020        13
43.030        13
43.040        13
43.050        47
43.060        13
43.070        13
43.080        27
43.090        13
43.100        40
43.110         7
43.120        27
43.130        33
43.140        13
43.150        20
43.160        27
43.170        47
43.180        67
43.190        27
43.200        20
43.210        27
43.220        33
43.230        40
43.240        80
43.250        67
43.260       100
43.270        80
43.280       107
43.290       100
43.300       127
43.310       180
43.320       140
43.330       167
43.340       213
43.350       347
43.360       313
43.370       373
43.380       426
43.390       466
43.400       367
43.410       360
43.420       353
43.430       380
43.440       180
43.450       173
43.460       193
43.470       227
43.480       213
43.490       140
43.500       220
43.510       253
43.520       180
43.530       140
43.540       160
43.550        87
43.560        47
43.570        47
43.580        13
43.590         7
43.600        33
43.610        40
43.620        33
43.630        40
43.640        13
43.650        47
43.660        20
43.670        20
43.680        20
43.690         7
43.700        60
43.710        13
43.720        47
43.730        27
43.740        40
43.750        13
43.760        20
43.770        27
43.780        33
43.790        13
43.800        13
43.810        27
43.820        20
43.830        40
43.840        20
43.850        40
43.860        40
43.870        53
43.880        13
43.890         0
43.900        27
43.910         7
43.920        40
43.930        20
43.940        13
43.950        13
43.960        33
43.970        33
43.980        13
43.990         7
44.000        13
44.010        27
44.020        27
44.030         0
44.040        40
44.050        33
44.060        53
44.070        40
44.080        33
44.090         0
44.100        20
44.110        20
44.120         0
44.130         0
44.140        27
44.150         7
44.160         0
44.170        20
44.180        40
44.190        13
44.200        20
44.210        27
44.220        33
44.230        47
44.240        20
44.250        27
44.260        27
44.270        20
44.280         0
44.290        33
44.300        40
44.310        40
44.320        33
44.330        13
44.340        27
44.350        20
44.360        33
44.370        27
44.380        20
44.390        33
44.400        13
44.410        40
44.420         7
44.430        27
44.440        20
44.450        47
44.460        47
44.470        27
44.480        40
44.490        27
44.500        13
44.510        40
44.520        33
44.530        20
44.540        53
44.550        20
44.560        20
44.570        27
44.580         7
44.590        20
44.600        53
44.610        40
44.620        33
44.630        27
44.640        20
44.650        20
44.660        20
44.670        13
44.680        13
44.690        27
44.700        20
44.710        33
44.720        53
44.730        13
44.740        33
44.750        20
44.760         7
44.770        20
44.780        20
44.790        27
44.800        27
44.810        27
44.820        13
44.830        27
44.840        27
44.850        27
44.860        40
44.870        27
44.880        53
44.890        20
44.900         7
44.910        40
44.920        27
44.930        33
44.940        47
44.950        40
44.960        33
44.970        40
44.980         7
44.990        67
45.000        13
45.010        40
45.020        33
45.030        47
45.040        73
45.050        27
45.060        20
45.070        53
45.080        47
45.090        27
45.100        53
45.110        47
45.120        40
45.130        40
45.140        33
45.150        73
45.160         7
45.170        27
45.180        20
45.190        40
45.200        20
45.210        33
45.220        53
45.230        20
45.240        60
45.250        40
45.260        33
45.270        33
45.280        20
45.290        20
45.300        40
45.310        67
45.320        27
45.330        47
45.340        47
45.350        40
45.360        53
45.370        47
45.380        53
45.390        27
45.400        33
45.410        40
45.420        27
45.430        13
45.440        20
45.450        40
45.460        53
45.470        27
45.480        60
45.490        33
45.500        20
45.510        40
45.520        40
45.530        27
45.540        27
45.550        47
45.560        53
45.570        87
45.580        47
45.590        40
45.600        33
45.610        27
45.620        53
45.630        33
45.640        40
45.650        33
45.660        73
45.670        73
45.680        67
45.690        80
45.700        60
45.710        87
45.720        27
45.730        60
45.740        60
45.750        40
45.760        33
45.770        47
45.780        60
45.790        27
45.800        80
45.810        33
45.820        60
45.830        47
45.840        73
45.850        67
45.860        40
45.870        60
45.880        40
45.890        33
45.900        47
45.910        60
45.920        20
45.930        60
45.940        87
45.950        53
45.960        67
45.970        60
45.980       107
45.990        73
46.000        67
46.010        87
46.020        47
46.030        73
46.040       113
46.050       127
46.060        93
46.070        93
46.080        87
46.090        93
46.100       107
46.110       140
46.120       140
46.130       167
46.140       133
46.150       187
46.160       120
46.170       113
46.180       180
46.190       173
46.200       267
46.210       173
46.220       280
46.230       153
46.240       280
46.250       353
46.260       327
46.270       353
46.280       400
46.290       493
46.300       440
46.310       613
46.320       573
46.330       586
46.340       740
46.350       580
46.360       786
46.370       926
46.380       940
46.390       866
46.400      1286
46.410      1146
46.420      1406
46.430      1339
46.440      1759
46.450      1646
46.460      1846
46.470      1973
46.480      2086
46.490      2286
46.500      2546
46.510      2726
46.520      2639
46.530      2732
46.540      2766
46.550      3065
46.560      2985
46.570      3145
46.580      3245
46.590      3072
46.600      3005
46.610      3085
46.620      2832
46.630      2872
46.640      2932
46.650      2612
46.660      2672
46.670      2306
46.680      2319
46.690      2352
46.700      2372
46.710      2059
46.720      2013
46.730      1813
46.740      1546
46.750      1619
46.760      1493
46.770      1153
46.780      1060
46.790      1013
46.800       873
46.810       826
46.820       760
46.830       660
46.840       726
46.850       573
46.860       473
46.870       513
46.880       380
46.890       380
46.900       380
46.910       340
46.920       360
46.930       207
46.940       260
46.950       220
46.960       187
46.970       180
46.980       227
46.990       167
47.000       167
47.010       153
47.020       107
47.030       153
47.040       133
47.050       127
47.060       133
47.070        87
47.080       127
47.090       140
47.100        80
47.110        87
47.120        73
47.130        80
47.140       147
47.150       140
47.160        73
47.170       107
47.180        80
47.190        60
47.200        67
47.210       127
47.220        73
47.230        73
47.240        60
47.250        73
47.260        47
47.270       100
47.280        87
47.290        87
47.300        87
47.310        80
47.320       120
47.330        67
47.340        73
47.350        80
47.360        47
47.370        87
47.380        60
47.390        80
47.400        60
47.410       100
47.420        80
47.430        33
47.440        87
47.450        73
47.460        33
47.470        47
47.480        33
47.490        87
47.500        40
47.510        60
47.520        87
47.530        67
47.540        73
47.550        33
47.560        27
47.570        73
47.580        47
47.590        20
47.600        53
47.610        87
47.620        27
47.630        40
47.640        40
47.650        53
47.660        40
47.670        47
47.680        13
47.690        47
47.700        40
47.710        33
47.720        33
47.730        33
47.740        20
47.750        60
47.760        33
47.770        60
47.780        27
47.790        33
47.800        60
47.810        53
47.820        53
47.830        47
47.840        27
47.850        33
47.860        47
47.870        20
47.880        13
47.890        60
47.900        20
47.910        33
47.920        33
47.930        27
47.940        80
47.950        20
47.960        47
47.970        40
47.980        13
47.990         7
48.000        27
48.010        47
48.020        20
48.030        40
48.040        13
48.050         7
48.060        13
48.070        20
48.080        33
48.090        33
48.100        33
48.110        33
48.120        20
48.130        20
48.140        20
48.150        33
48.160        20
48.170        33
48.180        33
48.190        27
48.200        27
48.210        67
48.220        53
48.230        33
48.240        20
48.250        27
48.260        67
48.270        40
48.280        40
48.290        27
48.300        27
48.310        33
48.320        53
48.330        20
48.340        40
48.350        27
48.360        40
48.370        47
48.380        47
48.390        13
48.400        47
48.410        33
48.420        27
48.430        53
48.440        27
48.450        27
48.460        20
48.470        33
48.480        67
48.490        40
48.500        53
48.510        27
48.520        40
48.530        33
48.540        27
48.550        40
48.560        47
48.570        27
48.580        20
48.590        13
48.600        60
48.610         7
48.620        60
48.630        47
48.640        33
48.650        27
48.660        27
48.670        20
48.680         7
48.690        47
48.700         7
48.710         7
48.720        27
48.730        53
48.740        73
48.750        33
48.760        33
48.770        60
48.780        47
48.790        20
48.800        33
48.810        20
48.820         0
48.830        27
48.840        13
48.850        13
48.860        33
48.870        33
48.880         0
48.890        20
48.900        27
48.910        33
48.920        53
48.930        13
48.940        20
48.950        13
48.960        27
48.970        33
48.980        33
48.990        13
49.000        20
49.010        20
49.020        13
49.030        47
49.040        33
49.050        13
49.060        13
49.070        20
49.080         7
49.090        20
49.100        27
49.110        27
49.120        13
49.130        33
49.140        20
49.150         7
49.160        40
49.170        20
49.180        53
49.190        33
49.200        20
49.210        13
49.220        47
49.230        13
49.240        20
49.250        27
49.260        27
49.270        13
49.280         0
49.290         7
49.300        20
49.310        20
49.320        27
49.330        13
49.340        33
49.350        33
49.360        20
49.370        27
49.380        40
49.390        20
49.400        40
49.410        33
49.420        13
49.430        33
49.440        47
49.450        27
49.460        20
49.470        20
49.480        27
49.490        13
49.500        13
49.510        13
49.520        40
49.530        20
49.540        13
49.550        87
49.560        40
49.570        20
49.580         7
49.590        27
49.600        13
49.610        27
49.620        13
49.630        13
49.640        20
49.650        20
49.660        13
49.670        20
49.680         7
49.690        33
49.700        40
49.710        33
49.720        27
49.730        27
49.740        27
49.750         7
49.760        13
49.770        20
49.780        27
49.790        40
49.800        13
49.810        27
49.820        13
49.830        53
49.840        13
49.850        20
49.860        13
49.870        33
49.880        20
49.890        20
49.900         7
49.910        20
49.920        27
49.930        27
49.940        33
49.950        47
49.960        33
49.970         7
49.980        13
49.990        47
50.000        20
50.010        33
50.020        13
50.030        20
50.040        13
50.050        27
50.060        47
50.070        27
50.080        27
50.090        53
50.100        53
50.110        20
50.120        40
50.130         7
50.140        33
50.150        20
50.160        47
50.170        27
50.180        40
50.190        20
50.200        27
50.210        27
50.220        40
50.230        20
50.240         7
50.250        13
50.260        13
50.270         7
50.280        27
50.290        27
50.300        27
50.310        27
50.320        40
50.330        27
50.340        13
50.350        20
50.360        13
50.370        20
50.380        33
50.390        27
50.400        40
50.410        13
50.420        33
50.430         7
50.440        20
50.450        27
50.460        33
50.470        33
50.480        33
50.490        20
50.500        33
50.510        33
50.520        20
50.530         7
50.540        13
50.550        13
50.560         7
50.570        20
50.580        27
50.590        27
50.600        13
50.610        20
50.620        20
50.630        33
50.640        13
50.650        20
50.660        20
50.670         0
50.680        27
50.690        20
50.700        13
50.710        20
50.720        13
50.730        40
50.740        20
50.750         7
50.760        27
50.770         7
50.780        20
50.790        27
50.800        20
50.810        27
50.820        20
50.830         7
50.840        13
50.850        40
50.860        20
50.870        47
50.880        13
50.890         7
50.900        13
50.910        33
50.920        27
50.930        40
50.940        33
50.950        13
50.960         7
50.970        47
50.980        13
50.990         7
51.000        13
51.010        20
51.020         7
51.030        20
51.040         7
51.050        20
51.060        27
51.070        33
51.080        20
51.090         7
51.100         7
51.110         7
51.120        33
51.130        60
51.140        27
51.150        13
51.160        53
51.170        27
51.180        27
51.190        20
51.200        47
51.210        47
51.220         7
51.230        40
51.240        20
51.250        13
51.260        13
51.270         7
51.280         7
51.290         0
51.300        27
51.310        33
51.320        13
51.330         0
51.340        20
51.350         7
51.360        33
51.370        40
51.380        20
51.390        33
51.400        27
51.410        20
51.420        27
51.430        20
51.440        20
51.450        47
51.460        20
51.470        27
51.480        20
51.490         7
51.500        27
51.510        40
51.520         7
51.530        20
51.540        47
51.550        33
51.560         7
51.570         7
51.580         7
51.590        20
51.600        33
51.610        13
51.620        27
51.630        40
51.640        13
51.650        13
51.660        27
51.670        13
51.680        20
51.690        13
51.700        20
51.710        20
51.720        33
51.730        13
51.740        27
51.750        13
51.760        33
51.770        13
51.780        40
51.790        33
51.800        33
51.810         7
51.820        27
51.830         7
51.840         7
51.850        13
51.860        27
51.870        47
51.880        53
51.890        27
51.900        20
51.910        13
51.920        27
51.930        13
51.940        27
51.950        53
51.960        27
51.970        20
51.980        60
51.990        13
52.000        13
52.010        20
52.020        13
52.030        27
52.040        13
52.050        20
52.060        20
52.070        20
52.080         7
52.090         0
52.100        20
52.110        13
52.120        13
52.130        27
52.140        27
52.150        20
52.160        33
52.170         7
52.180        13
52.190        27
52.200        33
52.210        13
52.220         7
52.230        53
52.240        53
52.250        13
52.260        40
52.270        27
52.280        33
52.290         0
52.300        33
52.310        27
52.320        27
52.330        13
52.340        20
52.350        20
52.360        13
52.370        13
52.380        33
52.390         7
52.400        20
52.410        33
52.420        13
52.430        20
52.440        20
52.450        33
52.460        47
52.470        27
52.480        47
52.490        87
52.500        27
52.510        40
52.520        60
52.530        87
52.540        47
52.550       120
52.560       160
52.570       100
52.580       133
52.590       233
52.600       167
52.610       127
52.620       113
52.630       100
52.640       160
52.650        80
52.660        80
52.670        67
52.680        20
52.690        80
52.700        73
52.710       133
52.720        87
52.730        80
52.740       147
52.750       140
52.760        73
52.770        87
52.780        67
52.790        40
52.800        40
52.810        33
52.820        13
52.830        20
52.840        40
52.850        27
52.860        13
52.870        20
52.880        27
52.890        13
52.900        27
52.910        13
52.920        13
52.930        13
52.940        40
52.950        20
52.960        27
52.970        27
52.980        20
52.990        27
53.000        40
53.010        27
53.020        20
53.030        33
53.040        33
53.050        40
53.060        33
53.070        13
53.080        27
53.090        20
53.100        33
53.110         0
53.120        20
53.130        13
53.140         7
53.150        13
53.160        47
53.170        20
53.180        13
53.190        13
53.200        33
53.210         0
53.220        40
53.230        27
53.240        13
53.250        13
53.260         7
53.270        13
53.280        33
53.290        27
53.300        47
53.310         7
53.320        20
53.330        20
53.340        13
53.350         7
53.360         7
53.370         7
53.380        20
53.390         7
53.400        20
53.410        20
53.420        33
53.430        13
53.440        13
53.450        13
53.460        20
53.470        27
53.480         7
53.490        33
53.500         7
53.510        13
53.520        40
53.530        13
53.540        13
53.550        27
53.560        33
53.570        13
53.580        20
53.590         7
53.600         7
53.610        27
53.620        20
53.630         0
53.640        13
53.650        13
53.660        13
53.670        13
53.680        40
53.690        20
53.700        27
53.710        13
53.720        27
53.730        33
53.740        20
53.750        13
53.760         7
53.770        27
53.780         7
53.790        40
53.800        13
53.810        13
53.820        13
53.830        13
53.840        13
53.850        13
53.860         0
53.870        20
53.880        20
53.890         7
53.900        27
53.910        27
53.920         7
53.930        13
53.940         0
53.950         7
53.960        13
53.970         7
53.980        20
53.990        27
54.000        60
54.010         7
54.020         7
54.030        13
54.040        13
54.050         0
54.060         0
54.070        33
54.080        13
54.090        13
54.100        13
54.110        20
54.120        27
54.130        20
54.140        13
54.150         7
54.160        47
54.170        27
54.180        33
54.190         7
54.200         7
54.210         7
54.220        20
54.230        20
54.240        53
54.250         7
54.260         0
54.270        33
54.280        20
54.290        20
54.300         7
54.310         7
54.320         7
54.330        20
54.340        13
54.350         7
54.360        40
54.370        20
54.380        20
54.390        13
54.400        27
54.410        13
54.420         0
54.430        40
54.440         7
54.450        27
54.460        27
54.470        13
54.480        13
54.490        27
54.500        33
54.510        13
54.520        20
54.530        13
54.540        20
54.550        13
54.560        27
54.570        40
54.580         7
54.590        33
54.600        20
54.610        20
54.620        40
54.630        33
54.640        13
54.650        13
54.660        27
54.670        20
54.680        13
54.690         7
54.700        20
54.710        13
54.720         7
54.730        13
54.740        13
54.750        47
54.760        13
54.770        27
54.780        13
54.790         7
54.800        20
54.810        20
54.820        13
54.830        13
54.840        47
54.850        20
54.860        20
54.870        13
54.880        20
54.890        33
54.900        27
54.910        27
54.920        20
54.930        20
54.940        13
54.950        27
54.960        33
54.970         7
54.980         7
54.990        20
55.000        33
55.010         0
55.020        13
55.030         0
55.040        27
55.050        20
55.060         7
55.070        33
55.080        13
55.090        33
55.100        13
55.110         0
55.120        27
55.130         7
55.140        20
55.150         7
55.160        40
55.170         0
55.180         7
55.190         0
55.200        13
55.210        13
55.220         7
55.230        13
55.240        20
55.250        33
55.260        27
55.270        20
55.280        13
55.290         0
55.300        13
55.310         7
55.320        13
55.330        33
55.340         7
55.350         0
55.360        20
55.370         7
55.380        27
55.390        13
55.400        20
55.410        20
55.420         7
55.430        33
55.440        13
55.450        13
55.460        33
55.470        20
55.480        33
55.490        20
55.500        33
55.510        27
55.520        33
55.530         7
55.540        13
55.550         7
55.560         7
55.570        20
55.580         0
55.590        27
55.600        13
55.610        20
55.620        13
55.630         0
55.640        40
55.650        13
55.660        20
55.670        13
55.680        33
55.690         7
55.700        27
55.710         7
55.720        20
55.730        20
55.740        27
55.750        13
55.760        13
55.770        33
55.780        53
55.790        20
55.800        33
55.810         7
55.820         7
55.830        27
55.840         7
55.850        27
55.860        13
55.870        20
55.880        13
55.890        40
55.900        47
55.910        27
55.920        53
55.930        33
55.940         0
55.950        33
55.960        33
55.970         0
55.980        27
55.990        47
56.000        27
56.010        13
56.020        20
56.030        33
56.040        33
56.050        40
56.060        13
56.070        20
56.080        13
56.090        27
56.100        13
56.110        13
56.120        40
56.130        27
56.140        27
56.150        40
56.160        20
56.170        47
56.180        13
56.190        20
56.200         0
56.210        27
56.220         7
56.230        47
56.240        27
56.250        13
56.260        27
56.270        33
56.280        13
56.290        13
56.300        13
56.310        27
56.320        13
56.330        27
56.340        27
56.350        13
56.360         7
56.370        27
56.380        13
56.390         0
56.400        13
56.410         7
56.420        33
56.430        20
56.440        20
56.450         7
56.460        27
56.470        47
56.480         7
56.490        20
56.500         7
56.510        13
56.520        33
56.530         7
56.540        13
56.550        13
56.560        13
56.570        20
56.580        20
56.590        20
56.600        13
56.610         7
56.620        20
56.630        27
56.640         7
56.650        13
56.660         0
56.670         7
56.680        20
56.690        20
56.700        20
56.710        33
56.720        13
56.730        20
56.740         7
56.750        27
56.760        33
56.770         7
56.780        53
56.790        27
56.800        20
56.810        20
56.820         7
56.830         0
56.840        20
56.850        13
56.860        27
56.870        33
56.880        20
56.890        13
56.900         7
56.910         7
56.920        20
56.930        13
56.940        13
56.950         7
56.960        20
56.970        33
56.980         0
56.990        13
57.000        33
57.010        27
57.020        40
57.030         7
57.040         7
57.050        33
57.060        20
57.070        27
57.080        13
57.090        20
57.100         7
57.110         7
57.120         7
57.130        13
57.140        20
57.150        33
57.160        27
57.170        20
57.180        33
57.190        27
57.200        20
57.210        20
57.220         7
57.230        47
57.240        53
57.250        27
57.260        27
57.270        13
57.280        13
57.290        33
57.300        40
57.310        47
57.320        13
57.330        27
57.340        40
57.350        40
57.360        40
57.370        47
57.380        33
57.390        60
57.400        27
57.410        80
57.420        67
57.430       100
57.440        87
57.450       140
57.460       160
57.470       247
57.480       193
57.490       320
57.500       287
57.510       287
57.520       373
57.530       413
57.540       380
57.550       340
57.560       440
57.570       373
57.580       300
57.590       247
57.600       240
57.610       133
57.620       127
57.630       213
57.640       167
57.650       140
57.660       227
57.670       100
57.680       193
57.690       167
57.700       220
57.710       200
57.720       133
57.730       207
57.740       140
57.750       167
57.760        73
57.770        60
57.780        60
57.790        53
57.800        40
57.810        27
57.820        40
57.830        40
57.840        47
57.850        20
57.860        13
57.870        13
57.880        47
57.890        47
57.900        27
57.910        27
57.920        27
57.930        60
57.940        47
57.950         0
57.960        47
57.970        60
57.980        33
57.990        27
58.000        20
58.010        33
58.020        47
58.030        27
58.040        47
58.050        60
58.060        40
58.070        53
58.080        13
58.090        33
58.100        27
58.110        13
58.120         7
58.130         7
58.140        27
58.150        20
58.160        20
58.170         7
58.180        13
58.190        13
58.200        40
58.210         7
58.220         7
58.230        33
58.240        27
58.250        27
58.260        20
58.270        13
58.280        27
58.290         7
58.300        33
58.310         7
58.320        13
58.330        40
58.340        13
58.350        20
58.360         7
58.370        13
58.380        13
58.390         0
58.400        13
58.410        13
58.420        13
58.430         0
58.440        67
58.450         7
58.460        27
58.470        13
58.480        20
58.490        13
58.500        27
58.510        27
58.520        33
58.530        13
58.540        20
58.550        13
58.560         7
58.570         7
58.580        20
58.590        27
58.600        13
58.610         0
58.620         7
58.630        13
58.640         7
58.650         7
58.660        13
58.670        27
58.680        20
58.690         7
58.700         7
58.710        13
58.720        40
58.730         7
58.740        13
58.750        33
58.760        27
58.770        13
58.780         7
58.790         7
58.800        20
58.810        13
58.820        13
58.830        27
58.840         0
58.850        20
58.860        20
58.870        27
58.880         7
58.890        13
58.900        27
58.910         7
58.920        13
58.930         7
58.940        13
58.950        27
58.960         7
58.970        27
58.980         0
58.990         7
59.000         7
59.010        53
59.020         7
59.030        20
59.040         7
59.050         7
59.060        13
59.070        27
59.080        33
59.090        13
59.100         7
59.110        20
59.120        13
59.130         7
59.140         7
59.150         7
59.160        27
59.170         7
59.180         7
59.190         7
59.200        13
59.210         7
59.220         0
59.230        20
59.240         7
59.250        13
59.260        13
59.270        20
59.280         0
59.290        13
59.300         0
59.310        40
59.320        33
59.330        20
59.340         0
59.350         7
59.360        20
59.370        20
59.380        20
59.390        13
59.400        13
59.410        13
59.420         0
59.430         0
59.440        13
59.450        27
59.460        27
59.470        27
59.480        27
59.490        27
59.500         7
59.510        33
59.520         7
59.530        13
59.540        20
59.550        20
59.560         7
59.570        27
59.580        20
59.590        20
59.600         0
59.610        13
59.620        20
59.630         0
59.640        20
59.650         7
59.660         7
59.670        13
59.680        33
59.690        27
59.700         7
59.710        13
59.720        13
59.730        13
59.740        27
59.750        47
59.760        20
59.770        33
59.780        27
59.790        27
59.800        27
59.810        33
59.820        33
59.830        40
59.840        13
59.850         7
59.860        40
59.870         7
59.880         7
59.890         7
59.900         0
59.910        33
59.920         7
59.930        13
59.940        20
59.950        33
59.960        27
59.970        13
59.980        27
59.990        13
60.000        53
