20.000        80
20.010        40
20.020        33
20.030        20
20.040        47
20.050        67
20.060        60
20.070        20
20.080        67
20.090        40
20.100        20
20.110        40
20.120        33
20.130        67
20.140        53
20.150        40
20.160        20
20.170        47
20.180        33
20.190        53
20.200        67
20.210        40
20.220        67
20.230        33
20.240        33
20.250        53
20.260        33
20.270        33
20.280        27
20.290        53
20.300        67
20.310        60
20.320        67
20.330        47
20.340        40
20.350        60
20.360        87
20.370        60
20.380        33
20.390        53
20.400        20
20.410        27
20.420        73
20.430        47
20.440        13
20.450        47
20.460        67
20.470        27
20.480        33
20.490       100
20.500        40
20.510        80
20.520        73
20.530        40
20.540        40
20.550        27
20.560        53
20.570        33
20.580        47
20.590        40
20.600        47
20.610        67
20.620        33
20.630        33
20.640        40
20.650        53
20.660        33
20.670        53
20.680        47
20.690        47
20.700        60
20.710        27
20.720        47
20.730        40
20.740        40
20.750        33
20.760        53
20.770        53
20.780        40
20.790        20
20.800        40
20.810        40
20.820        93
20.830        20
20.840        27
20.850        27
20.860        33
20.870        53
20.880        60
20.890        67
20.900        73
20.910        33
20.920        40
20.930        27
20.940        33
20.950        33
20.960        80
20.970        67
20.980        20
20.990        47
21.000        27
21.010        53
21.020        47
21.030        53
21.040        20
21.050        33
21.060        47
21.070        67
21.080        53
21.090        33
21.100        40
21.110        60
21.120        40
21.130        27
21.140        27
21.150        27
21.160        33
21.170        80
21.180        47
21.190        40
21.200        73
21.210        33
21.220        27
21.230        47
21.240        27
21.250        27
21.260        47
21.270        27
21.280        53
21.290        13
21.300        40
21.310        47
21.320        73
21.330        47
21.340        20
21.350        33
21.360        40
21.370        27
21.380        27
21.390        40
21.400        47
21.410        47
21.420        60
21.430        67
21.440        40
21.450        53
21.460        27
21.470        53
21.480        40
21.490        60
21.500        33
21.510        27
21.520        60
21.530        47
21.540        27
21.550        27
21.560        67
21.570        67
21.580        67
21.590        47
21.600        33
21.610        20
21.620        53
21.630        47
21.640        27
21.650        13
21.660        47
21.670        47
21.680        53
21.690        60
21.700        33
21.710        13
21.720        33
21.730        13
21.740        33
21.750        13
21.760        27
21.770        47
21.780        47
21.790        40
21.800        47
21.810        33
21.820         0
21.830        33
21.840        20
21.850        40
21.860        27
21.870        40
21.880        40
21.890        47
21.900        67
21.910        40
21.920        40
21.930        40
21.940        80
21.950        47
21.960        87
21.970        20
21.980        47
21.990        40
22.000        60
22.010        40
22.020        20
22.030        33
22.040        53
22.050        33
22.060        40
22.070        60
22.080        47
22.090        53
22.100        73
22.110        67
22.120        40
22.130        33
22.140        40
22.150        20
22.160        73
22.170        20
22.180        67
22.190        33
22.200        53
22.210        40
22.220        87
22.230        47
22.240        60
22.250        40
22.260        27
22.270        73
22.280        53
22.290        53
22.300        20
22.310        33
22.320        73
22.330        33
22.340        33
22.350        47
22.360        73
22.370        80
22.380        47
22.390        47
22.400        47
22.410        53
22.420        67
22.430        40
22.440        67
22.450        67
22.460        67
22.470       113
22.480        40
22.490       120
22.500       147
22.510        73
22.520       147
22.530        87
22.540       187
22.550       120
22.560       153
22.570       267
22.580       213
22.590       287
22.600       273
22.610       313
22.620       440
22.630       353
22.640       493
22.650       420
22.660       473
22.670       460
22.680       593
22.690       513
22.700       553
22.710       553
22.720       407
22.730       446
22.740       373
22.750       347
22.760       393
22.770       407
22.780       307
22.790       140
22.800       287
22.810       200
22.820       193
22.830       127
22.840       127
22.850       133
22.860       100
22.870       100
22.880        67
22.890        73
22.900        60
22.910        73
22.920       140
22.930        53
22.940        40
22.950        80
22.960        53
22.970        40
22.980        60
22.990        67
23.000        47
23.010        47
23.020        73
23.030        40
23.040        47
23.050        27
23.060        27
23.070        33
23.080        80
23.090        87
23.100        60
23.110        60
23.120        33
23.130        67
23.140        53
23.150        53
23.160        27
23.170        40
23.180        40
23.190        40
23.200        53
23.210        40
23.220        40
23.230        47
23.240        27
23.250        40
23.260        53
23.270        53
23.280        27
23.290        73
23.300        80
23.310        53
23.320        53
23.330        27
23.340        80
23.350        47
23.360        20
23.370        67
23.380        53
23.390        47
23.400        40
23.410         7
23.420        53
23.430        67
23.440        53
23.450        33
23.460        53
23.470        53
23.480        13
23.490        27
23.500        67
23.510        20
23.520        53
23.530        60
23.540        60
23.550        47
23.560        40
23.570        27
23.580        33
23.590        40
23.600        53
23.610        20
23.620        27
23.630        53
23.640        60
23.650        40
23.660        93
23.670        40
23.680        33
23.690        73
23.700        60
23.710        73
23.720        13
23.730        40
23.740        40
23.750        33
23.760        47
23.770        67
23.780        20
23.790        47
23.800        40
23.810        33
23.820        40
23.830        13
23.840        60
23.850        60
23.860        53
23.870        33
23.880        20
23.890        40
23.900        40
23.910        33
23.920        47
23.930        27
23.940        53
23.950        40
23.960        47
23.970        40
23.980        60
23.990        27
24.000        53
24.010        33
24.020        53
24.030        53
24.040        60
24.050        73
24.060        13
24.070        47
24.080        20
24.090        60
24.100        33
24.110        67
24.120        27
24.130        53
24.140        53
24.150        60
24.160        20
24.170        33
24.180        33
24.190        27
24.200        33
24.210        40
24.220        60
24.230        33
24.240        47
24.250        40
24.260        40
24.270        47
24.280        40
24.290        60
24.300        40
24.310        27
24.320        47
24.330        33
24.340        20
24.350        20
24.360        27
24.370        60
24.380        40
24.390        60
24.400        20
24.410        27
24.420        53
24.430        13
24.440        33
24.450        33
24.460         7
24.470        47
24.480        40
24.490        40
24.500        13
24.510        27
24.520        33
24.530        67
24.540        47
24.550        13
24.560        33
24.570        60
24.580        53
24.590        40
24.600        53
24.610        40
24.620        27
24.630        27
24.640        40
24.650        27
24.660        40
24.670        27
24.680        53
24.690        33
24.700        47
24.710        47
24.720        20
24.730        20
24.740        33
24.750        33
24.760        27
24.770        53
24.780        53
24.790        20
24.800        53
24.810        40
24.820        73
24.830        33
24.840        47
24.850        60
24.860        47
24.870        20
24.880        47
24.890        27
24.900        27
24.910        20
24.920        27
24.930        13
24.940        53
24.950        20
24.960        20
24.970        47
24.980        40
24.990        13
25.000        13
25.010        53
25.020        60
25.030        40
25.040        33
25.050        47
25.060        67
25.070        40
25.080        40
25.090        33
25.100        27
25.110        53
25.120        93
25.130        33
25.140        33
25.150        20
25.160        60
25.170        60
25.180        20
25.190        60
25.200        13
25.210        33
25.220        53
25.230        13
25.240        53
25.250        33
25.260        27
25.270        53
25.280        60
25.290        40
25.300        60
25.310        60
25.320        47
25.330        67
25.340        67
25.350        53
25.360        47
25.370        60
25.380        20
25.390        53
25.400        40
25.410        53
25.420        53
25.430        53
25.440        67
25.450        47
25.460        67
25.470       107
25.480       187
25.490       113
25.500       187
25.510       140
25.520       120
25.530       107
25.540       133
25.550        53
25.560        87
25.570        60
25.580        40
25.590        40
25.600        53
25.610        40
25.620        33
25.630        53
25.640        53
25.650        40
25.660        33
25.670        40
25.680        33
25.690        73
25.700        67
25.710        33
25.720        27
25.730        13
25.740        27
25.750        60
25.760        67
25.770        33
25.780        27
25.790        47
25.800        27
25.810        47
25.820        67
25.830        33
25.840        33
25.850        33
25.860        20
25.870        33
25.880        27
25.890        53
25.900        47
25.910        47
25.920         0
25.930        20
25.940        47
25.950        47
25.960        27
25.970        20
25.980        27
25.990        20
26.000        20
26.010        20
26.020        13
26.030        47
26.040        33
26.050        47
26.060        20
26.070        13
26.080        47
26.090        53
26.100        20
26.110        20
26.120        80
26.130         7
26.140        33
26.150        60
26.160        40
26.170        40
26.180        40
26.190        13
26.200        27
26.210        40
26.220        33
26.230        40
26.240        47
26.250        47
26.260        27
26.270        33
26.280        27
26.290        40
26.300        40
26.310        40
26.320        60
26.330        27
26.340        53
26.350        40
26.360        33
26.370        40
26.380        13
26.390        13
26.400         7
26.410        53
26.420        40
26.430        33
26.440        20
26.450        13
26.460        40
26.470        20
26.480        40
26.490        40
26.500        27
26.510        33
26.520        27
26.530        40
26.540        40
26.550        27
26.560        33
26.570        27
26.580        40
26.590        53
26.600        27
26.610        33
26.620        27
26.630        40
26.640        27
26.650        27
26.660        27
26.670        27
26.680        27
26.690        27
26.700        33
26.710        67
26.720        33
26.730        27
26.740         7
26.750        67
26.760        47
26.770        40
26.780         7
26.790        87
26.800        27
26.810        20
26.820        47
26.830        33
26.840        13
26.850        33
26.860        33
26.870        60
26.880        13
26.890        33
26.900        40
26.910        53
26.920        40
26.930        27
26.940        53
26.950        47
26.960        47
26.970        27
26.980        40
26.990        20
27.000        67
27.010        33
27.020        40
27.030        47
27.040        13
27.050        27
27.060        27
27.070        33
27.080        47
27.090        53
27.100        40
27.110        53
27.120        40
27.130        40
27.140        13
27.150        27
27.160        27
27.170        40
27.180        53
27.190        53
27.200        33
27.210        80
27.220        20
27.230        13
27.240        27
27.250        33
27.260        47
27.270        27
27.280        33
27.290        40
27.300        40
27.310        40
27.320        47
27.330        60
27.340         7
27.350        13
27.360        27
27.370        53
27.380         7
27.390        20
27.400        33
27.410        40
27.420         7
27.430        33
27.440        53
27.450        40
27.460        33
27.470        47
27.480        40
27.490        40
27.500        13
27.510        33
27.520        33
27.530        47
27.540        33
27.550        33
27.560        33
27.570        20
27.580        67
27.590        27
27.600        33
27.610        20
27.620        27
27.630        20
27.640        53
27.650        47
27.660        40
27.670        20
27.680        47
27.690        33
27.700        20
27.710        47
27.720        67
27.730        67
27.740        27
27.750        27
27.760        33
27.770         0
27.780        27
27.790        40
27.800        53
27.810        20
27.820        40
27.830        27
27.840        20
27.850        47
27.860        40
27.870        47
27.880        20
27.890        20
27.900        40
27.910        20
27.920        13
27.930        20
27.940        20
27.950        27
27.960        47
27.970        13
27.980        20
27.990        33
28.000        20
28.010        20
28.020        20
28.030        60
28.040        33
28.050        27
28.060        67
28.070        20
28.080        53
28.090        33
28.100        27
28.110        40
28.120        47
28.130        47
28.140        40
28.150        20
28.160        60
28.170        53
28.180        73
28.190        47
28.200        53
28.210        33
28.220        27
28.230        40
28.240        13
28.250        33
28.260        33
28.270         7
28.280        40
28.290        73
28.300        47
28.310        47
28.320        33
28.330        27
28.340        13
28.350        60
28.360        13
28.370        47
28.380        47
28.390        53
28.400        20
28.410        27
28.420        27
28.430        27
28.440         7
28.450        40
28.460        53
28.470        53
28.480        13
28.490        40
28.500        47
28.510        33
28.520        27
28.530        13
28.540        20
28.550        20
28.560        27
28.570        27
28.580        27
28.590        20
28.600        20
28.610        60
28.620        13
28.630        13
28.640        33
28.650        47
28.660        27
28.670        53
28.680        47
28.690        20
28.700        13
28.710        33
28.720        33
28.730        33
28.740        13
28.750        20
28.760        20
28.770        53
28.780        60
28.790        40
28.800        47
28.810        20
28.820        33
28.830        13
28.840        33
28.850        13
28.860        33
28.870        47
28.880        20
28.890        27
28.900        47
28.910        27
28.920        20
28.930        13
28.940        33
28.950        40
28.960        13
28.970         7
28.980        33
28.990        20
29.000         0
29.010        53
29.020        40
29.030        27
29.040        33
29.050        40
29.060        40
29.070        13
29.080        27
29.090        47
29.100        13
29.110        33
29.120        13
29.130        53
29.140        47
29.150        27
29.160        13
29.170        40
29.180        13
29.190         0
29.200        47
29.210        47
29.220        27
29.230        40
29.240        27
29.250        47
29.260        53
29.270        20
29.280        27
29.290        53
29.300        13
29.310         7
29.320        33
29.330        20
29.340        40
29.350        20
29.360        20
29.370        13
29.380        20
29.390        40
29.400         7
29.410        33
29.420        33
29.430        40
29.440        53
29.450        33
29.460        33
29.470        40
29.480        13
29.490        40
29.500        40
29.510        20
29.520        53
29.530        20
29.540        13
29.550        27
29.560        47
29.570        13
29.580        40
29.590        27
29.600        13
29.610        47
29.620        20
29.630        27
29.640        33
29.650        13
29.660        20
29.670        47
29.680        13
29.690        40
29.700        27
29.710        40
29.720        73
29.730        33
29.740        47
29.750        47
29.760        27
29.770        27
29.780        27
29.790        47
29.800        33
29.810        53
29.820        40
29.830        33
29.840        47
29.850        13
29.860        13
29.870        20
29.880        27
29.890         7
29.900         7
29.910        13
29.920         0
29.930        27
29.940        33
29.950         7
29.960        40
29.970        60
29.980        47
29.990        20
30.000        67
30.010        53
30.020        47
30.030        40
30.040        20
30.050        27
30.060        13
30.070        20
30.080        20
30.090        20
30.100        40
30.110        33
30.120        27
30.130        13
30.140        27
30.150        20
30.160        33
30.170        53
30.180        13
30.190        33
30.200        60
30.210        40
30.220        27
30.230        13
30.240        40
30.250        13
30.260        27
30.270        20
30.280        27
30.290        40
30.300        40
30.310        33
30.320        27
30.330        40
30.340        20
30.350        40
30.360        27
30.370         7
30.380        47
30.390        67
30.400        40
30.410        27
30.420        33
30.430        27
30.440        40
30.450        27
30.460        33
30.470        20
30.480        27
30.490         7
30.500        33
30.510        40
30.520        60
30.530        33
30.540        47
30.550        27
30.560        13
30.570        27
30.580        33
30.590        13
30.600        13
30.610        20
30.620        33
30.630        33
30.640        27
30.650        40
30.660        13
30.670        27
30.680        40
30.690        20
30.700         7
30.710        20
30.720        53
30.730        33
30.740        40
30.750        27
30.760         7
30.770        27
30.780        27
30.790        40
30.800        53
30.810        33
30.820        67
30.830        13
30.840        33
30.850        67
30.860        20
30.870        20
30.880        60
30.890        40
30.900        40
30.910        40
30.920        20
30.930        20
30.940        13
30.950        13
30.960        40
30.970        27
30.980        47
30.990        40
31.000         7
31.010        13
31.020        27
31.030         7
31.040        40
31.050        13
31.060        60
31.070        20
31.080        13
31.090        13
31.100        20
31.110        60
31.120        53
31.130        40
31.140        20
31.150        40
31.160        27
31.170        27
31.180        33
31.190        73
31.200        20
31.210        20
31.220         7
31.230        40
31.240        27
31.250        20
31.260        53
31.270        33
31.280        20
31.290        33
31.300        27
31.310        20
31.320        33
31.330        73
31.340        33
31.350        67
31.360        27
31.370        33
31.380        33
31.390        20
31.400         7
31.410        27
31.420        40
31.430        33
31.440        40
31.450        13
31.460        27
31.470        20
31.480         7
31.490        47
31.500        40
31.510        20
31.520        13
31.530        47
31.540        27
31.550        20
31.560        20
31.570        13
31.580        33
31.590        53
31.600        33
31.610        47
31.620        33
31.630        20
31.640        33
31.650        27
31.660         7
31.670        33
31.680        13
31.690        13
31.700        33
31.710        33
31.720        53
31.730        27
31.740        33
31.750        27
31.760        40
31.770        53
31.780        20
31.790        33
31.800        60
31.810        27
31.820        27
31.830        20
31.840        40
31.850        47
31.860        20
31.870        20
31.880        47
31.890        47
31.900        47
31.910        20
31.920        33
31.930        13
31.940        40
31.950        20
31.960        33
31.970        40
31.980        40
31.990        47
32.000        47
32.010        40
32.020        33
32.030        40
32.040        60
32.050        80
32.060        73
32.070        53
32.080        53
32.090        53
32.100        33
32.110        40
32.120        67
32.130        47
32.140        67
32.150        40
32.160        73
32.170        80
32.180       113
32.190       100
32.200        47
32.210       100
32.220       100
32.230       120
32.240       207
32.250       160
32.260       193
32.270       293
32.280       220
32.290       260
32.300       233
32.310       287
32.320       267
32.330       313
32.340       327
32.350       387
32.360       340
32.370       380
32.380       313
32.390       300
32.400       373
32.410       353
32.420       307
32.430       333
32.440       240
32.450       287
32.460       220
32.470       240
32.480       227
32.490       180
32.500       173
32.510        87
32.520       140
32.530       133
32.540       113
32.550        60
32.560        80
32.570        60
32.580        73
32.590        87
32.600        80
32.610        27
32.620        67
32.630        53
32.640        33
32.650        53
32.660        27
32.670         7
32.680        27
32.690        47
32.700        47
32.710        33
32.720        67
32.730        40
32.740        40
32.750        33
32.760        27
32.770        40
32.780        33
32.790        47
32.800        33
32.810        33
32.820        20
32.830        33
32.840         7
32.850        33
32.860        33
32.870        13
32.880        33
32.890        20
32.900        40
32.910        47
32.920        27
32.930        33
32.940        20
32.950        40
32.960        27
32.970        20
32.980        33
32.990        33
33.000        47
33.010        27
33.020        20
33.030        20
33.040        40
33.050        13
33.060        33
33.070        27
33.080        53
33.090        33
33.100        33
33.110        13
33.120        33
33.130        47
33.140        20
33.150        33
33.160        27
33.170         7
33.180        20
33.190        33
33.200        33
33.210        20
33.220        27
33.230        40
33.240        33
33.250        47
33.260        27
33.270        40
33.280        40
33.290        47
33.300        33
33.310         7
33.320         7
33.330         7
33.340        40
33.350        27
33.360        53
33.370        33
33.380        47
33.390        47
33.400        20
33.410         7
33.420        27
33.430        33
33.440        40
33.450        60
33.460        20
33.470        47
33.480        40
33.490        27
33.500        33
33.510        20
33.520        53
33.530        13
33.540        13
33.550        27
33.560        27
33.570        47
33.580        40
33.590        27
33.600         7
33.610        20
33.620        20
33.630        20
33.640        40
33.650        13
33.660        40
33.670        27
33.680         7
33.690        33
33.700        13
33.710         7
33.720        13
33.730        20
33.740        20
33.750        27
33.760        33
33.770        20
33.780        20
33.790        27
33.800         7
33.810        20
33.820        33
33.830        47
33.840        27
33.850        47
33.860        27
33.870        33
33.880        20
33.890        13
33.900        33
33.910        40
33.920        27
33.930        40
33.940         7
33.950        27
33.960        27
33.970        33
33.980        53
33.990        47
34.000        60
34.010        27
34.020        53
34.030        20
34.040        20
34.050        40
34.060        13
34.070        13
34.080        27
34.090        27
34.100         7
34.110        27
34.120        13
34.130        13
34.140        20
34.150        47
34.160        27
34.170        60
34.180        33
34.190        47
34.200        67
34.210         0
34.220        13
34.230        27
34.240        13
34.250        27
34.260        13
34.270        33
34.280        20
34.290        40
34.300         7
34.310        33
34.320        20
34.330        13
34.340        27
34.350        20
34.360        27
34.370        33
34.380        27
34.390        13
34.400        20
34.410        27
34.420        27
34.430        20
34.440        40
34.450        33
34.460        13
34.470        47
34.480         0
34.490        27
34.500        20
34.510        40
34.520        33
34.530        20
34.540        20
34.550        47
34.560        13
34.570        20
34.580        20
34.590        33
34.600        27
34.610        33
34.620        33
34.630        27
34.640        27
34.650        20
34.660        40
34.670        33
34.680        13
34.690        20
34.700        33
34.710        33
34.720        40
34.730        27
34.740        13
34.750        60
34.760        20
34.770        47
34.780        20
34.790         7
34.800        20
34.810        13
34.820        33
34.830        33
34.840         7
34.850        20
34.860        27
34.870        27
34.880        47
34.890        33
34.900        60
34.910        33
34.920        47
34.930        53
34.940       100
34.950        67
34.960       100
34.970        80
34.980        60
34.990        73
35.000        73
35.010        53
35.020        80
35.030        73
35.040        93
35.050        67
35.060        73
35.070       153
35.080        73
35.090        60
35.100        73
35.110        53
35.120        87
35.130        40
35.140        53
35.150        33
35.160        73
35.170        73
35.180        60
35.190        80
35.200        53
35.210        33
35.220        47
35.230        20
35.240        33
35.250        33
35.260         0
35.270        27
35.280        20
35.290        13
35.300        13
35.310         0
35.320        33
35.330        20
35.340        27
35.350         7
35.360        20
35.370        47
35.380        53
35.390        33
35.400        33
35.410        20
35.420        20
35.430        13
35.440        13
35.450        20
35.460        33
35.470        13
35.480        40
35.490         7
35.500        40
35.510        13
35.520        27
35.530         7
35.540         7
35.550        20
35.560         7
35.570        20
35.580        27
35.590         0
35.600        20
35.610         0
35.620         7
35.630        40
35.640         7
35.650         0
35.660        13
35.670        40
35.680        27
35.690        33
35.700        13
35.710        47
35.720        13
35.730        40
35.740         7
35.750        33
35.760        20
35.770        20
35.780        13
35.790         7
35.800        13
35.810        47
35.820         7
35.830        33
35.840        20
35.850        27
35.860        33
35.870        13
35.880        20
35.890        13
35.900        27
35.910        27
35.920        33
35.930        13
35.940        20
35.950         7
35.960        20
35.970         0
35.980        33
35.990        27
36.000        20
36.010        20
36.020        20
36.030        20
36.040        20
36.050        27
36.060        13
36.070        27
36.080        27
36.090        33
36.100        33
36.110        27
36.120        20
36.130         0
36.140        27
36.150         7
36.160        53
36.170        27
36.180        33
36.190        20
36.200        20
36.210        33
36.220        33
36.230        13
36.240        20
36.250        13
36.260        33
36.270        27
36.280         7
36.290        20
36.300        27
36.310        47
36.320        40
36.330        33
36.340        33
36.350        40
36.360         0
36.370        53
36.380        20
36.390        47
36.400        27
36.410        47
36.420        27
36.430         7
36.440        13
36.450        20
36.460        33
36.470        47
36.480        40
36.490        20
36.500        13
36.510        27
36.520        33
36.530        27
36.540        27
36.550        13
36.560         0
36.570        20
36.580         7
36.590        20
36.600        27
36.610        40
36.620        13
36.630        27
36.640        13
36.650        27
36.660        20
36.670        47
36.680        20
36.690        33
36.700        20
36.710        13
36.720        20
36.730        20
36.740        53
36.750         7
36.760        33
36.770        27
36.780        13
36.790        40
36.800        20
36.810        13
36.820        47
36.830        13
36.840        27
36.850        47
36.860        13
36.870         7
36.880        20
36.890         7
36.900        27
36.910        27
36.920        33
36.930        20
36.940        27
36.950        47
36.960        33
36.970        13
36.980        20
36.990        13
37.000        47
37.010        13
37.020        27
37.030         7
37.040        20
37.050        27
37.060        33
37.070        33
37.080        20
37.090        13
37.100        27
37.110         7
37.120        13
37.130        20
37.140        27
37.150         7
37.160         7
37.170        20
37.180        13
37.190        20
37.200        27
37.210        20
37.220        47
37.230         7
37.240        27
37.250        27
37.260        13
37.270        20
37.280        20
37.290        27
37.300        40
37.310        20
37.320        27
37.330        20
37.340        20
37.350        13
37.360        40
37.370        33
37.380        13
37.390        27
37.400        13
37.410        13
37.420        20
37.430        33
37.440        33
37.450        27
37.460         7
37.470        13
37.480        20
37.490        40
37.500        20
37.510        40
37.520        13
37.530        47
37.540        13
37.550        47
37.560        27
37.570        47
37.580         7
37.590        33
37.600        33
37.610         7
37.620        27
37.630        27
37.640        13
37.650        33
37.660        40
37.670        33
37.680        47
37.690        47
37.700        67
37.710        40
37.720        80
37.730        73
37.740        80
37.750        60
37.760        53
37.770         7
37.780        60
37.790        60
37.800        67
37.810        87
37.820        60
37.830        40
37.840        53
37.850        33
37.860        20
37.870        20
37.880        20
37.890         0
37.900        27
37.910         7
37.920        40
37.930        33
37.940        13
37.950        33
37.960        20
37.970        40
37.980        33
37.990        27
38.000        13
38.010        20
38.020         7
38.030        13
38.040        27
38.050        40
38.060        27
38.070        27
38.080        33
38.090        20
38.100        27
38.110        20
38.120        40
38.130        27
38.140        33
38.150        27
38.160        47
38.170        13
38.180        40
38.190        40
38.200        20
38.210        20
38.220         7
38.230        33
38.240         7
38.250        20
38.260        27
38.270        20
38.280        20
38.290        20
38.300        27
38.310        33
38.320        27
38.330         7
38.340        20
38.350        40
38.360        27
38.370        20
38.380         7
38.390        27
38.400        47
38.410        53
38.420        53
38.430        13
38.440         0
38.450         7
38.460        20
38.470        13
38.480        20
38.490        20
38.500         0
38.510        20
38.520        13
38.530        13
38.540        13
38.550        27
38.560        53
38.570        13
38.580        40
38.590        20
38.600        27
38.610        20
38.620        13
38.630        20
38.640        13
38.650        47
38.660        27
38.670        33
38.680        20
38.690        13
38.700        67
38.710        13
38.720        33
38.730        13
38.740        53
38.750        33
38.760        20
38.770        40
38.780        13
38.790        27
38.800        33
38.810        13
38.820        13
38.830        13
38.840        27
38.850        20
38.860        33
38.870        13
38.880        40
38.890        13
38.900        20
38.910         0
38.920        33
38.930        27
38.940        53
38.950        27
38.960        33
38.970        47
38.980        13
38.990        20
39.000        20
39.010        40
39.020        47
39.030         7
39.040         7
39.050        20
39.060        20
39.070        20
39.080        20
39.090        33
39.100        60
39.110        13
39.120        13
39.130        20
39.140        27
39.150        27
39.160        13
39.170        20
39.180         7
39.190        13
39.200        33
39.210        13
39.220        47
39.230         7
39.240        20
39.250        47
39.260         0
39.270        20
39.280        20
39.290        13
39.300        33
39.310        13
39.320        27
39.330        40
39.340        20
39.350        20
39.360        27
39.370        13
39.380        53
39.390        20
39.400        20
39.410        20
39.420        20
39.430         7
39.440        20
39.450        20
39.460        53
39.470        13
39.480         7
39.490        20
39.500        40
39.510        13
39.520        20
39.530        33
39.540        33
39.550        33
39.560        40
39.570        33
39.580        27
39.590        20
39.600        13
39.610        27
39.620        20
39.630        40
39.640        20
39.650        27
39.660        13
39.670        47
39.680        13
39.690         7
39.700        13
39.710        27
39.720        40
39.730        53
39.740        33
39.750        40
39.760        73
39.770        20
39.780        40
39.790        40
39.800        53
39.810        53
39.820        47
39.830        67
39.840        87
39.850        80
39.860       120
39.870       120
39.880       140
39.890       160
39.900       160
39.910       213
39.920       173
39.930       133
39.940       227
39.950       153
39.960       227
39.970       207
39.980       280
39.990       167
40.000       133
40.010       167
40.020       173
40.030       133
40.040       120
40.050       160
40.060       187
40.070       127
40.080       100
40.090       147
40.100        87
40.110        87
40.120        47
40.130        80
40.140       107
40.150        53
40.160        33
40.170        47
40.180        33
40.190        40
40.200        33
40.210        20
40.220        33
40.230        33
40.240        40
40.250        27
40.260        20
40.270         0
40.280        27
40.290        47
40.300         7
40.310        33
40.320        33
40.330        20
40.340         7
40.350        40
40.360        20
40.370        20
40.380        27
40.390        20
40.400        13
40.410         7
40.420         7
40.430         7
40.440        20
40.450        27
40.460        27
40.470        27
40.480        67
40.490        13
40.500         7
40.510         7
40.520         7
40.530        33
40.540        20
40.550        20
40.560        27
40.570        13
40.580         7
40.590        13
40.600        33
40.610        33
40.620        40
40.630        27
40.640        27
40.650        13
40.660        20
40.670        27
40.680        13
40.690        13
40.700        13
40.710        13
40.720        20
40.730        13
40.740         7
40.750        33
40.760        13
40.770        27
40.780        13
40.790        20
40.800        33
40.810        33
40.820        13
40.830        33
40.840        20
40.850        40
40.860        27
40.870        13
40.880        20
40.890        40
40.900         0
40.910        33
40.920        20
40.930        40
40.940         7
40.950        27
40.960         7
40.970        20
40.980        20
40.990        33
41.000         0
41.010        13
41.020         7
41.030        13
41.040        13
41.050        27
41.060        33
41.070        20
41.080        27
41.090        47
41.100        33
41.110        27
41.120        20
41.130         7
41.140        20
41.150        20
41.160        20
41.170         7
41.180        20
41.190        27
41.200        27
41.210        20
41.220         0
41.230        27
41.240        20
41.250        33
41.260        13
41.270         0
41.280        27
41.290        40
41.300        33
41.310        20
41.320        13
41.330        60
41.340        13
41.350        27
41.360        33
41.370        13
41.380        27
41.390        47
41.400        33
41.410        33
41.420         7
41.430        67
41.440        20
41.450        40
41.460        40
41.470        60
41.480        47
41.490        33
41.500        80
41.510       100
41.520        80
41.530        80
41.540       120
41.550       107
41.560        93
41.570       107
41.580       160
41.590       120
41.600       153
41.610       220
41.620       227
41.630       233
41.640       167
41.650       213
41.660       227
41.670       247
41.680       187
41.690       133
41.700       127
41.710       133
41.720       153
41.730       153
41.740       167
41.750       153
41.760       113
41.770        73
41.780        93
41.790        73
41.800        40
41.810        87
41.820        73
41.830        60
41.840        40
41.850        27
41.860         7
41.870        27
41.880        27
41.890        33
41.900        27
41.910        33
41.920         7
41.930        33
41.940        27
41.950        33
41.960         7
41.970        33
41.980        27
41.990        40
42.000        33
42.010        13
42.020        20
42.030        20
42.040        40
42.050        13
42.060         7
42.070        33
42.080        47
42.090        27
42.100        27
42.110        13
42.120        13
42.130        13
42.140        33
42.150        20
42.160        47
42.170        20
42.180         7
42.190        40
42.200        27
42.210        20
42.220        20
42.230        47
42.240         7
42.250         7
42.260        13
42.270        13
42.280        13
42.290         7
42.300        13
42.310        27
42.320        33
42.330         0
42.340        53
42.350        27
42.360        27
42.370         7
42.380         7
42.390         7
42.400        13
42.410        27
42.420        27
42.430        20
42.440        13
42.450        13
42.460        60
42.470        20
42.480        40
42.490        33
42.500        13
42.510         7
42.520        13
42.530        27
42.540        13
42.550         7
42.560        13
42.570        13
42.580        20
42.590        47
42.600        27
42.610        20
42.620        20
42.630        27
42.640        20
42.650        20
42.660        27
42.670        27
42.680        33
42.690        27
42.700        20
42.710         0
42.720         7
42.730        20
42.740        20
42.750        13
42.760        13
42.770        20
42.780         0
42.790        20
42.800        13
42.810        13
42.820        20
42.830        20
42.840        20
42.850        40
42.860        20
42.870         7
42.880         7
42.890        13
42.900        27
42.910        20
42.920        27
42.930         7
42.940        13
42.950         7
42.960         0
42.970        33
42.980        20
42.990        27
43.000         7
43.010        13
43.020         7
43.030        33
43.040        27
43.050         0
43.060        13
43.070        27
43.080         7
43.090         0
43.100        53
43.110        27
43.120        20
43.130        13
43.140         7
43.150        27
43.160        40
43.170        20
43.180        20
43.190        13
43.200        47
43.210        27
43.220        60
43.230        53
43.240        40
43.250        53
43.260        60
43.270        87
43.280        47
43.290        67
43.300        67
43.310        80
43.320        20
43.330        47
43.340        27
43.350        20
43.360        67
43.370        47
43.380        27
43.390        27
43.400        47
43.410         7
43.420        27
43.430        33
43.440        33
43.450        20
43.460        33
43.470        40
43.480        27
43.490        13
43.500        47
43.510        20
43.520        13
43.530         7
43.540         0
43.550         7
43.560        40
43.570        13
43.580        40
43.590        20
43.600        40
43.610        20
43.620         7
43.630        13
43.640        13
43.650        13
43.660        20
43.670        33
43.680        47
43.690         0
43.700        13
43.710         7
43.720         7
43.730        40
43.740        53
43.750        13
43.760        27
43.770        20
43.780        20
43.790         0
43.800        47
43.810        20
43.820        20
43.830         7
43.840        13
43.850        13
43.860        33
43.870         7
43.880         0
43.890        20
43.900        20
43.910        20
43.920        53
43.930        13
43.940         7
43.950        33
43.960        13
43.970         7
43.980        20
43.990         0
44.000        27
44.010        13
44.020        13
44.030        33
44.040        27
44.050         7
44.060        13
44.070        20
44.080         7
44.090         7
44.100        13
44.110         0
44.120         7
44.130        20
44.140        27
44.150        53
44.160        20
44.170        27
44.180        53
44.190        20
44.200         7
44.210        13
44.220        27
44.230        13
44.240        20
44.250        20
44.260        13
44.270        13
44.280        20
44.290        13
44.300         7
44.310        27
44.320        13
44.330        13
44.340        20
44.350         7
44.360        27
44.370        40
44.380         7
44.390        27
44.400        20
44.410         7
44.420         0
44.430        13
44.440        20
44.450        27
44.460        13
44.470        27
44.480         7
44.490        33
44.500        47
44.510        13
44.520        27
44.530        40
44.540        27
44.550        27
44.560        20
44.570        40
44.580        33
44.590         7
44.600        27
44.610        27
44.620        40
44.630         0
44.640        13
44.650        20
44.660        27
44.670        27
44.680        13
44.690        13
44.700        33
44.710        27
44.720        40
44.730        27
44.740        27
44.750        33
44.760        20
44.770        27
44.780        20
44.790        13
44.800        33
44.810        13
44.820        27
44.830        27
44.840        20
44.850        60
44.860        27
44.870        33
44.880        27
44.890        33
44.900        47
44.910        60
44.920        47
44.930        40
44.940        27
44.950        47
44.960        13
44.970        60
44.980        40
44.990        73
45.000        47
45.010        33
45.020        60
45.030        40
45.040        40
45.050        53
45.060        47
45.070        27
45.080         7
45.090        27
45.100        27
45.110        33
45.120        27
45.130        33
45.140        67
45.150        40
45.160        40
45.170        33
45.180        80
45.190        40
45.200        27
45.210        67
45.220        33
45.230        20
45.240        47
45.250        27
45.260        73
45.270        53
45.280        20
45.290        40
45.300        33
45.310        33
45.320        33
45.330        53
45.340        27
45.350        33
45.360        40
45.370       113
45.380        47
45.390        13
45.400        53
45.410        27
45.420        27
45.430        33
45.440        47
45.450        47
45.460        33
45.470        53
45.480        40
45.490        40
45.500        73
45.510        47
45.520        27
45.530        47
45.540        67
45.550        73
45.560        53
45.570        53
45.580        27
45.590        53
45.600        33
45.610        47
45.620        33
45.630        73
45.640        33
45.650        47
45.660        53
45.670        53
45.680        40
45.690        40
45.700        53
45.710        33
45.720        60
45.730        53
45.740        53
45.750        73
45.760        47
45.770        80
45.780        40
45.790        47
45.800        73
45.810       107
45.820        80
45.830        87
45.840        93
45.850        53
45.860        40
45.870        60
45.880        80
45.890        53
45.900        47
45.910        80
45.920        80
45.930        73
45.940        67
45.950       100
45.960        80
45.970       107
45.980       107
45.990       140
46.000       120
46.010        67
46.020       140
46.030       100
46.040        87
46.050       140
46.060       140
46.070       147
46.080       133
46.090       153
46.100       147
46.110       140
46.120       193
46.130       173
46.140       220
46.150       313
46.160       280
46.170       267
46.180       313
46.190       353
46.200       340
46.210       440
46.220       360
46.230       480
46.240       500
46.250       420
46.260       613
46.270       686
46.280       766
46.290       913
46.300       900
46.310       926
46.320      1146
46.330      1120
46.340      1486
46.350      1339
46.360      1559
46.370      1506
46.380      1839
46.390      2073
46.400      2206
46.410      2419
46.420      2492
46.430      2752
46.440      2699
46.450      3025
46.460      3345
46.470      3179
46.480      3579
46.490      3699
46.500      3485
46.510      3692
46.520      3872
46.530      3798
46.540      3599
46.550      3912
46.560      3632
46.570      3719
46.580      3245
46.590      3405
46.600      3005
46.610      3152
46.620      2919
46.630      2932
46.640      2226
46.650      2626
46.660      2079
46.670      1959
46.680      1726
46.690      1793
46.700      1619
46.710      1679
46.720      1446
46.730      1133
46.740       946
46.750       833
46.760      1040
46.770       853
46.780       706
46.790       680
46.800       626
46.810       580
46.820       493
46.830       446
46.840       340
46.850       347
46.860       247
46.870       280
46.880       293
46.890       313
46.900       240
46.910       220
46.920       233
46.930       227
46.940       133
46.950       220
46.960       173
46.970       133
46.980       160
46.990       160
47.000       160
47.010       120
47.020       107
47.030       120
47.040       147
47.050       120
47.060       140
47.070       140
47.080        93
47.090        47
47.100       120
47.110        60
47.120       147
47.130        73
47.140        93
47.150       113
47.160        93
47.170        40
47.180       100
47.190        80
47.200        67
47.210        87
47.220        80
47.230        53
47.240       100
47.250        47
47.260        47
47.270        47
47.280        67
47.290        93
47.300        53
47.310        73
47.320        53
47.330        67
47.340        60
47.350        87
47.360        40
47.370        40
47.380        47
47.390        27
47.400        80
47.410        40
47.420        53
47.430        87
47.440        47
47.450        87
47.460        67
47.470        33
47.480        67
47.490        27
47.500        33
47.510        40
47.520        20
47.530        47
47.540        53
47.550        53
47.560        47
47.570        47
47.580        53
47.590        33
47.600        27
47.610        33
47.620        60
47.630        33
47.640        73
47.650        40
47.660        40
47.670        20
47.680        33
47.690        33
47.700        27
47.710        40
47.720        40
47.730        33
47.740        40
47.750        33
47.760        47
47.770        53
47.780        47
47.790        60
47.800        67
47.810        67
47.820        67
47.830        27
47.840        27
47.850        33
47.860        40
47.870         7
47.880         7
47.890        33
47.900        53
47.910        33
47.920        53
47.930        33
47.940        33
47.950        20
47.960        40
47.970        40
47.980        53
47.990        33
48.000        47
48.010        60
48.020        20
48.030        20
48.040        53
48.050        33
48.060        33
48.070        13
48.080        27
48.090        13
48.100        33
48.110        13
48.120        27
48.130        20
48.140        33
48.150        33
48.160        27
48.170        27
48.180        27
48.190        40
48.200        27
48.210        20
48.220        60
48.230         7
48.240        27
48.250        40
48.260        27
48.270        53
48.280        27
48.290        60
48.300        33
48.310        20
48.320        33
48.330        20
48.340        27
48.350        40
48.360        27
48.370        27
48.380        73
48.390        33
48.400        33
48.410        13
48.420        20
48.430        40
48.440        27
48.450        33
48.460        13
48.470        53
48.480        20
48.490        33
48.500        47
48.510        33
48.520        40
48.530        40
48.540        20
48.550        13
48.560        47
48.570        13
48.580        13
48.590        13
48.600        33
48.610        20
48.620        20
48.630        53
48.640        27
48.650        27
48.660        20
48.670        27
48.680        33
48.690        20
48.700        53
48.710        13
48.720        60
48.730        27
48.740        47
48.750         7
48.760        27
48.770        27
48.780        67
48.790        47
48.800        27
48.810        20
48.820         7
48.830        27
48.840        53
48.850        13
48.860        33
48.870        20
48.880        67
48.890        27
48.900        33
48.910        33
48.920        47
48.930        33
48.940        13
48.950        20
48.960        20
48.970        20
48.980        20
48.990        27
49.000        40
49.010        20
49.020        20
49.030        20
49.040        27
49.050        33
49.060        73
49.070        40
49.080        33
49.090        40
49.100        33
49.110        27
49.120         7
49.130        20
49.140        13
49.150        13
49.160         7
49.170        47
49.180        13
49.190        27
49.200        40
49.210        33
49.220        27
49.230        13
49.240         7
49.250        53
49.260        13
49.270        33
49.280        60
49.290        40
49.300        20
49.310        33
49.320        13
49.330         7
49.340        33
49.350        13
49.360        47
49.370        20
49.380        20
49.390        33
49.400        13
49.410        20
49.420        47
49.430        47
49.440        13
49.450        40
49.460        33
49.470        33
49.480         7
49.490         7
49.500        13
49.510        13
49.520        13
49.530        27
49.540         7
49.550        13
49.560        27
49.570        20
49.580        47
49.590        20
49.600        13
49.610        40
49.620        13
49.630        20
49.640        27
49.650        13
49.660         7
49.670        33
49.680        33
49.690        20
49.700        40
49.710        20
49.720        13
49.730        47
49.740         7
49.750        13
49.760        20
49.770        13
49.780        40
49.790        47
49.800        27
49.810        27
49.820        13
49.830        33
49.840         0
49.850        33
49.860        27
49.870        20
49.880        27
49.890        20
49.900        20
49.910        20
49.920        20
49.930        33
49.940        33
49.950        27
49.960        27
49.970        20
49.980        13
49.990        47
50.000        40
50.010        53
50.020        13
50.030        40
50.040        27
50.050        27
50.060         7
50.070        33
50.080        40
50.090        33
50.100        33
50.110        13
50.120         7
50.130        20
50.140        40
50.150        20
50.160        27
50.170        27
50.180         7
50.190        13
50.200         7
50.210        20
50.220        13
50.230        20
50.240        27
50.250        20
50.260         7
50.270        20
50.280        27
50.290        27
50.300        13
50.310        27
50.320         7
50.330         7
50.340        27
50.350        27
50.360        60
50.370        27
50.380        33
50.390        13
50.400        20
50.410        27
50.420        20
50.430        40
50.440        40
50.450        13
50.460        33
50.470         7
50.480        13
50.490        13
50.500        20
50.510         0
50.520        27
50.530        20
50.540        40
50.550        27
50.560        33
50.570        20
50.580        13
50.590        27
50.600         0
50.610         7
50.620        13
50.630        20
50.640        20
50.650         0
50.660        27
50.670        20
50.680        27
50.690        13
50.700        33
50.710        13
50.720        33
50.730        13
50.740        20
50.750        20
50.760        13
50.770        40
50.780         7
50.790        40
50.800        13
50.810        33
50.820        20
50.830        27
50.840        20
50.850        13
50.860        27
50.870        13
50.880         7
50.890        20
50.900        27
50.910        40
50.920        13
50.930         7
50.940        13
50.950        20
50.960        20
50.970        13
50.980         7
50.990        27
51.000         7
51.010        27
51.020        60
51.030        33
51.040        20
51.050        33
51.060         7
51.070        20
51.080         0
51.090        40
51.100        20
51.110         7
51.120        20
51.130        20
51.140        20
51.150        13
51.160         7
51.170        20
51.180        20
51.190        13
51.200        33
51.210        13
51.220        13
51.230        33
51.240        20
51.250        20
51.260         7
51.270        20
51.280        27
51.290        20
51.300        33
51.310        27
51.320         7
51.330        20
51.340        20
51.350        20
51.360        40
51.370        33
51.380         7
51.390        13
51.400        40
51.410        13
51.420        40
51.430        27
51.440         7
51.450        20
51.460        20
51.470        13
51.480        13
51.490         7
51.500        20
51.510        60
51.520        33
51.530        40
51.540        20
51.550        27
51.560        33
51.570         7
51.580        27
51.590        13
51.600         7
51.610        47
51.620        40
51.630        20
51.640        33
51.650        13
51.660        20
51.670        13
51.680        13
51.690        20
51.700         7
51.710        13
51.720         7
51.730         7
51.740        27
51.750        27
51.760         0
51.770        40
51.780        20
51.790        27
51.800         7
51.810         7
51.820         7
51.830         7
51.840        20
51.850         7
51.860         0
51.870         7
51.880         7
51.890        40
51.900         7
51.910        13
51.920        27
51.930        33
51.940        13
51.950        13
51.960        27
51.970         7
51.980        33
51.990        13
52.000        13
52.010        20
52.020        13
52.030        27
52.040        33
52.050        40
52.060         0
52.070        13
52.080        40
52.090         7
52.100        13
52.110        20
52.120         7
52.130        33
52.140         7
52.150        20
52.160        20
52.170        20
52.180        40
52.190        20
52.200        27
52.210        20
52.220        13
52.230        27
52.240        27
52.250        20
52.260        27
52.270         7
52.280        40
52.290        13
52.300        40
52.310         0
52.320        27
52.330         7
52.340        13
52.350        27
52.360        13
52.370        27
52.380        27
52.390        13
52.400        20
52.410        20
52.420        27
52.430        20
52.440        27
52.450        47
52.460        60
52.470        33
52.480        53
52.490         7
52.500        40
52.510        53
52.520        27
52.530        47
52.540        27
52.550        20
52.560        27
52.570        20
52.580        20
52.590        27
52.600         7
52.610        20
52.620        27
52.630        20
52.640        60
52.650        13
52.660        27
52.670        13
52.680        27
52.690        33
52.700        33
52.710        13
52.720        33
52.730        13
52.740        13
52.750        27
52.760        20
52.770        33
52.780         7
52.790         7
52.800         7
52.810        33
52.820         0
52.830        27
52.840         7
52.850        20
52.860        27
52.870        27
52.880        20
52.890        20
52.900        13
52.910        20
52.920        13
52.930         7
52.940        20
52.950        13
52.960        27
52.970         7
52.980        20
52.990        33
53.000        27
53.010        20
53.020        13
53.030        27
53.040        27
53.050        33
53.060        20
53.070         0
53.080        13
53.090        20
53.100        27
53.110        13
53.120        33
53.130         7
53.140         7
53.150        13
53.160        20
53.170        13
53.180        27
53.190        33
53.200        33
53.210        13
53.220        13
53.230        20
53.240         7
53.250        20
53.260         7
53.270        27
53.280        20
53.290        27
53.300         7
53.310         7
53.320         7
53.330        13
53.340         0
53.350         7
53.360        20
53.370         7
53.380        33
53.390        20
53.400        13
53.410         7
53.420        27
53.430         0
53.440        27
53.450         0
53.460        13
53.470        13
53.480        20
53.490        40
53.500        20
53.510         7
53.520        13
53.530         0
53.540        20
53.550        40
53.560        20
53.570        13
53.580        13
53.590        13
53.600        13
53.610        33
53.620        20
53.630        13
53.640         7
53.650         7
53.660         0
53.670         0
53.680        13
53.690        13
53.700        27
53.710        13
53.720         7
53.730        27
53.740         0
53.750        47
53.760        20
53.770        20
53.780         7
53.790         7
53.800        20
53.810        20
53.820         7
53.830         7
53.840        27
53.850        13
53.860         0
53.870        20
53.880        13
53.890        20
53.900         0
53.910        20
53.920        20
53.930        27
53.940        20
53.950        27
53.960        13
53.970         7
53.980        13
53.990        13
54.000         7
54.010        13
54.020        13
54.030        33
54.040         7
54.050        60
54.060        20
54.070        33
54.080         7
54.090        27
54.100        33
54.110         7
54.120        13
54.130        27
54.140        13
54.150        13
54.160        27
54.170         7
54.180        40
54.190        13
54.200        33
54.210         7
54.220        13
54.230        33
54.240         7
54.250         7
54.260        13
54.270        13
54.280        33
54.290         7
54.300        40
54.310        20
54.320        13
54.330        20
54.340        27
54.350        20
54.360        20
54.370        13
54.380         7
54.390         7
54.400         7
54.410        33
54.420         7
54.430        13
54.440        13
54.450         7
54.460        20
54.470        13
54.480        20
54.490         7
54.500        47
54.510        27
54.520        33
54.530        13
54.540         0
54.550        27
54.560        20
54.570        13
54.580        33
54.590         7
54.600        13
54.610        20
54.620        27
54.630         0
54.640        13
54.650        13
54.660        27
54.670         0
54.680         0
54.690        27
54.700        13
54.710        27
54.720         7
54.730        13
54.740        27
54.750        13
54.760        20
54.770        13
54.780        33
54.790         0
54.800        20
54.810        20
54.820        13
54.830        27
54.840        40
54.850        13
54.860        40
54.870        27
54.880         0
54.890        13
54.900         7
54.910        20
54.920         7
54.930         7
54.940         0
54.950        27
54.960        13
54.970         7
54.980         7
54.990        40
55.000        13
55.010        27
55.020         0
55.030        20
55.040        13
55.050        33
55.060        13
55.070        13
55.080        13
55.090        13
55.100        13
55.110        20
55.120         7
55.130        13
55.140         0
55.150        20
55.160        27
55.170        13
55.180        40
55.190        13
55.200         7
55.210        13
55.220        20
55.230        27
55.240         7
55.250        27
55.260         0
55.270        27
55.280        20
55.290        13
55.300        40
55.310        27
55.320         0
55.330        13
55.340         7
55.350        13
55.360        13
55.370         0
55.380        20
55.390        20
55.400        20
55.410        47
55.420        20
55.430        13
55.440         7
55.450         7
55.460        20
55.470         7
55.480        27
55.490         7
55.500         0
55.510        33
55.520         7
55.530         7
55.540        40
55.550         7
55.560        20
55.570        20
55.580         7
55.590         7
55.600        33
55.610         7
55.620        40
55.630        20
55.640         0
55.650        33
55.660        20
55.670         0
55.680        20
55.690        13
55.700         7
55.710         7
55.720        20
55.730        40
55.740         7
55.750        33
55.760         7
55.770        20
55.780        47
55.790        27
55.800        13
55.810        13
55.820         0
55.830        20
55.840        13
55.850         7
55.860        40
55.870        13
55.880         7
55.890        27
55.900         7
55.910        13
55.920         7
55.930        27
55.940        33
55.950         7
55.960        20
55.970        27
55.980         7
55.990        13
56.000        13
56.010        27
56.020        27
56.030         7
56.040        13
56.050        20
56.060        13
56.070        13
56.080        13
56.090        40
56.100        13
56.110         7
56.120         0
56.130        13
56.140         7
56.150        13
56.160        13
56.170        13
56.180        13
56.190        13
56.200         7
56.210         0
56.220        20
56.230        13
56.240        13
56.250        33
56.260         7
56.270        20
56.280         0
56.290         7
56.300        47
56.310        20
56.320        33
56.330        13
56.340        13
56.350        20
56.360         0
56.370         0
56.380        27
56.390        13
56.400         7
56.410        27
56.420        33
56.430        13
56.440        20
56.450         0
56.460        20
56.470        53
56.480         7
56.490         7
56.500        13
56.510        33
56.520         0
56.530        13
56.540        20
56.550        13
56.560        27
56.570         7
56.580        13
56.590         7
56.600         7
56.610        13
56.620        13
56.630         7
56.640        27
56.650        27
56.660        27
56.670        13
56.680        13
56.690        40
56.700        20
56.710        47
56.720         7
56.730        33
56.740         0
56.750         7
56.760        13
56.770        20
56.780        33
56.790        27
56.800        13
56.810        20
56.820        13
56.830        20
56.840         7
56.850        27
56.860         7
56.870        13
56.880        47
56.890        13
56.900        27
56.910        33
56.920        13
56.930        33
56.940        13
56.950        33
56.960         0
56.970         0
56.980         7
56.990         0
57.000         7
57.010         0
57.020        13
57.030        13
57.040        20
57.050        13
57.060         7
57.070         0
57.080        20
57.090        13
57.100        13
57.110         7
57.120         0
57.130        33
57.140        27
57.150        13
57.160        47
57.170         7
57.180        13
57.190        13
57.200        13
57.210        20
57.220         7
57.230        27
57.240        20
57.250        33
57.260        33
57.270        27
57.280        33
57.290        13
57.300        33
57.310        20
57.320        20
57.330        33
57.340        20
57.350        33
57.360         0
57.370        33
57.380        47
57.390        27
57.400        27
57.410        73
57.420        73
57.430        87
57.440        73
57.450       100
57.460       133
57.470       153
57.480       160
57.490       193
57.500       180
57.510       167
57.520       193
57.530       167
57.540       187
57.550       153
57.560       147
57.570       100
57.580       100
57.590        67
57.600        67
57.610       133
57.620        80
57.630        80
57.640        73
57.650       107
57.660        73
57.670        87
57.680        80
57.690       113
57.700        87
57.710        80
57.720        73
57.730        40
57.740        33
57.750        40
57.760        40
57.770        33
57.780        20
57.790        47
57.800        47
57.810        27
57.820        40
57.830        27
57.840        40
57.850        40
57.860        20
57.870        47
57.880        20
57.890        33
57.900        80
57.910        27
57.920        13
57.930        40
57.940        33
57.950        33
57.960        20
57.970        47
57.980        47
57.990        93
58.000        60
58.010        33
58.020        20
58.030        33
58.040        33
58.050        40
58.060        33
58.070        27
58.080        13
58.090        27
58.100        40
58.110        20
58.120        27
58.130        20
58.140        20
58.150        20
58.160        27
58.170        13
58.180        20
58.190        20
58.200        13
58.210        20
58.220        20
58.230         7
58.240         7
58.250         7
58.260        27
58.270        20
58.280        20
58.290        20
58.300        27
58.310        33
58.320        20
58.330        20
58.340        20
58.350         0
58.360         7
58.370        13
58.380        27
58.390        20
58.400         7
58.410        20
58.420        20
58.430        20
58.440        13
58.450        20
58.460        20
58.470        47
58.480        20
58.490        13
58.500        13
58.510        20
58.520        20
58.530        13
58.540        20
58.550         7
58.560        20
58.570        13
58.580        13
58.590         7
58.600        20
58.610        13
58.620         7
58.630        13
58.640        13
58.650        33
58.660        13
58.670        40
58.680        27
58.690        13
58.700        13
58.710         7
58.720         7
58.730         0
58.740        13
58.750         7
58.760         7
58.770        20
58.780        13
58.790        13
58.800        20
58.810         0
58.820        33
58.830         7
58.840        20
58.850        40
58.860         7
58.870        33
58.880        13
58.890         7
58.900         7
58.910         0
58.920        27
58.930        13
58.940         0
58.950         7
58.960        13
58.970         7
58.980        13
58.990         7
59.000        33
59.010        20
59.020        20
59.030        27
59.040         0
59.050        27
59.060        20
59.070        20
59.080        53
59.090         7
59.100        33
59.110        13
59.120        20
59.130        27
59.140        20
59.150        13
59.160         7
59.170         0
59.180        13
59.190        13
59.200        27
59.210        20
59.220         0
59.230         0
59.240        20
59.250        13
59.260        20
59.270        27
59.280         0
59.290         7
59.300        20
59.310         7
59.320        20
59.330        20
59.340         7
59.350         0
59.360        27
59.370        20
59.380        13
59.390        20
59.400        20
59.410        13
59.420        20
59.430        13
59.440        13
59.450        13
59.460        20
59.470        27
59.480        13
59.490         7
59.500        33
59.510        20
59.520         7
59.530        13
59.540         0
59.550        33
59.560        13
59.570        33
59.580         0
59.590        20
59.600         0
59.610        13
59.620        33
59.630         7
59.640         7
59.650        20
59.660        13
59.670        13
59.680        13
59.690        13
59.700        13
59.710        13
59.720        13
59.730         7
59.740        27
59.750         7
59.760        13
59.770         7
59.780         0
59.790         7
59.800        13
59.810         7
59.820        20
59.830         7
59.840        13
59.850         7
59.860         7
59.870         7
59.880        27
59.890        20
59.900        20
59.910        13
59.920        13
59.930         7
59.940         7
59.950        27
59.960         7
59.970        20
59.980         7
59.990        13
60.000        13
