20.000         0
20.010         0
20.020        53
20.030        40
20.040        33
20.050        60
20.060        33
20.070        33
20.080        33
20.090        33
20.100        33
20.110        27
20.120        60
20.130        40
20.140        80
20.150        80
20.160        60
20.170        53
20.180        67
20.190        40
20.200        40
20.210        13
20.220        40
20.230        40
20.240        20
20.250        47
20.260        33
20.270        67
20.280        53
20.290        33
20.300        40
20.310        40
20.320        40
20.330        20
20.340        87
20.350        33
20.360        33
20.370        53
20.380        20
20.390        40
20.400        13
20.410        47
20.420        60
20.430        20
20.440        53
20.450        60
20.460        33
20.470        67
20.480        40
20.490        67
20.500        67
20.510        67
20.520        73
20.530        20
20.540        40
20.550        33
20.560        40
20.570        33
20.580        20
20.590        53
20.600        40
20.610        40
20.620        20
20.630        33
20.640        27
20.650        27
20.660        20
20.670        40
20.680        60
20.690        33
20.700        33
20.710        27
20.720        47
20.730        47
20.740        33
20.750        27
20.760        33
20.770        20
20.780        33
20.790        40
20.800        13
20.810        33
20.820        33
20.830        33
20.840        33
20.850        20
20.860        33
20.870        53
20.880        13
20.890        20
20.900        33
20.910        20
20.920        33
20.930        40
20.940        33
20.950        27
20.960        27
20.970        67
20.980        60
20.990        33
21.000        47
21.010        60
21.020        87
21.030        60
21.040        33
21.050        80
21.060        27
21.070        60
21.080        27
21.090        33
21.100        40
21.110        20
21.120        27
21.130        33
21.140        73
21.150        40
21.160        53
21.170        27
21.180        60
21.190        47
21.200        33
21.210        67
21.220        67
21.230        33
21.240        40
21.250        80
21.260        40
21.270        40
21.280        40
21.290        40
21.300        33
21.310        20
21.320        40
21.330        33
21.340        33
21.350        33
21.360        40
21.370        53
21.380        33
21.390        33
21.400        60
21.410        47
21.420        40
21.430        47
21.440        80
21.450        20
21.460        33
21.470        33
21.480        40
21.490        47
21.500        40
21.510        27
21.520        53
21.530        27
21.540        47
21.550        47
21.560        53
21.570        40
21.580        33
21.590        40
21.600        20
21.610        27
21.620        33
21.630        47
21.640        60
21.650        27
21.660        33
21.670        53
21.680        47
21.690        47
21.700        40
21.710        27
21.720        27
21.730        60
21.740        60
21.750        33
21.760        27
21.770        13
21.780        40
21.790        33
21.800        53
21.810        40
21.820        60
21.830        67
21.840        20
21.850         7
21.860        53
21.870        47
21.880        47
21.890        33
21.900        27
21.910        33
21.920        27
21.930        47
21.940        53
21.950        47
21.960        47
21.970        40
21.980        47
21.990        67
22.000        40
22.010        27
22.020        27
22.030        53
22.040        47
22.050        53
22.060        20
22.070        60
22.080        40
22.090        27
22.100        33
22.110        27
22.120        27
22.130        40
22.140        47
22.150        40
22.160        33
22.170        47
22.180        47
22.190        47
22.200        27
22.210        27
22.220        53
22.230        60
22.240        60
22.250        53
22.260         7
22.270        20
22.280        60
22.290        80
22.300        73
22.310        27
22.320        47
22.330        60
22.340        60
22.350        40
22.360        53
22.370        33
22.380        13
22.390        33
22.400        40
22.410        27
22.420        33
22.430        47
22.440        80
22.450        20
22.460        20
22.470        27
22.480        53
22.490        67
22.500        27
22.510        40
22.520        33
22.530        33
22.540        53
22.550        47
22.560        60
22.570        40
22.580        87
22.590        47
22.600        47
22.610        47
22.620        33
22.630        67
22.640        80
22.650        33
22.660        60
22.670        60
22.680        60
22.690        73
22.700        60
22.710        60
22.720        67
22.730        33
22.740        60
22.750        60
22.760        53
22.770        40
22.780        33
22.790        53
22.800        80
22.810        47
22.820        60
22.830        53
22.840        27
22.850        80
22.860        67
22.870        73
22.880        60
22.890        67
22.900        53
22.910        47
22.920       100
22.930        53
22.940        47
22.950        67
22.960        87
22.970        53
22.980        93
22.990        67
23.000        80
23.010        33
23.020        87
23.030        93
23.040       133
23.050        27
23.060        40
23.070        60
23.080       107
23.090        93
23.100        73
23.110        67
23.120        47
23.130        47
23.140        73
23.150        27
23.160        67
23.170        47
23.180        33
23.190        60
23.200        13
23.210        33
23.220       113
23.230        67
23.240        33
23.250       107
23.260        53
23.270        40
23.280        27
23.290        27
23.300        53
23.310        47
23.320        47
23.330        47
23.340        40
23.350        73
23.360        60
23.370        47
23.380        60
23.390        20
23.400        40
23.410        27
23.420        53
23.430        67
23.440        53
23.450        40
23.460       107
23.470        27
23.480        47
23.490        40
23.500       100
23.510        33
23.520        60
23.530        67
23.540        60
23.550        87
23.560        67
23.570        47
23.580        40
23.590        33
23.600       107
23.610        40
23.620        60
23.630        67
23.640        87
23.650        47
23.660        67
23.670        93
23.680        47
23.690        40
23.700        73
23.710        47
23.720        80
23.730        60
23.740        20
23.750        67
23.760        73
23.770        87
23.780        47
23.790        47
23.800        47
23.810        60
23.820        47
23.830        87
23.840        60
23.850        47
23.860        93
23.870        73
23.880        20
23.890        67
23.900        60
23.910        87
23.920        47
23.930        67
23.940        80
23.950        73
23.960        80
23.970        40
23.980        80
23.990        73
24.000        93
24.010        87
24.020        67
24.030        53
24.040        60
24.050        40
24.060        73
24.070        60
24.080        53
24.090       100
24.100        53
24.110        53
24.120        53
24.130        47
24.140        67
24.150        93
24.160        80
24.170        40
24.180        20
24.190        93
24.200        47
24.210        60
24.220        93
24.230        67
24.240        93
24.250        53
24.260        60
24.270        87
24.280        87
24.290        60
24.300        47
24.310        93
24.320        40
24.330        93
24.340        67
24.350        73
24.360        60
24.370        53
24.380        27
24.390        47
24.400        53
24.410        80
24.420        87
24.430        60
24.440        73
24.450        87
24.460        67
24.470        67
24.480        87
24.490        60
24.500       100
24.510        80
24.520        80
24.530        93
24.540        47
24.550        40
24.560       100
24.570        93
24.580        60
24.590        80
24.600        93
24.610        53
24.620        40
24.630        53
24.640       100
24.650       100
24.660        80
24.670        47
24.680       127
24.690        73
24.700        73
24.710       153
24.720       133
24.730       107
24.740       107
24.750       147
24.760       213
24.770       140
24.780       187
24.790       113
24.800       160
24.810       193
24.820       147
24.830       153
24.840       120
24.850       167
24.860       107
24.870       173
24.880       153
24.890       173
24.900       180
24.910       180
24.920       167
24.930       153
24.940       160
24.950       220
24.960       227
24.970       193
24.980       227
24.990       173
25.000       200
25.010       180
25.020       220
25.030       193
25.040       220
25.050       207
25.060       153
25.070       187
25.080       187
25.090       227
25.100       167
25.110       200
25.120       213
25.130       167
25.140       287
25.150       200
25.160       220
25.170       240
25.180       213
25.190       287
25.200       220
25.210       227
25.220       247
25.230       200
25.240       247
25.250       233
25.260       273
25.270       253
25.280       287
25.290       247
25.300       240
25.310       333
25.320       260
25.330       320
25.340       253
25.350       313
25.360       347
25.370       300
25.380       347
25.390       373
25.400       313
25.410       460
25.420       340
25.430       506
25.440       533
25.450       546
25.460       813
25.470       893
25.480      1233
25.490      1273
25.500      1220
25.510      1539
25.520      1879
25.530      2586
25.540      4092
25.550      7350
25.560     16947
25.570     31854
25.580     46668
25.590     52352
25.600     51679
25.610     49334
25.620     45442
25.630     44489
25.640     41263
25.650     37198
25.660     32514
25.670     29675
25.680     26629
25.690     22818
25.700     17446
25.710     12435
25.720      7697
25.730      5704
25.740      4871
25.750      4018
25.760      3872
25.770      3152
25.780      2786
25.790      2619
25.800      2079
25.810      1639
25.820      1379
25.830      1173
25.840       980
25.850       740
25.860       486
25.870       486
25.880       347
25.890       460
25.900       446
25.910       387
25.920       453
25.930       320
25.940       320
25.950       373
25.960       327
25.970       353
25.980       320
25.990       313
26.000       327
26.010       300
26.020       373
26.030       353
26.040       320
26.050       267
26.060       260
26.070       240
26.080       340
26.090       313
26.100       260
26.110       280
26.120       267
26.130       360
26.140       347
26.150       187
26.160       347
26.170       287
26.180       200
26.190       220
26.200       240
26.210       227
26.220       240
26.230       273
26.240       233
26.250       240
26.260       260
26.270       227
26.280       227
26.290       147
26.300       260
26.310       287
26.320       260
26.330       180
26.340       260
26.350       160
26.360       193
26.370       240
26.380       233
26.390       260
26.400       287
26.410       273
26.420       213
26.430       207
26.440       240
26.450       240
26.460       187
26.470       213
26.480       293
26.490       193
26.500       193
26.510       227
26.520       200
26.530       153
26.540       167
26.550       280
26.560       313
26.570       280
26.580       260
26.590       213
26.600       260
26.610       167
26.620       227
26.630       240
26.640       233
26.650       200
26.660       180
26.670       213
26.680       127
26.690       233
26.700       200
26.710       193
26.720       180
26.730       213
26.740       267
26.750       173
26.760       287
26.770       173
26.780       220
26.790       207
26.800       180
26.810       253
26.820       187
26.830       193
26.840       320
26.850       247
26.860       233
26.870       213
26.880       227
26.890       220
26.900       153
26.910       240
26.920       260
26.930       193
26.940       200
26.950       227
26.960       160
26.970       200
26.980       187
26.990       247
27.000       193
27.010       200
27.020       193
27.030       287
27.040       267
27.050       187
27.060       193
27.070       233
27.080       273
27.090       207
27.100       193
27.110       240
27.120       180
27.130       220
27.140       227
27.150       227
27.160       273
27.170       220
27.180       327
27.190       227
27.200       173
27.210       173
27.220       133
27.230       233
27.240       247
27.250       300
27.260       240
27.270       233
27.280       233
27.290       267
27.300       220
27.310       240
27.320       267
27.330       220
27.340       200
27.350       220
27.360       187
27.370       207
27.380       140
27.390       207
27.400       167
27.410       293
27.420       253
27.430       187
27.440       220
27.450       253
27.460       180
27.470       260
27.480       187
27.490       240
27.500       180
27.510       173
27.520       220
27.530       220
27.540       233
27.550       240
27.560       167
27.570       240
27.580       260
27.590       127
27.600       220
27.610       173
27.620       227
27.630       213
27.640       240
27.650       173
27.660       167
27.670       200
27.680       167
27.690       153
27.700       293
27.710       160
27.720       193
27.730       160
27.740       260
27.750       187
27.760       260
27.770       160
27.780       207
27.790       173
27.800       227
27.810       200
27.820       173
27.830       220
27.840       273
27.850       180
27.860       187
27.870       213
27.880       233
27.890       193
27.900       147
27.910       193
27.920       180
27.930       213
27.940       147
27.950       167
27.960       167
27.970       153
27.980       240
27.990       213
28.000       207
28.010       193
28.020       207
28.030       207
28.040       127
28.050       207
28.060       207
28.070       213
28.080       240
28.090       187
28.100       207
28.110       167
28.120       140
28.130       193
28.140       133
28.150       140
28.160       173
28.170       220
28.180       187
28.190       127
28.200       200
28.210       187
28.220       173
28.230       200
28.240       167
28.250       200
28.260       167
28.270       133
28.280       140
28.290       247
28.300       153
28.310       173
28.320       260
28.330       213
28.340       207
28.350       247
28.360       167
28.370       207
28.380       180
28.390       260
28.400       153
28.410       213
28.420       227
28.430       207
28.440       213
28.450       133
28.460       213
28.470       160
28.480       207
28.490       240
28.500       213
28.510       173
28.520       107
28.530       120
28.540       207
28.550       120
28.560       133
28.570       247
28.580       220
28.590       213
28.600       187
28.610       220
28.620       193
28.630       213
28.640       207
28.650       187
28.660       173
28.670       180
28.680       240
28.690       227
28.700       167
28.710       127
28.720       160
28.730       140
28.740       207
28.750       200
28.760       233
28.770       173
28.780       207
28.790       173
28.800       187
28.810       253
28.820       153
28.830       153
28.840       207
28.850       180
28.860       200
28.870       247
28.880       167
28.890       160
28.900       133
28.910       140
28.920       207
28.930       227
28.940       160
28.950       173
28.960       173
28.970       173
28.980       160
28.990       160
29.000       193
29.010       147
29.020       160
29.030       187
29.040       167
29.050       180
29.060       173
29.070       167
29.080       193
29.090       207
29.100       213
29.110       200
29.120       207
29.130       147
29.140       147
29.150       220
29.160       193
29.170       180
29.180       213
29.190       133
29.200       153
29.210       267
29.220       147
29.230       160
29.240       173
29.250       173
29.260       207
29.270       207
29.280       153
29.290       200
29.300       207
29.310       187
29.320       187
29.330       107
29.340       187
29.350       220
29.360       207
29.370       200
29.380       180
29.390       153
29.400       233
29.410       207
29.420       193
29.430       173
29.440       153
29.450       147
29.460       200
29.470       207
29.480       260
29.490       193
29.500       180
29.510       220
29.520       207
29.530       133
29.540       147
29.550       147
29.560       147
29.570       200
29.580       187
29.590       227
29.600       120
29.610       127
29.620       213
29.630       180
29.640       147
29.650       113
29.660       147
29.670       200
29.680       233
29.690       133
29.700       160
29.710       160
29.720       167
29.730       180
29.740       233
29.750       167
29.760       200
29.770       200
29.780       213
29.790       140
29.800       140
29.810       233
29.820       227
29.830       113
29.840       253
29.850       247
29.860       200
29.870       180
29.880       180
29.890       173
29.900       147
29.910       180
29.920       247
29.930       180
29.940       140
29.950       207
29.960       200
29.970       147
29.980       247
29.990       193
30.000       207
30.010       173
30.020       233
30.030       160
30.040       220
30.050       220
30.060       160
30.070       193
30.080       193
30.090       173
30.100       207
30.110       233
30.120       180
30.130       147
30.140       193
30.150       200
30.160       240
30.170       193
30.180       187
30.190       240
30.200       213
30.210       193
30.220       207
30.230       200
30.240       213
30.250       127
30.260       133
30.270       233
30.280       187
30.290       193
30.300       167
30.310       160
30.320       147
30.330       247
30.340       167
30.350       193
30.360       113
30.370       287
30.380       153
30.390       220
30.400       240
30.410       227
30.420       213
30.430       133
30.440       193
30.450       187
30.460       200
30.470       173
30.480       127
30.490       187
30.500       220
30.510       180
30.520       107
30.530       207
30.540       127
30.550       160
30.560       200
30.570       167
30.580       173
30.590       253
30.600       160
30.610        93
30.620       233
30.630       200
30.640       193
30.650       120
30.660       193
30.670       227
30.680       227
30.690       193
30.700       173
30.710       180
30.720       147
30.730       227
30.740       147
30.750       100
30.760       127
30.770       193
30.780       100
30.790       167
30.800       147
30.810       200
30.820       173
30.830       187
30.840       167
30.850       153
30.860       193
30.870       153
30.880       147
30.890       160
30.900       160
30.910       147
30.920       140
30.930       200
30.940       213
30.950       227
30.960       267
30.970       220
30.980       127
30.990       233
31.000       193
31.010       140
31.020       133
31.030       153
31.040       173
31.050       207
31.060       227
31.070       133
31.080       193
31.090       140
31.100       113
31.110       273
31.120       160
31.130       133
31.140       193
31.150       180
31.160       240
31.170       200
31.180       153
31.190       220
31.200       213
31.210       193
31.220       213
31.230       200
31.240       140
31.250       193
31.260       180
31.270       147
31.280       180
31.290       120
31.300       173
31.310       153
31.320       233
31.330       193
31.340       200
31.350       247
31.360       200
31.370       147
31.380       193
31.390       173
31.400       207
31.410       207
31.420       187
31.430       253
31.440       213
31.450       180
31.460       200
31.470       213
31.480       207
31.490       113
31.500       147
31.510       193
31.520       140
31.530       187
31.540       180
31.550       160
31.560       160
31.570       267
31.580       267
31.590       193
31.600       227
31.610       160
31.620       213
31.630       153
31.640       173
31.650       173
31.660       260
31.670       147
31.680       147
31.690       167
31.700       200
31.710       300
31.720       227
31.730       173
31.740       260
31.750       173
31.760       187
31.770       180
31.780       180
31.790       213
31.800       193
31.810       200
31.820       180
31.830       200
31.840       213
31.850       220
31.860       173
31.870       247
31.880       280
31.890       213
31.900       253
31.910       267
31.920       193
31.930       333
31.940       220
31.950       207
31.960       307
31.970       273
31.980       293
31.990       333
32.000       433
32.010       253
32.020       360
32.030       287
32.040       367
32.050       367
32.060       546
32.070       446
32.080       506
32.090       526
32.100       580
32.110       480
32.120       706
32.130       633
32.140       660
32.150       853
32.160       873
32.170       913
32.180       993
32.190      1133
32.200      1406
32.210      1379
32.220      1546
32.230      1519
32.240      1699
32.250      1913
32.260      1893
32.270      2332
32.280      2292
32.290      2492
32.300      2432
32.310      2472
32.320      2646
32.330      2506
32.340      2546
32.350      2459
32.360      2192
32.370      2126
32.380      2039
32.390      1806
32.400      1846
32.410      1693
32.420      1619
32.430      1393
32.440      1306
32.450      1140
32.460      1006
32.470       926
32.480      1066
32.490       840
32.500       740
32.510       706
32.520       740
32.530       560
32.540       500
32.550       626
32.560       466
32.570       440
32.580       347
32.590       360
32.600       480
32.610       446
32.620       367
32.630       426
32.640       280
32.650       207
32.660       180
32.670       313
32.680       260
32.690       327
32.700       187
32.710       307
32.720       233
32.730       213
32.740       160
32.750       227
32.760       160
32.770       227
32.780       220
32.790       167
32.800       273
32.810       200
32.820       200
32.830       193
32.840       180
32.850       180
32.860       240
32.870       187
32.880       193
32.890       207
32.900       207
32.910       247
32.920       180
32.930       213
32.940       193
32.950       200
32.960       260
32.970       140
32.980       180
32.990       187
33.000       187
33.010       140
33.020       260
33.030       200
33.040       187
33.050       120
33.060       167
33.070       140
33.080       227
33.090       180
33.100       193
33.110       200
33.120       120
33.130       147
33.140       167
33.150       147
33.160       133
33.170       147
33.180       160
33.190       187
33.200        87
33.210       140
33.220       153
33.230       213
33.240       207
33.250       167
33.260       127
33.270       160
33.280       133
33.290       127
33.300       153
33.310       140
33.320       100
33.330       140
33.340       120
33.350       133
33.360       167
33.370       187
33.380       127
33.390       140
33.400        93
33.410       107
33.420       160
33.430       153
33.440       120
33.450       167
33.460       100
33.470       107
33.480       153
33.490       213
33.500        87
33.510       173
33.520       140
33.530       120
33.540       133
33.550        93
33.560       113
33.570       127
33.580        67
33.590       100
33.600       107
33.610       100
33.620       100
33.630       100
33.640       133
33.650        53
33.660       107
33.670       127
33.680       173
33.690       100
33.700        93
33.710       113
33.720       193
33.730        93
33.740        60
33.750       113
33.760        93
33.770       107
33.780       147
33.790        80
33.800       100
33.810       140
33.820       127
33.830       133
33.840       147
33.850       153
33.860       153
33.870        93
33.880       140
33.890       133
33.900       133
33.910       107
33.920       120
33.930       160
33.940        80
33.950       133
33.960       153
33.970       147
33.980        93
33.990       107
34.000       153
34.010       107
34.020        93
34.030        80
34.040       153
34.050        93
34.060       107
34.070        93
34.080       127
34.090        80
34.100       133
34.110       100
34.120       107
34.130       140
34.140       107
34.150       133
34.160       133
34.170       120
34.180        93
34.190       133
34.200       100
34.210        73
34.220       187
34.230       100
34.240        53
34.250        87
34.260       147
34.270       147
34.280       107
34.290       147
34.300        80
34.310       120
34.320       120
34.330       160
34.340       107
34.350       147
34.360       133
34.370       120
34.380        93
34.390       120
34.400        80
34.410       133
34.420       113
34.430        80
34.440       127
34.450        87
34.460        87
34.470        87
34.480       133
34.490       100
34.500       120
34.510        80
34.520        67
34.530       147
34.540        80
34.550       100
34.560       107
34.570        80
34.580        60
34.590        80
34.600       140
34.610       120
34.620       120
34.630       153
34.640        93
34.650       120
34.660       127
34.670        93
34.680       127
34.690        53
34.700        93
34.710        60
34.720       127
34.730        87
34.740        87
34.750       140
34.760        80
34.770        73
34.780        93
34.790        47
34.800        67
34.810        67
34.820        67
34.830       147
34.840        80
34.850       100
34.860        80
34.870        93
34.880        93
34.890        40
34.900       120
34.910        93
34.920       133
34.930       100
34.940       127
34.950        87
34.960        67
34.970       113
34.980        93
34.990        67
35.000       120
35.010       107
35.020        80
35.030        87
35.040        67
35.050        73
35.060       120
35.070        67
35.080        87
35.090       127
35.100        60
35.110        73
35.120        73
35.130        80
35.140       100
35.150        60
35.160        73
35.170       113
35.180        87
35.190        80
35.200        87
35.210        80
35.220       100
35.230        87
35.240       120
35.250       107
35.260       100
35.270        60
35.280        40
35.290        87
35.300       107
35.310        80
35.320        67
35.330       107
35.340        87
35.350        60
35.360       120
35.370        73
35.380        33
35.390        87
35.400        67
35.410        93
35.420        33
35.430        87
35.440        87
35.450        73
35.460       100
35.470       107
35.480        80
35.490       107
35.500        60
35.510        73
35.520       100
35.530        47
35.540        73
35.550        73
35.560        80
35.570        53
35.580        53
35.590       120
35.600        80
35.610        60
35.620        93
35.630        73
35.640        93
35.650        60
35.660        93
35.670        73
35.680        53
35.690        87
35.700        40
35.710        67
35.720        47
35.730        93
35.740        73
35.750        73
35.760        67
35.770        67
35.780       113
35.790       147
35.800        73
35.810        87
35.820        73
35.830        80
35.840        53
35.850        60
35.860        87
35.870        60
35.880        80
35.890       127
35.900        80
35.910        87
35.920        73
35.930       100
35.940        53
35.950        67
35.960        67
35.970        67
35.980       107
35.990        60
36.000        47
36.010       100
36.020        60
36.030        33
36.040       107
36.050       120
36.060        60
36.070        87
36.080        53
36.090        87
36.100       120
36.110        67
36.120       100
36.130       107
36.140        53
36.150       133
36.160        80
36.170        87
36.180        60
36.190        40
36.200       140
36.210        40
36.220        60
36.230        93
36.240        93
36.250        53
36.260        60
36.270        47
36.280       100
36.290       100
36.300        80
36.310        60
36.320        80
36.330        60
36.340        60
36.350        53
36.360        73
36.370        60
36.380        87
36.390        33
36.400        53
36.410        20
36.420        73
36.430        87
36.440        73
36.450        73
36.460        67
36.470       100
36.480        80
36.490        53
36.500        87
36.510        73
36.520        87
36.530        87
36.540        53
36.550        93
36.560        67
36.570        60
36.580        53
36.590        60
36.600        33
36.610        53
36.620        53
36.630        47
36.640        87
36.650        93
36.660        47
36.670        60
36.680        47
36.690        67
36.700        73
36.710       107
36.720        67
36.730        60
36.740        47
36.750        67
36.760        73
36.770        73
36.780        60
36.790        67
36.800        60
36.810        60
36.820        73
36.830        60
36.840        33
36.850        73
36.860        53
36.870        53
36.880        67
36.890        27
36.900        73
36.910        60
36.920        73
36.930        73
36.940        67
36.950        73
36.960        67
36.970        60
36.980        67
36.990        67
37.000        67
37.010        40
37.020        47
37.030        53
37.040        67
37.050        73
37.060        53
37.070        53
37.080        87
37.090        73
37.100        73
37.110        67
37.120        67
37.130        33
37.140        73
37.150        33
37.160        27
37.170        73
37.180        60
37.190        80
37.200        60
37.210        47
37.220        53
37.230        60
37.240        67
37.250        73
37.260        33
37.270        13
37.280        60
37.290        47
37.300        40
37.310        53
37.320        53
37.330        80
37.340        53
37.350        73
37.360        67
37.370        47
37.380        87
37.390        73
37.400        53
37.410        60
37.420        73
37.430        53
37.440        53
37.450        40
37.460        53
37.470        47
37.480        20
37.490        60
37.500        47
37.510        40
37.520        47
37.530        40
37.540        53
37.550        53
37.560        40
37.570        80
37.580        40
37.590        33
37.600        40
37.610        67
37.620        40
37.630        80
37.640        47
37.650        27
37.660        53
37.670        67
37.680        60
37.690        67
37.700        60
37.710        53
37.720        40
37.730        40
37.740        67
37.750        20
37.760        53
37.770        47
37.780        27
37.790        27
37.800        93
37.810        47
37.820        67
37.830        73
37.840        60
37.850        47
37.860        33
37.870        80
37.880        40
37.890        33
37.900        47
37.910        33
37.920        47
37.930        47
37.940        27
37.950        53
37.960        60
37.970        20
37.980        80
37.990        33
38.000        27
38.010        53
38.020        47
38.030        40
38.040        13
38.050        47
38.060        40
38.070        40
38.080        73
38.090        33
38.100        53
38.110        53
38.120        47
38.130        67
38.140        13
38.150        33
38.160        20
38.170        60
38.180        87
38.190        47
38.200        53
38.210        47
38.220        53
38.230        60
38.240        53
38.250        73
38.260        47
38.270        53
38.280        40
38.290        40
38.300        53
38.310        33
38.320        20
38.330        53
38.340        73
38.350        60
38.360        80
38.370        33
38.380        73
38.390        53
38.400        47
38.410        27
38.420        33
38.430        67
38.440        13
38.450        73
38.460        47
38.470        40
38.480        13
38.490        20
38.500        47
38.510        53
38.520        40
38.530        60
38.540        27
38.550        20
38.560        27
38.570        33
38.580        53
38.590        33
38.600        47
38.610        53
38.620        47
38.630        60
38.640        53
38.650        33
38.660        33
38.670        20
38.680        47
38.690        33
38.700        73
38.710        33
38.720         7
38.730        40
38.740        40
38.750        33
38.760        53
38.770        53
38.780        87
38.790        33
38.800        33
38.810        40
38.820        53
38.830        60
38.840        40
38.850        40
38.860        33
38.870        27
38.880        47
38.890        33
38.900        47
38.910        20
38.920        20
38.930        27
38.940        27
38.950        60
38.960        20
38.970        27
38.980        40
38.990        40
39.000        47
39.010        33
39.020        40
39.030         0
39.040        13
39.050        40
39.060        47
39.070        20
39.080        27
39.090        53
39.100        47
39.110        47
39.120        67
39.130        47
39.140        33
39.150        27
39.160        40
39.170        40
39.180        47
39.190        60
39.200        40
39.210        67
39.220        27
39.230        20
39.240        67
39.250        60
39.260        20
39.270        60
39.280        20
39.290        40
39.300        20
39.310        13
39.320        33
39.330        27
39.340        33
39.350        13
39.360        27
39.370        20
39.380        53
39.390        40
39.400        27
39.410        67
39.420        40
39.430        40
39.440        33
39.450        27
39.460        53
39.470        40
39.480        47
39.490        40
39.500        47
39.510         7
39.520        40
39.530        20
39.540        47
39.550        33
39.560        40
39.570        40
39.580        67
39.590        60
39.600        40
39.610        27
39.620        33
39.630        20
39.640        20
39.650        53
39.660        33
39.670        53
39.680        47
39.690        40
39.700        67
39.710        33
39.720        20
39.730        27
39.740        27
39.750        27
39.760        33
39.770        40
39.780        60
39.790        13
39.800        27
39.810        47
39.820        53
39.830        33
39.840        27
39.850        60
39.860        93
39.870        47
39.880        47
39.890        87
39.900        87
39.910        53
39.920        40
39.930        27
39.940        60
39.950        33
39.960        47
39.970        87
39.980        27
39.990        47
40.000        40
40.010        40
40.020        27
40.030        53
40.040        67
40.050        27
40.060        27
40.070        27
40.080        33
40.090        47
40.100        67
40.110        40
40.120        20
40.130        47
40.140        40
40.150        40
40.160        53
40.170        13
40.180        40
40.190        47
40.200        33
40.210        13
40.220        40
40.230        27
40.240        20
40.250        33
40.260        40
40.270        33
40.280        40
40.290        13
40.300        33
40.310        20
40.320         7
40.330        47
40.340        27
40.350        33
40.360        13
40.370        40
40.380        47
40.390        27
40.400        40
40.410        27
40.420        40
40.430        20
40.440        27
40.450        27
40.460        27
40.470        40
40.480        53
40.490        40
40.500        40
40.510        40
40.520        20
40.530        40
40.540        27
40.550        20
40.560        27
40.570        27
40.580        40
40.590        40
40.600        40
40.610        33
40.620        20
40.630        27
40.640        33
40.650        40
40.660        13
40.670        20
40.680        27
40.690        13
40.700        40
40.710        27
40.720        20
40.730        33
40.740        13
40.750        53
40.760        27
40.770        27
40.780        33
40.790        33
40.800        13
40.810        20
40.820        33
40.830        13
40.840        33
40.850        60
40.860         0
40.870        33
40.880        47
40.890        13
40.900        13
40.910        33
40.920        53
40.930        33
40.940        13
40.950         7
40.960        33
40.970         7
40.980        20
40.990        27
41.000        20
41.010        27
41.020        20
41.030        60
41.040        27
41.050        33
41.060        27
41.070        80
41.080        20
41.090        27
41.100        47
41.110        27
41.120         7
41.130        47
41.140        47
41.150        67
41.160        53
41.170        40
41.180        27
41.190        33
41.200        20
41.210        27
41.220        27
41.230        27
41.240         7
41.250        20
41.260        47
41.270        27
41.280        27
41.290        27
41.300        40
41.310        13
41.320        20
41.330        47
41.340        13
41.350        33
41.360        20
41.370        27
41.380        20
41.390        33
41.400        20
41.410        33
41.420        20
41.430        27
41.440        40
41.450        40
41.460        40
41.470        40
41.480        33
41.490        33
41.500        20
41.510        27
41.520        40
41.530        13
41.540        33
41.550        20
41.560        33
41.570        47
41.580        33
41.590        40
41.600        40
41.610         7
41.620        27
41.630        20
41.640        33
41.650        20
41.660        33
41.670        13
41.680        47
41.690        40
41.700        33
41.710        27
41.720        27
41.730        20
41.740        33
41.750        27
41.760        47
41.770         0
41.780        53
41.790        53
41.800        33
41.810        27
41.820        27
41.830        20
41.840         7
41.850        27
41.860        53
41.870        40
41.880        13
41.890         7
41.900        33
41.910        33
41.920        20
41.930        27
41.940        13
41.950        27
41.960        33
41.970         7
41.980        47
41.990        27
42.000        27
42.010        33
42.020         7
42.030        27
42.040        27
42.050        47
42.060        20
42.070        40
42.080        40
42.090         7
42.100         7
42.110        20
42.120        27
42.130        67
42.140        13
42.150         7
42.160        20
42.170        27
42.180        47
42.190        13
42.200        40
42.210        27
42.220        40
42.230        40
42.240        47
42.250         7
42.260        40
42.270        20
42.280        13
42.290        27
42.300        13
42.310        20
42.320        20
42.330        40
42.340        27
42.350         7
42.360        27
42.370        27
42.380        27
42.390        27
42.400        20
42.410        27
42.420        40
42.430        27
42.440        33
42.450        20
42.460        20
42.470        33
42.480        33
42.490        47
42.500        40
42.510        47
42.520         7
42.530        27
42.540        33
42.550        27
42.560        20
42.570        27
42.580        27
42.590        27
42.600        27
42.610        40
42.620        40
42.630        33
42.640        27
42.650        13
42.660        27
42.670        20
42.680        33
42.690        33
42.700        13
42.710        27
42.720        33
42.730        33
42.740        27
42.750        20
42.760         7
42.770        13
42.780        13
42.790        40
42.800        27
42.810        40
42.820        60
42.830        53
42.840        73
42.850        33
42.860        13
42.870        47
42.880        33
42.890        27
42.900        33
42.910        27
42.920        27
42.930        20
42.940        20
42.950        20
42.960        33
42.970        40
42.980        47
42.990        27
43.000        27
43.010        27
43.020        13
43.030        27
43.040        40
43.050        27
43.060        40
43.070        13
43.080        47
43.090        20
43.100        13
43.110         0
43.120        27
43.130        60
43.140        27
43.150        20
43.160        33
43.170        40
43.180        40
43.190        13
43.200        27
43.210        13
43.220        33
43.230        13
43.240        40
43.250        13
43.260        13
43.270        20
43.280        40
43.290        27
43.300        40
43.310         7
43.320        33
43.330        33
43.340        27
43.350        40
43.360        33
43.370        47
43.380        20
43.390        27
43.400        27
43.410        20
43.420         7
43.430        20
43.440         7
43.450        13
43.460        20
43.470        20
43.480        27
43.490        20
43.500        33
43.510        40
43.520        27
43.530        40
43.540        13
43.550        33
43.560        20
43.570        40
43.580        27
43.590        40
43.600        20
43.610        33
43.620        27
43.630         7
43.640        40
43.650        33
43.660        13
43.670        13
43.680        13
43.690        27
43.700        20
43.710        53
43.720        20
43.730        27
43.740         7
43.750        47
43.760        20
43.770        27
43.780        33
43.790        13
43.800        27
43.810        33
43.820         7
43.830        27
43.840         0
43.850        27
43.860        47
43.870        33
43.880        33
43.890        33
43.900        13
43.910        27
43.920        27
43.930        47
43.940        20
43.950         7
43.960        47
43.970        33
43.980        53
43.990        20
44.000        13
44.010        40
44.020        13
44.030         7
44.040        13
44.050        40
44.060        33
44.070        20
44.080        27
44.090        33
44.100        20
44.110        27
44.120        40
44.130         0
44.140        13
44.150        40
44.160         7
44.170        33
44.180        53
44.190        20
44.200        33
44.210        27
44.220        27
44.230        20
44.240        27
44.250        60
44.260        27
44.270        27
44.280        40
44.290        33
44.300        53
44.310        40
44.320        33
44.330        47
44.340        20
44.350        40
44.360        20
44.370        27
44.380        20
44.390         7
44.400        33
44.410         7
44.420        20
44.430        47
44.440        20
44.450        47
44.460        13
44.470        33
44.480        13
44.490        40
44.500        47
44.510        13
44.520        40
44.530        47
44.540        20
44.550        27
44.560        13
44.570        47
44.580        13
44.590        13
44.600        47
44.610        27
44.620        20
44.630        40
44.640         7
44.650        33
44.660        27
44.670        20
44.680        27
44.690         7
44.700        33
44.710        40
44.720        33
44.730        20
44.740        67
44.750        27
44.760         7
44.770        27
44.780        20
44.790        27
44.800        40
44.810         7
44.820         7
44.830        20
44.840        27
44.850         7
44.860        13
44.870        27
44.880        53
44.890        27
44.900         7
44.910        47
44.920        27
44.930         7
44.940        40
44.950        20
44.960        20
44.970        33
44.980        20
44.990        13
45.000         7
45.010        33
45.020        40
45.030        33
45.040        47
45.050        13
45.060        13
45.070        33
45.080        33
45.090        33
45.100         7
45.110        47
45.120        27
45.130        20
45.140        20
45.150         7
45.160         7
45.170        20
45.180        27
45.190        27
45.200         7
45.210        20
45.220        20
45.230        40
45.240        40
45.250        20
45.260         7
45.270        40
45.280        47
45.290        13
45.300        13
45.310        13
45.320        60
45.330        40
45.340        33
45.350        13
45.360         7
45.370        40
45.380        33
45.390        40
45.400        20
45.410        40
45.420        20
45.430        20
45.440        33
45.450        47
45.460        20
45.470        20
45.480        20
45.490        33
45.500         7
45.510        20
45.520        40
45.530        33
45.540        27
45.550         7
45.560        33
45.570        20
45.580        20
45.590        13
45.600        33
45.610        27
45.620        13
45.630        47
45.640        53
45.650        47
45.660        40
45.670        27
45.680        40
45.690        40
45.700        13
45.710        13
45.720        20
45.730        13
45.740        40
45.750        27
45.760        33
45.770        47
45.780        27
45.790        27
45.800        33
45.810        40
45.820        33
45.830        20
45.840        47
45.850        67
45.860        27
45.870        40
45.880        20
45.890        53
45.900        53
45.910        60
45.920        27
45.930        47
45.940        27
45.950        33
45.960        40
45.970        40
45.980        40
45.990        73
46.000        40
46.010        67
46.020        33
46.030        73
46.040        73
46.050        73
46.060        47
46.070        47
46.080        67
46.090        47
46.100        20
46.110        80
46.120        67
46.130        53
46.140        53
46.150        73
46.160       120
46.170        73
46.180        53
46.190        67
46.200        40
46.210        87
46.220        60
46.230        47
46.240        53
46.250        47
46.260        60
46.270        47
46.280        53
46.290        40
46.300        40
46.310        87
46.320        33
46.330        47
46.340        33
46.350        60
46.360        67
46.370        67
46.380        67
46.390        33
46.400       113
46.410        53
46.420        47
46.430        60
46.440        40
46.450       107
46.460        33
46.470        93
46.480        67
46.490        33
46.500        80
46.510        53
46.520        67
46.530        67
46.540        47
46.550        27
46.560        47
46.570        33
46.580        53
46.590        53
46.600        53
46.610        67
46.620        47
46.630        20
46.640        60
46.650        27
46.660        13
46.670        40
46.680        40
46.690        33
46.700        40
46.710        60
46.720        33
46.730        60
46.740        60
46.750        47
46.760        13
46.770        40
46.780        53
46.790        67
46.800        67
46.810        47
46.820        67
46.830        47
46.840        53
46.850        73
46.860        73
46.870        47
46.880        33
46.890        53
46.900        40
46.910        47
46.920        40
46.930        33
46.940        67
46.950        40
46.960        53
46.970        27
46.980        27
46.990        33
47.000        60
47.010        73
47.020        47
47.030        47
47.040        40
47.050        73
47.060        53
47.070        53
47.080        67
47.090        93
47.100        60
47.110        60
47.120        80
47.130       107
47.140       147
47.150       153
47.160       260
47.170       387
47.180       420
47.190       506
47.200       460
47.210       520
47.220       387
47.230       333
47.240       320
47.250       213
47.260       113
47.270       113
47.280       127
47.290       100
47.300       107
47.310       100
47.320       107
47.330        80
47.340        60
47.350        67
47.360        67
47.370        53
47.380        67
47.390        73
47.400        20
47.410        53
47.420        33
47.430        47
47.440        53
47.450        53
47.460        33
47.470        40
47.480        33
47.490        20
47.500        27
47.510        40
47.520        33
47.530        40
47.540        27
47.550        33
47.560        27
47.570        33
47.580        33
47.590        60
47.600        47
47.610        53
47.620        47
47.630        13
47.640        27
47.650        20
47.660        13
47.670         0
47.680        33
47.690        40
47.700        20
47.710        60
47.720        53
47.730        53
47.740        33
47.750        20
47.760        53
47.770        60
47.780        20
47.790        27
47.800        33
47.810        60
47.820        33
47.830        47
47.840        20
47.850         7
47.860        27
47.870        20
47.880        27
47.890        47
47.900        20
47.910        27
47.920        33
47.930        33
47.940        20
47.950        27
47.960        33
47.970        40
47.980        20
47.990        13
48.000        20
48.010        40
48.020        40
48.030        13
48.040        20
48.050        27
48.060        40
48.070        20
48.080        33
48.090         7
48.100        33
48.110        27
48.120        13
48.130        40
48.140        27
48.150         0
48.160        33
48.170        33
48.180         7
48.190        13
48.200        33
48.210         7
48.220        33
48.230        40
48.240        13
48.250        53
48.260        20
48.270        27
48.280         7
48.290         7
48.300        40
48.310        33
48.320        20
48.330         7
48.340        20
48.350        33
48.360        20
48.370        33
48.380        27
48.390        20
48.400        20
48.410        13
48.420        47
48.430        33
48.440        13
48.450        47
48.460        53
48.470        47
48.480        13
48.490        13
48.500        13
48.510        33
48.520         7
48.530        13
48.540        20
48.550        27
48.560        33
48.570        40
48.580        33
48.590         0
48.600        60
48.610        27
48.620        27
48.630        33
48.640        27
48.650        33
48.660        33
48.670        33
48.680        13
48.690        13
48.700        27
48.710         7
48.720        40
48.730        27
48.740        40
48.750        20
48.760        20
48.770        20
48.780        27
48.790        73
48.800        27
48.810        27
48.820         7
48.830        27
48.840        33
48.850        27
48.860         7
48.870        20
48.880        33
48.890        47
48.900        27
48.910         7
48.920        20
48.930        27
48.940        53
48.950        20
48.960        20
48.970        13
48.980        20
48.990        27
49.000        27
49.010        27
49.020        13
49.030        13
49.040        67
49.050        33
49.060        27
49.070        33
49.080        47
49.090        20
49.100        27
49.110        20
49.120        20
49.130        27
49.140        27
49.150        13
49.160        13
49.170        13
49.180        33
49.190        27
49.200        47
49.210        13
49.220        33
49.230        40
49.240        20
49.250        13
49.260        20
49.270        33
49.280        47
49.290        13
49.300        47
49.310        13
49.320        33
49.330        33
49.340        13
49.350        20
49.360         7
49.370        20
49.380        13
49.390         7
49.400        33
49.410        53
49.420        13
49.430        27
49.440        13
49.450        33
49.460        27
49.470        47
49.480         7
49.490        13
49.500        13
49.510        27
49.520        53
49.530        13
49.540        20
49.550        27
49.560        20
49.570        40
49.580        47
49.590        40
49.600        40
49.610        20
49.620        33
49.630         7
49.640        27
49.650        33
49.660        33
49.670        13
49.680        47
49.690        13
49.700        47
49.710         7
49.720        40
49.730         7
49.740        73
49.750        60
49.760        20
49.770        33
49.780        27
49.790         7
49.800        27
49.810        27
49.820        20
49.830        27
49.840        27
49.850        13
49.860        27
49.870         0
49.880        40
49.890        20
49.900        27
49.910        40
49.920        20
49.930        27
49.940        27
49.950        27
49.960        13
49.970         7
49.980        40
49.990        67
50.000        20
50.010        13
50.020        20
50.030        27
50.040        20
50.050        33
50.060        20
50.070         7
50.080        27
50.090        60
50.100        40
50.110        20
50.120        47
50.130        20
50.140        27
50.150        20
50.160         7
50.170        27
50.180        20
50.190        53
50.200        33
50.210        13
50.220        33
50.230        13
50.240        27
50.250        13
50.260        33
50.270        27
50.280        40
50.290        20
50.300        33
50.310        13
50.320        33
50.330        40
50.340        27
50.350        47
50.360        27
50.370        13
50.380        20
50.390        40
50.400        47
50.410        33
50.420         0
50.430        27
50.440        33
50.450        33
50.460         7
50.470        27
50.480        13
50.490        20
50.500        27
50.510        20
50.520        13
50.530        27
50.540        27
50.550         0
50.560        53
50.570        13
50.580        27
50.590        33
50.600        20
50.610        33
50.620        60
50.630        47
50.640        13
50.650        27
50.660        73
50.670        53
50.680        80
50.690       100
50.700       107
50.710        93
50.720       100
50.730        73
50.740       113
50.750       113
50.760       133
50.770        93
50.780       180
50.790       167
50.800       133
50.810       133
50.820       120
50.830       100
50.840       147
50.850       113
50.860       153
50.870       113
50.880       120
50.890       207
50.900       120
50.910       160
50.920       100
50.930       120
50.940       100
50.950        93
50.960       113
50.970        80
50.980       120
50.990       140
51.000        87
51.010       120
51.020       100
51.030       167
51.040       147
51.050       193
51.060        93
51.070       153
51.080       153
51.090       133
51.100       140
51.110       120
51.120       160
51.130       147
51.140       120
51.150       140
51.160       100
51.170       167
51.180       153
51.190       147
51.200       140
51.210       200
51.220       133
51.230       167
51.240       147
51.250       107
51.260        93
51.270       167
51.280       107
51.290       147
51.300       133
51.310       233
51.320       100
51.330       127
51.340       167
51.350       140
51.360       107
51.370       147
51.380       153
51.390       120
51.400       127
51.410       147
51.420       107
51.430       113
51.440       133
51.450       120
51.460       160
51.470       187
51.480       147
51.490       127
51.500       133
51.510       120
51.520       120
51.530       100
51.540       120
51.550       120
51.560       107
51.570       147
51.580       120
51.590       173
51.600       133
51.610       153
51.620       133
51.630       160
51.640       167
51.650       147
51.660       187
51.670       247
51.680       147
51.690       153
51.700       153
51.710       173
51.720       187
51.730       187
51.740       120
51.750       133
51.760       140
51.770       173
51.780       213
51.790       140
51.800       127
51.810       187
51.820       127
51.830       167
51.840       140
51.850       160
51.860       147
51.870       173
51.880       153
51.890       207
51.900       173
51.910       187
51.920       153
51.930       153
51.940       200
51.950       233
51.960       207
51.970       227
51.980       127
51.990       233
52.000       220
52.010       153
52.020       147
52.030       153
52.040       147
52.050       173
52.060       220
52.070       287
52.080       213
52.090       233
52.100       233
52.110       140
52.120       247
52.130       187
52.140       213
52.150       313
52.160       333
52.170       227
52.180       240
52.190       320
52.200       253
52.210       253
52.220       313
52.230       280
52.240       360
52.250       387
52.260       333
52.270       526
52.280       500
52.290       506
52.300       540
52.310       740
52.320       773
52.330       706
52.340       766
52.350       906
52.360      1100
52.370       866
52.380      1033
52.390       960
52.400       960
52.410      1080
52.420      1093
52.430      1013
52.440      1080
52.450      1273
52.460      1546
52.470      1659
52.480      2119
52.490      2292
52.500      2912
52.510      3798
52.520      5405
52.530      7650
52.540     12622
52.550     21118
52.560     33780
52.570     47061
52.580     57943
52.590     61815
52.600     63854
52.610     59943
52.620     53892
52.630     40897
52.640     27636
52.650     18619
52.660     12941
52.670     11442
52.680     11982
52.690     16560
52.700     21865
52.710     27989
52.720     32314
52.730     33780
52.740     34273
52.750     33233
52.760     29022
52.770     22091
52.780     15321
52.790      9876
52.800      6238
52.810      4918
52.820      3858
52.830      3559
52.840      3445
52.850      2652
52.860      2286
52.870      1979
52.880      1853
52.890      1513
52.900      1160
52.910       986
52.920       860
52.930       746
52.940       593
52.950       640
52.960       720
52.970       500
52.980       413
52.990       460
53.000       493
53.010       500
53.020       520
53.030       426
53.040       400
53.050       353
53.060       293
53.070       347
53.080       300
53.090       260
53.100       320
53.110       347
53.120       273
53.130       280
53.140       247
53.150       293
53.160       280
53.170       267
53.180       253
53.190       253
53.200       273
53.210       240
53.220       327
53.230       327
53.240       233
53.250       173
53.260       193
53.270       207
53.280       187
53.290       220
53.300       267
53.310       220
53.320       200
53.330       300
53.340       207
53.350       167
53.360       140
53.370       147
53.380       127
53.390       153
53.400       233
53.410       187
53.420       140
53.430       160
53.440       147
53.450       167
53.460       207
53.470       133
53.480       147
53.490       153
53.500       153
53.510       207
53.520       153
53.530       160
53.540       233
53.550       107
53.560       140
53.570       140
53.580        60
53.590       153
53.600       173
53.610       147
53.620       147
53.630       173
53.640       113
53.650       180
53.660       133
53.670       120
53.680       160
53.690       173
53.700       120
53.710       140
53.720       180
53.730       160
53.740       160
53.750       140
53.760       113
53.770       133
53.780       153
53.790       193
53.800        87
53.810       140
53.820       193
53.830       120
53.840       140
53.850       147
53.860       133
53.870       113
53.880       180
53.890       113
53.900        67
53.910        93
53.920       160
53.930        87
53.940       187
53.950       153
53.960       120
53.970       127
53.980       100
53.990        73
54.000       113
54.010       153
54.020       100
54.030       100
54.040       140
54.050       127
54.060       133
54.070        93
54.080        73
54.090        67
54.100       120
54.110        93
54.120       133
54.130        93
54.140       160
54.150       120
54.160        60
54.170       147
54.180       107
54.190        93
54.200       107
54.210        93
54.220       133
54.230       120
54.240       113
54.250        87
54.260       113
54.270        93
54.280       113
54.290        60
54.300        93
54.310        73
54.320       147
54.330       153
54.340       113
54.350       107
54.360        73
54.370       133
54.380       133
54.390       127
54.400        60
54.410        80
54.420       100
54.430        67
54.440       127
54.450        47
54.460        93
54.470       100
54.480        40
54.490       147
54.500        53
54.510        67
54.520       153
54.530       107
54.540       113
54.550        87
54.560        80
54.570       107
54.580        60
54.590       113
54.600        60
54.610       107
54.620        93
54.630       133
54.640       107
54.650       133
54.660       113
54.670        80
54.680        80
54.690        87
54.700        40
54.710       120
54.720        40
54.730       100
54.740        87
54.750       100
54.760        73
54.770       127
54.780        87
54.790       113
54.800       127
54.810        87
54.820        60
54.830        73
54.840        87
54.850       120
54.860       127
54.870       100
54.880       113
54.890        53
54.900        60
54.910        73
54.920        40
54.930        93
54.940        67
54.950        80
54.960       107
54.970       107
54.980       107
54.990       147
55.000        53
55.010        53
55.020       127
55.030       100
55.040        73
55.050        73
55.060       107
55.070        87
55.080        67
55.090       107
55.100        87
55.110        80
55.120        53
55.130        80
55.140        80
55.150        87
55.160       120
55.170        87
55.180        73
55.190        80
55.200       100
55.210        67
55.220        87
55.230        67
55.240        53
55.250        93
55.260        93
55.270       107
55.280       133
55.290       140
55.300        67
55.310        73
55.320        60
55.330        53
55.340        87
55.350        60
55.360        67
55.370       120
55.380        73
55.390       140
55.400       100
55.410        80
55.420        73
55.430        60
55.440        53
55.450        60
55.460        93
55.470       107
55.480        80
55.490        93
55.500        27
55.510       100
55.520        67
55.530        53
55.540        80
55.550        87
55.560        47
55.570        80
55.580        47
55.590       120
55.600        80
55.610        87
55.620        40
55.630       100
55.640        33
55.650        53
55.660        73
55.670        73
55.680        47
55.690        80
55.700        53
55.710        27
55.720        73
55.730        53
55.740       100
55.750        60
55.760        47
55.770        67
55.780        80
55.790        93
55.800        87
55.810        53
55.820        60
55.830        53
55.840        80
55.850        67
55.860        40
55.870        73
55.880        67
55.890        80
55.900        27
55.910        87
55.920        53
55.930        80
55.940        53
55.950        93
55.960        73
55.970        47
55.980        93
55.990        87
56.000        73
56.010        60
56.020        67
56.030       107
56.040        87
56.050        67
56.060        67
56.070        80
56.080        80
56.090        47
56.100        80
56.110       100
56.120        40
56.130        80
56.140        20
56.150        67
56.160        73
56.170        73
56.180        80
56.190        80
56.200       100
56.210       100
56.220        73
56.230        67
56.240        67
56.250       113
56.260        73
56.270       100
56.280        73
56.290        87
56.300        73
56.310       107
56.320        13
56.330        73
56.340       113
56.350       107
56.360        73
56.370        67
56.380        67
56.390        67
56.400        60
56.410        47
56.420        60
56.430        53
56.440       127
56.450        47
56.460        33
56.470        47
56.480        73
56.490        87
56.500        87
56.510       107
56.520        27
56.530        67
56.540        47
56.550        87
56.560        87
56.570        40
56.580        40
56.590        93
56.600        27
56.610        47
56.620        47
56.630        60
56.640        53
56.650        87
56.660        33
56.670        80
56.680        93
56.690        60
56.700        87
56.710        73
56.720        73
56.730        27
56.740        47
56.750       107
56.760       107
56.770        73
56.780        53
56.790        87
56.800        60
56.810        40
56.820        67
56.830        87
56.840        40
56.850        47
56.860        87
56.870        53
56.880        47
56.890        53
56.900        73
56.910        40
56.920        53
56.930        47
56.940        73
56.950       107
56.960        47
56.970        33
56.980        53
56.990        73
57.000        60
57.010        40
57.020        73
57.030        67
57.040        80
57.050        60
57.060        40
57.070        33
57.080        87
57.090        67
57.100        47
57.110        20
57.120        80
57.130        80
57.140        47
57.150        87
57.160        80
57.170        47
57.180        27
57.190        73
57.200       100
57.210        93
57.220        53
57.230        67
57.240        73
57.250        80
57.260        87
57.270        47
57.280        60
57.290        80
57.300        53
57.310        80
57.320        67
57.330        67
57.340       100
57.350        73
57.360        47
57.370        53
57.380        87
57.390        47
57.400        87
57.410        87
57.420        67
57.430       107
57.440        60
57.450        67
57.460        67
57.470        60
57.480        73
57.490        93
57.500        87
57.510        67
57.520        80
57.530        53
57.540        53
57.550        40
57.560        47
57.570        60
57.580        53
57.590        60
57.600       100
57.610        73
57.620        53
57.630       100
57.640        53
57.650        87
57.660        67
57.670       113
57.680        60
57.690        40
57.700        40
57.710        53
57.720        87
57.730        67
57.740        73
57.750        47
57.760        67
57.770        93
57.780        67
57.790        47
57.800        33
57.810        73
57.820        53
57.830        67
57.840        53
57.850        40
57.860        73
57.870        73
57.880        87
57.890        60
57.900        67
57.910        47
57.920        47
57.930        33
57.940        47
57.950        87
57.960        87
57.970        47
57.980        47
57.990        73
58.000        47
58.010        40
58.020        53
58.030        80
58.040        40
58.050        80
58.060        40
58.070        87
58.080        73
58.090        40
58.100        73
58.110        40
58.120        40
58.130        60
58.140        73
58.150        47
58.160        53
58.170        73
58.180        47
58.190        80
58.200        40
58.210        33
58.220        60
58.230        60
58.240        67
58.250        93
58.260        40
58.270        40
58.280        47
58.290        60
58.300        53
58.310        73
58.320        87
58.330        60
58.340        93
58.350        60
58.360        27
58.370        53
58.380        33
58.390        60
58.400        33
58.410        67
58.420        33
58.430        73
58.440        33
58.450        47
58.460        33
58.470        53
58.480        53
58.490        73
58.500        33
58.510        73
58.520        67
58.530        27
58.540        47
58.550        73
58.560        53
58.570        27
58.580        80
58.590        60
58.600        33
58.610        20
58.620        40
58.630        20
58.640        47
58.650        33
58.660        40
58.670        47
58.680        60
58.690        33
58.700        47
58.710        27
58.720        20
58.730        53
58.740        47
58.750        60
58.760        20
58.770        20
58.780        20
58.790        40
58.800        60
58.810        27
58.820        53
58.830        47
58.840        47
58.850        33
58.860        13
58.870        53
58.880        60
58.890        60
58.900        47
58.910        47
58.920        40
58.930        40
58.940        53
58.950        53
58.960        53
58.970        53
58.980        47
58.990        67
59.000        40
59.010        73
59.020        47
59.030        60
59.040        47
59.050        53
59.060        33
59.070        73
59.080        80
59.090        60
59.100        73
59.110        80
59.120        40
59.130        47
59.140        33
59.150        60
59.160        40
59.170        53
59.180        53
59.190        40
59.200        60
59.210        53
59.220        87
59.230        47
59.240        53
59.250        40
59.260        40
59.270        40
59.280        60
59.290        47
59.300        40
59.310        20
59.320        27
59.330        33
59.340        47
59.350        93
59.360        53
59.370        73
59.380        47
59.390        60
59.400        73
59.410        53
59.420        40
59.430        40
59.440        60
59.450        60
59.460        33
59.470        53
59.480        27
59.490        47
59.500        33
59.510        40
59.520        40
59.530        93
59.540        53
59.550        40
59.560        60
59.570        47
59.580        93
59.590        40
59.600        53
59.610        60
59.620        80
59.630        67
59.640        53
59.650        53
59.660        53
59.670        40
59.680        67
59.690        60
59.700        73
59.710        53
59.720        27
59.730        53
59.740        47
59.750        60
59.760        47
59.770        60
59.780        53
59.790        40
59.800        40
59.810        33
59.820        27
59.830        53
59.840        60
59.850        53
59.860        67
59.870        53
59.880        33
59.890        87
59.900        47
59.910        67
59.920        53
59.930        40
59.940        47
59.950        33
59.960        40
59.970        47
59.980        13
59.990        13
60.000        47
