20.000        47
20.010        73
20.020        47
20.030        40
20.040        53
20.050        33
20.060        67
20.070        27
20.080        53
20.090        20
20.100        47
20.110        27
20.120        47
20.130        67
20.140        67
20.150        53
20.160        33
20.170        47
20.180        27
20.190        67
20.200        80
20.210        47
20.220        13
20.230        47
20.240        27
20.250        60
20.260        60
20.270        47
20.280        60
20.290        40
20.300        73
20.310        67
20.320        20
20.330         7
20.340        60
20.350        27
20.360        33
20.370        27
20.380        33
20.390        40
20.400        47
20.410        87
20.420        67
20.430        33
20.440        40
20.450        67
20.460        40
20.470        67
20.480        33
20.490        60
20.500        47
20.510        53
20.520        87
20.530        67
20.540        73
20.550        20
20.560        73
20.570        80
20.580        27
20.590        60
20.600        20
20.610        53
20.620        27
20.630        40
20.640        27
20.650        53
20.660        20
20.670        47
20.680        47
20.690        87
20.700        73
20.710        93
20.720        73
20.730        53
20.740        73
20.750        60
20.760        13
20.770        47
20.780        27
20.790        20
20.800        53
20.810        47
20.820        47
20.830        87
20.840        20
20.850        67
20.860        67
20.870        73
20.880        80
20.890        47
20.900        47
20.910        33
20.920        40
20.930        33
20.940        40
20.950         7
20.960        20
20.970        20
20.980        20
20.990        93
21.000        40
21.010        60
21.020        67
21.030        20
21.040        73
21.050        33
21.060        33
21.070        73
21.080        80
21.090        47
21.100        33
21.110        47
21.120       100
21.130        27
21.140        33
21.150        40
21.160        27
21.170        20
21.180        47
21.190        47
21.200        27
21.210        40
21.220        40
21.230        27
21.240        67
21.250        33
21.260        33
21.270        80
21.280        13
21.290        67
21.300        60
21.310        53
21.320        67
21.330        33
21.340        53
21.350        20
21.360        27
21.370        60
21.380        33
21.390        40
21.400        47
21.410        60
21.420        47
21.430        67
21.440        27
21.450        53
21.460        40
21.470        73
21.480        73
21.490        47
21.500        73
21.510        67
21.520       107
21.530        93
21.540       140
21.550       107
21.560       147
21.570       200
21.580        80
21.590       187
21.600       187
21.610       147
21.620       133
21.630       153
21.640       347
21.650       227
21.660       247
21.670       253
21.680       253
21.690       367
21.700       520
21.710       420
21.720       426
21.730       433
21.740       380
21.750       460
21.760       473
21.770       340
21.780       440
21.790       240
21.800       320
21.810       247
21.820       200
21.830       127
21.840       173
21.850       127
21.860       120
21.870        60
21.880       113
21.890       107
21.900        60
21.910        47
21.920        33
21.930        80
21.940        73
21.950        40
21.960        53
21.970        40
21.980        27
21.990        27
22.000        47
22.010        80
22.020        60
22.030        53
22.040        27
22.050        33
22.060        13
22.070        60
22.080        60
22.090        33
22.100        60
22.110        60
22.120        47
22.130        33
22.140        33
22.150        27
22.160        33
22.170        40
22.180        33
22.190        53
22.200        47
22.210        40
22.220        40
22.230        53
22.240        40
22.250        27
22.260        67
22.270        33
22.280        40
22.290        47
22.300        13
22.310        27
22.320        20
22.330        20
22.340        67
22.350        67
22.360        40
22.370        40
22.380        40
22.390        40
22.400        20
22.410        67
22.420        13
22.430         7
22.440        40
22.450        60
22.460        20
22.470        53
22.480        60
22.490        40
22.500        60
22.510        27
22.520        53
22.530        53
22.540        47
22.550        47
22.560        33
22.570        47
22.580        47
22.590        47
22.600        33
22.610        47
22.620        47
22.630        33
22.640        47
22.650        67
22.660        40
22.670        40
22.680        47
22.690        27
22.700        53
22.710        60
22.720        13
22.730        53
22.740        27
22.750        47
22.760        47
22.770        13
22.780        20
22.790        20
22.800        20
22.810        13
22.820        53
22.830        47
22.840        40
22.850        33
22.860        40
22.870        40
22.880        33
22.890        47
22.900        20
22.910        60
22.920        27
22.930        47
22.940        27
22.950        73
22.960        33
22.970        27
22.980        20
22.990        73
23.000        27
23.010        47
23.020        40
23.030        40
23.040        27
23.050        40
23.060        73
23.070        33
23.080        60
23.090        20
23.100        40
23.110        53
23.120        27
23.130        60
23.140        40
23.150        27
23.160        20
23.170        20
23.180        47
23.190        53
23.200        40
23.210        27
23.220        67
23.230        47
23.240        27
23.250        33
23.260        47
23.270        40
23.280        33
23.290        13
23.300        27
23.310        33
23.320        40
23.330        60
23.340        33
23.350        67
23.360         7
23.370        33
23.380        33
23.390        40
23.400        47
23.410        53
23.420        20
23.430        53
23.440        27
23.450        33
23.460        20
23.470        40
23.480        27
23.490        27
23.500        60
23.510        47
23.520        27
23.530        47
23.540        27
23.550        33
23.560        40
23.570        33
23.580        33
23.590        40
23.600        27
23.610        20
23.620        33
23.630        80
23.640        47
23.650        47
23.660        40
23.670        67
23.680        27
23.690        27
23.700        27
23.710        20
23.720        47
23.730        20
23.740        60
23.750        27
23.760        47
23.770        33
23.780        67
23.790        40
23.800        27
23.810        33
23.820        40
23.830        27
23.840        40
23.850        47
23.860        40
23.870        33
23.880        73
23.890        47
23.900        40
23.910        27
23.920        67
23.930        60
23.940        40
23.950        67
23.960        40
23.970        53
23.980        33
23.990        47
24.000        47
24.010        13
24.020        60
24.030        40
24.040        20
24.050        33
24.060        60
24.070        33
24.080        33
24.090        60
24.100        40
24.110        27
24.120        73
24.130        40
24.140        20
24.150        20
24.160        47
24.170        40
24.180        33
24.190        27
24.200        27
24.210        20
24.220        33
24.230        47
24.240        27
24.250        60
24.260        33
24.270        47
24.280        27
24.290        20
24.300        60
24.310        27
24.320        27
24.330        33
24.340        47
24.350        40
24.360        33
24.370        47
24.380        27
24.390        47
24.400        40
24.410        20
24.420        40
24.430        20
24.440        53
24.450        27
24.460         7
24.470         0
24.480        47
24.490        67
24.500        20
24.510        33
24.520         0
24.530        47
24.540        53
24.550        53
24.560        53
24.570        67
24.580        47
24.590        53
24.600        27
24.610        13
24.620        27
24.630        47
24.640        47
24.650        33
24.660        47
24.670        20
24.680        13
24.690        67
24.700        27
24.710        40
24.720        47
24.730        40
24.740        27
24.750        60
24.760        20
24.770        13
24.780        40
24.790        60
24.800        40
24.810        20
24.820        47
24.830        13
24.840        27
24.850        40
24.860        47
24.870        33
24.880        47
24.890        20
24.900        27
24.910         7
24.920        33
24.930        20
24.940        27
24.950        20
24.960        67
24.970        20
24.980        47
24.990        60
25.000        33
25.010        33
25.020        20
25.030        27
25.040        33
25.050        33
25.060        20
25.070        27
25.080        47
25.090        53
25.100        27
25.110        40
25.120        47
25.130        27
25.140        40
25.150        27
25.160        60
25.170        27
25.180        40
25.190        47
25.200        67
25.210         7
25.220        47
25.230        33
25.240        67
25.250        40
25.260        20
25.270        27
25.280        13
25.290        40
25.300        13
25.310        20
25.320        53
25.330        67
25.340        13
25.350        60
25.360        60
25.370        13
25.380        40
25.390        20
25.400        27
25.410        53
25.420        53
25.430         7
25.440        33
25.450        27
25.460        40
25.470       100
25.480        47
25.490        67
25.500       100
25.510        53
25.520        67
25.530        87
25.540        67
25.550        67
25.560        93
25.570        53
25.580        73
25.590        53
25.600        80
25.610        80
25.620        27
25.630        93
25.640        67
25.650        33
25.660        33
25.670        40
25.680        27
25.690        47
25.700        27
25.710        40
25.720        20
25.730        13
25.740        40
25.750        33
25.760        27
25.770        20
25.780        67
25.790        13
25.800         7
25.810        20
25.820        33
25.830        47
25.840        20
25.850        13
25.860        27
25.870        40
25.880        20
25.890        33
25.900        33
25.910        40
25.920        20
25.930        20
25.940        60
25.950        40
25.960        53
25.970        40
25.980        47
25.990        13
26.000        27
26.010        13
26.020        33
26.030        33
26.040        53
26.050        20
26.060        33
26.070        33
26.080        93
26.090        27
26.100        47
26.110        27
26.120        40
26.130        47
26.140        40
26.150        40
26.160        20
26.170        13
26.180        40
26.190         7
26.200        47
26.210        20
26.220        60
26.230        13
26.240        20
26.250        47
26.260        20
26.270        20
26.280        60
26.290        53
26.300        20
26.310        20
26.320        20
26.330        40
26.340        27
26.350        13
26.360        27
26.370        53
26.380        27
26.390        13
26.400        20
26.410        20
26.420        13
26.430        33
26.440        33
26.450        27
26.460        13
26.470        13
26.480        33
26.490        40
26.500        33
26.510        20
26.520        40
26.530        33
26.540        27
26.550        20
26.560        27
26.570        33
26.580         7
26.590        40
26.600        33
26.610        47
26.620        33
26.630        33
26.640        20
26.650        27
26.660        27
26.670        47
26.680        20
26.690        40
26.700        27
26.710        33
26.720        33
26.730        27
26.740        13
26.750        33
26.760        40
26.770        33
26.780        33
26.790        47
26.800        20
26.810        60
26.820        33
26.830        53
26.840        27
26.850        13
26.860        40
26.870        33
26.880        27
26.890        20
26.900        13
26.910        40
26.920        13
26.930        27
26.940        40
26.950        40
26.960        27
26.970        53
26.980        40
26.990        67
27.000        33
27.010        27
27.020        20
27.030        27
27.040        33
27.050        40
27.060        13
27.070        33
27.080        53
27.090        40
27.100        27
27.110        13
27.120        13
27.130        40
27.140        20
27.150        40
27.160        20
27.170        53
27.180        13
27.190        20
27.200        13
27.210        80
27.220        27
27.230        47
27.240        33
27.250        47
27.260        40
27.270        40
27.280        27
27.290        13
27.300        33
27.310        20
27.320        47
27.330        13
27.340        47
27.350        13
27.360        47
27.370        20
27.380        33
27.390        40
27.400        40
27.410        13
27.420         7
27.430        40
27.440        33
27.450        20
27.460        40
27.470        33
27.480        20
27.490         7
27.500        20
27.510        27
27.520        27
27.530        27
27.540        47
27.550        33
27.560        33
27.570        53
27.580        33
27.590        27
27.600        13
27.610        27
27.620        27
27.630        27
27.640        27
27.650        13
27.660        33
27.670        27
27.680        40
27.690        13
27.700        33
27.710        53
27.720        27
27.730        53
27.740        13
27.750        27
27.760        47
27.770         7
27.780        60
27.790        27
27.800        60
27.810        53
27.820        67
27.830        67
27.840        60
27.850        53
27.860        40
27.870        47
27.880        80
27.890        33
27.900        27
27.910        60
27.920        73
27.930        67
27.940        33
27.950        33
27.960        13
27.970        53
27.980        73
27.990        53
28.000        20
28.010         7
28.020         7
28.030        13
28.040        40
28.050        33
28.060        13
28.070        13
28.080        40
28.090        40
28.100        47
28.110        13
28.120        13
28.130        20
28.140        27
28.150        27
28.160         7
28.170        40
28.180        27
28.190        27
28.200        20
28.210        33
28.220        33
28.230        40
28.240         7
28.250        40
28.260        27
28.270         7
28.280        47
28.290        47
28.300        33
28.310        20
28.320        13
28.330        40
28.340        13
28.350        33
28.360        33
28.370        47
28.380        13
28.390        27
28.400        27
28.410        33
28.420        67
28.430        20
28.440        33
28.450        33
28.460         7
28.470        40
28.480        60
28.490        20
28.500         7
28.510        33
28.520        33
28.530        20
28.540        27
28.550        20
28.560        60
28.570        20
28.580        33
28.590        47
28.600        27
28.610        13
28.620        27
28.630        13
28.640        13
28.650        20
28.660        13
28.670        40
28.680        20
28.690        27
28.700        33
28.710        40
28.720        40
28.730        40
28.740        27
28.750        40
28.760        73
28.770        33
28.780        40
28.790        47
28.800         7
28.810         7
28.820         0
28.830        40
28.840        20
28.850        13
28.860         7
28.870        20
28.880        27
28.890        27
28.900        20
28.910        20
28.920        40
28.930        53
28.940        20
28.950        13
28.960        33
28.970        27
28.980        27
28.990        27
29.000        47
29.010        20
29.020        40
29.030        13
29.040        47
29.050        33
29.060        13
29.070        13
29.080        20
29.090        13
29.100        53
29.110        33
29.120        33
29.130        33
29.140        33
29.150        27
29.160        33
29.170        13
29.180        47
29.190        33
29.200        13
29.210        40
29.220        40
29.230        20
29.240         7
29.250        13
29.260        27
29.270        20
29.280        27
29.290        13
29.300        27
29.310         7
29.320        27
29.330        27
29.340        13
29.350         7
29.360        20
29.370        53
29.380        27
29.390        33
29.400        27
29.410        20
29.420        47
29.430        53
29.440        33
29.450        40
29.460        33
29.470        33
29.480        33
29.490        13
29.500        33
29.510        33
29.520        27
29.530        13
29.540        40
29.550        40
29.560        40
29.570        53
29.580        13
29.590        13
29.600         7
29.610        33
29.620        73
29.630        27
29.640        33
29.650        40
29.660        27
29.670        47
29.680        27
29.690        40
29.700        40
29.710        40
29.720        60
29.730        20
29.740        33
29.750        20
29.760        53
29.770        47
29.780        13
29.790        53
29.800        33
29.810        20
29.820        40
29.830        13
29.840        60
29.850        73
29.860        20
29.870        60
29.880        60
29.890        27
29.900        33
29.910        20
29.920        60
29.930        73
29.940        40
29.950        47
29.960        80
29.970        40
29.980        33
29.990        33
30.000        80
30.010        67
30.020        53
30.030        40
30.040        40
30.050        80
30.060        20
30.070        40
30.080        20
30.090        53
30.100        33
30.110        40
30.120        47
30.130        67
30.140        13
30.150        33
30.160        60
30.170        40
30.180        53
30.190        27
30.200        33
30.210        40
30.220        27
30.230        60
30.240        87
30.250        33
30.260        47
30.270        40
30.280        40
30.290        53
30.300        20
30.310        67
30.320        27
30.330        40
30.340        40
30.350        27
30.360        53
30.370        67
30.380        27
30.390        47
30.400        27
30.410        47
30.420        73
30.430        47
30.440        60
30.450        53
30.460        47
30.470        47
30.480        93
30.490        47
30.500        40
30.510        67
30.520        67
30.530        67
30.540       133
30.550        67
30.560        53
30.570        53
30.580        80
30.590       107
30.600        80
30.610       127
30.620       107
30.630        80
30.640       147
30.650       173
30.660       133
30.670       207
30.680       153
30.690       160
30.700       200
30.710       273
30.720       347
30.730       506
30.740       420
30.750       480
30.760       553
30.770       680
30.780       653
30.790       666
30.800       900
30.810       993
30.820      1233
30.830      1446
30.840      1566
30.850      1779
30.860      2006
30.870      1959
30.880      2532
30.890      2432
30.900      2899
30.910      3225
30.920      3045
30.930      3685
30.940      3805
30.950      3539
30.960      3639
30.970      3512
30.980      3765
30.990      3279
31.000      3299
31.010      2852
31.020      2786
31.030      2486
31.040      2086
31.050      1866
31.060      1599
31.070      1333
31.080      1193
31.090       953
31.100       700
31.110       806
31.120       586
31.130       393
31.140       480
31.150       273
31.160       233
31.170       213
31.180       173
31.190       153
31.200       180
31.210       127
31.220       120
31.230       120
31.240       113
31.250        93
31.260        80
31.270        93
31.280       120
31.290        53
31.300       120
31.310        67
31.320        53
31.330        53
31.340        73
31.350        40
31.360        47
31.370        60
31.380        47
31.390        53
31.400        87
31.410        33
31.420        53
31.430        40
31.440        33
31.450        40
31.460        80
31.470        80
31.480        80
31.490        53
31.500        60
31.510        40
31.520        73
31.530        87
31.540        47
31.550        33
31.560        53
31.570        47
31.580        47
31.590        47
31.600        73
31.610        53
31.620        47
31.630        40
31.640        47
31.650        47
31.660        27
31.670        13
31.680        53
31.690        20
31.700        53
31.710        80
31.720        53
31.730        40
31.740        20
31.750        40
31.760        40
31.770        53
31.780        67
31.790       113
31.800        47
31.810        60
31.820        33
31.830        33
31.840         7
31.850        40
31.860        13
31.870        27
31.880        33
31.890        47
31.900        33
31.910        27
31.920        67
31.930        33
31.940        27
31.950        27
31.960        27
31.970        47
31.980        67
31.990        40
32.000         7
32.010        40
32.020        27
32.030        33
32.040        33
32.050        20
32.060        40
32.070        40
32.080        27
32.090        27
32.100         7
32.110        47
32.120        53
32.130        13
32.140        60
32.150        27
32.160        27
32.170        20
32.180        60
32.190        67
32.200        53
32.210        60
32.220        13
32.230        20
32.240        47
32.250        60
32.260        20
32.270        67
32.280        67
32.290        47
32.300        40
32.310        27
32.320        40
32.330        40
32.340        40
32.350        60
32.360        60
32.370        40
32.380        47
32.390        20
32.400        33
32.410        27
32.420        53
32.430        40
32.440        53
32.450        27
32.460        53
32.470        40
32.480        33
32.490        47
32.500        33
32.510        53
32.520        13
32.530        33
32.540        20
32.550        27
32.560        40
32.570        27
32.580        27
32.590        40
32.600        53
32.610        40
32.620        27
32.630        33
32.640        40
32.650        60
32.660        13
32.670        33
32.680        13
32.690        33
32.700        53
32.710        13
32.720        53
32.730        53
32.740        33
32.750        67
32.760        13
32.770        47
32.780        20
32.790        47
32.800        27
32.810        47
32.820         7
32.830        27
32.840        67
32.850        20
32.860        27
32.870        47
32.880        40
32.890        53
32.900        20
32.910        27
32.920        33
32.930        33
32.940        27
32.950        47
32.960        27
32.970        33
32.980        33
32.990        40
33.000        13
33.010        67
33.020        33
33.030        33
33.040        47
33.050        27
33.060        33
33.070        47
33.080         7
33.090        27
33.100        40
33.110        53
33.120        20
33.130        20
33.140        33
33.150        20
33.160        40
33.170        27
33.180        47
33.190        40
33.200        20
33.210        27
33.220        53
33.230        20
33.240        47
33.250        53
33.260        40
33.270        53
33.280        47
33.290        53
33.300        40
33.310        33
33.320        20
33.330        27
33.340        13
33.350        47
33.360        20
33.370        67
33.380        60
33.390        47
33.400        33
33.410        33
33.420        40
33.430        27
33.440        33
33.450        33
33.460        33
33.470        33
33.480        40
33.490        20
33.500        33
33.510        47
33.520        47
33.530        33
33.540        20
33.550        40
33.560        33
33.570        20
33.580        47
33.590        47
33.600        40
33.610        13
33.620        47
33.630        60
33.640        27
33.650        27
33.660        33
33.670        67
33.680        60
33.690        33
33.700        47
33.710        40
33.720        47
33.730        13
33.740        60
33.750        27
33.760        33
33.770        53
33.780        27
33.790        13
33.800        33
33.810        13
33.820        33
33.830        20
33.840        60
33.850        27
33.860        27
33.870        13
33.880         7
33.890        27
33.900        20
33.910        40
33.920        27
33.930        53
33.940        20
33.950        40
33.960        20
33.970        20
33.980        33
33.990        53
34.000        13
34.010        20
34.020        20
34.030        27
34.040        13
34.050        13
34.060        40
34.070        20
34.080        60
34.090        33
34.100        40
34.110        27
34.120        27
34.130        40
34.140        20
34.150        40
34.160        20
34.170         7
34.180        47
34.190        40
34.200        33
34.210        20
34.220        20
34.230        40
34.240        20
34.250        40
34.260        27
34.270        53
34.280        27
34.290        40
34.300        20
34.310        40
34.320        13
34.330        33
34.340        33
34.350        20
34.360        20
34.370        47
34.380        20
34.390        27
34.400        13
34.410        13
34.420        27
34.430        40
34.440        27
34.450        20
34.460        40
34.470        47
34.480         7
34.490        27
34.500        13
34.510        33
34.520        13
34.530        20
34.540        33
34.550        27
34.560        53
34.570        53
34.580        20
34.590        27
34.600        40
34.610        20
34.620        27
34.630        20
34.640        13
34.650        33
34.660        47
34.670        20
34.680         7
34.690        20
34.700        40
34.710        47
34.720        33
34.730        33
34.740        13
34.750        47
34.760        40
34.770        40
34.780        40
34.790        20
34.800        27
34.810        20
34.820        13
34.830        20
34.840        13
34.850        53
34.860        40
34.870        33
34.880        20
34.890        13
34.900        40
34.910        33
34.920        20
34.930        27
34.940        40
34.950        60
34.960        27
34.970        27
34.980        33
34.990        40
35.000        20
35.010        27
35.020        47
35.030        27
35.040        53
35.050        40
35.060        47
35.070        60
35.080        47
35.090        67
35.100       107
35.110       133
35.120       133
35.130       113
35.140        87
35.150       127
35.160        93
35.170        73
35.180       120
35.190       107
35.200        53
35.210        60
35.220        53
35.230        60
35.240        73
35.250        67
35.260        60
35.270        40
35.280        20
35.290        33
35.300        40
35.310        53
35.320        33
35.330        20
35.340        33
35.350        33
35.360        40
35.370        53
35.380        33
35.390        20
35.400        40
35.410         7
35.420        27
35.430        20
35.440        33
35.450        47
35.460        20
35.470         7
35.480        40
35.490        53
35.500        27
35.510        33
35.520        40
35.530        27
35.540         7
35.550        33
35.560        20
35.570        40
35.580        20
35.590        20
35.600        20
35.610        20
35.620        13
35.630        40
35.640        33
35.650        20
35.660        20
35.670        33
35.680        20
35.690        20
35.700        33
35.710        20
35.720        27
35.730        40
35.740        27
35.750        27
35.760        27
35.770         7
35.780        33
35.790        13
35.800        20
35.810        73
35.820        20
35.830         7
35.840        40
35.850        20
35.860        27
35.870        13
35.880        27
35.890        20
35.900        20
35.910        20
35.920        33
35.930        47
35.940        33
35.950        33
35.960        13
35.970        33
35.980        27
35.990        27
36.000         7
36.010        27
36.020        20
36.030        27
36.040        20
36.050         0
36.060        33
36.070        27
36.080        13
36.090        20
36.100        27
36.110        33
36.120         7
36.130        33
36.140        33
36.150        33
36.160         7
36.170        33
36.180        27
36.190        20
36.200        13
36.210        27
36.220        20
36.230         7
36.240        60
36.250         0
36.260         0
36.270        13
36.280        33
36.290        27
36.300        33
36.310        13
36.320        40
36.330        33
36.340         7
36.350         7
36.360        20
36.370        13
36.380         7
36.390        13
36.400        13
36.410        13
36.420        40
36.430        27
36.440        33
36.450        13
36.460        20
36.470        13
36.480        33
36.490        33
36.500        27
36.510        27
36.520        20
36.530        27
36.540        13
36.550        27
36.560        20
36.570        13
36.580        13
36.590        40
36.600        20
36.610        13
36.620        20
36.630        47
36.640        33
36.650        33
36.660        40
36.670        40
36.680        13
36.690        13
36.700        13
36.710        33
36.720        40
36.730        33
36.740        53
36.750        33
36.760        27
36.770        27
36.780        13
36.790        13
36.800        20
36.810        33
36.820        33
36.830        33
36.840        20
36.850        20
36.860         0
36.870        33
36.880        13
36.890        20
36.900        27
36.910        27
36.920        53
36.930        13
36.940        20
36.950        20
36.960        27
36.970        13
36.980        40
36.990        13
37.000         7
37.010        20
37.020        13
37.030        47
37.040         7
37.050        20
37.060        40
37.070        20
37.080        27
37.090        40
37.100        20
37.110        40
37.120        27
37.130        13
37.140        27
37.150        13
37.160        13
37.170        20
37.180        33
37.190        13
37.200        27
37.210        33
37.220         7
37.230         7
37.240        13
37.250        20
37.260        20
37.270        27
37.280        13
37.290         7
37.300         7
37.310        40
37.320        13
37.330        20
37.340        33
37.350        47
37.360         7
37.370        13
37.380        47
37.390        27
37.400        27
37.410        60
37.420        27
37.430        27
37.440        40
37.450        20
37.460        33
37.470         7
37.480        33
37.490        20
37.500        33
37.510         7
37.520        40
37.530        27
37.540        33
37.550        13
37.560        20
37.570        33
37.580         7
37.590        20
37.600        33
37.610        20
37.620        20
37.630        33
37.640        40
37.650        40
37.660        33
37.670        33
37.680        20
37.690        27
37.700        20
37.710        20
37.720        40
37.730        27
37.740        20
37.750         7
37.760        47
37.770        20
37.780        20
37.790        20
37.800        20
37.810        27
37.820        13
37.830        33
37.840        53
37.850        33
37.860        40
37.870        40
37.880        20
37.890        20
37.900        27
37.910        47
37.920        13
37.930        47
37.940        40
37.950        27
37.960        33
37.970         0
37.980        20
37.990        53
38.000        20
38.010        40
38.020        47
38.030        40
38.040        40
38.050        47
38.060        80
38.070        47
38.080        33
38.090        33
38.100        73
38.110        67
38.120        60
38.130        40
38.140        60
38.150        67
38.160       100
38.170        87
38.180        73
38.190        93
38.200        53
38.210        80
38.220        80
38.230        73
38.240        67
38.250        67
38.260        40
38.270        80
38.280        73
38.290        67
38.300        53
38.310        40
38.320        47
38.330        93
38.340        33
38.350        60
38.360        40
38.370        27
38.380        27
38.390        27
38.400        47
38.410        13
38.420        33
38.430        13
38.440        53
38.450        27
38.460         7
38.470        13
38.480        20
38.490        27
38.500        40
38.510        47
38.520        33
38.530        27
38.540        20
38.550         7
38.560        33
38.570        27
38.580        33
38.590        20
38.600        33
38.610        27
38.620        33
38.630        27
38.640        60
38.650        13
38.660         7
38.670        27
38.680        40
38.690        33
38.700        27
38.710        27
38.720        27
38.730         7
38.740         7
38.750        47
38.760        20
38.770        27
38.780        20
38.790        13
38.800        13
38.810        40
38.820        27
38.830        27
38.840        13
38.850        20
38.860        20
38.870        20
38.880         7
38.890        33
38.900        33
38.910        20
38.920        53
38.930        27
38.940        20
38.950        27
38.960        20
38.970        60
38.980        13
38.990        33
39.000        47
39.010        33
39.020        13
39.030        33
39.040        33
39.050        33
39.060        33
39.070        20
39.080        13
39.090        40
39.100        33
39.110        13
39.120        13
39.130        27
39.140         0
39.150        13
39.160        20
39.170        13
39.180        40
39.190        20
39.200        13
39.210        27
39.220        33
39.230        13
39.240        27
39.250        27
39.260        20
39.270        27
39.280        20
39.290        13
39.300        40
39.310        13
39.320        13
39.330        40
39.340        20
39.350        47
39.360        27
39.370         7
39.380        33
39.390        27
39.400        47
39.410        13
39.420        40
39.430        27
39.440         7
39.450         7
39.460        13
39.470        33
39.480        27
39.490        13
39.500        13
39.510         7
39.520        20
39.530        40
39.540        40
39.550        20
39.560        20
39.570        27
39.580        13
39.590        20
39.600        27
39.610         0
39.620         0
39.630         7
39.640        20
39.650        13
39.660        13
39.670        60
39.680        33
39.690        20
39.700         7
39.710        27
39.720         7
39.730        33
39.740        13
39.750         0
39.760        53
39.770        67
39.780        27
39.790        13
39.800        33
39.810        20
39.820        40
39.830        27
39.840        27
39.850        60
39.860        60
39.870        20
39.880        47
39.890        40
39.900        53
39.910        53
39.920        33
39.930        20
39.940        40
39.950        40
39.960        33
39.970        20
39.980        27
39.990        33
40.000        27
40.010         0
40.020        40
40.030        13
40.040        27
40.050        27
40.060        13
40.070        13
40.080        27
40.090         0
40.100        40
40.110         7
40.120        40
40.130        33
40.140        40
40.150        13
40.160        40
40.170        13
40.180        13
40.190        40
40.200         0
40.210        13
40.220        40
40.230        13
40.240        13
40.250        13
40.260         7
40.270        53
40.280        27
40.290        33
40.300        40
40.310        27
40.320         7
40.330        13
40.340        20
40.350        13
40.360        27
40.370        20
40.380        33
40.390        13
40.400        13
40.410        33
40.420        20
40.430        47
40.440        33
40.450        27
40.460        20
40.470        33
40.480        20
40.490        27
40.500        20
40.510        20
40.520        40
40.530        40
40.540        20
40.550         0
40.560        20
40.570        33
40.580         7
40.590         0
40.600        13
40.610         0
40.620        40
40.630        40
40.640        20
40.650        27
40.660        27
40.670        40
40.680        33
40.690        27
40.700        27
40.710        27
40.720        20
40.730         7
40.740        40
40.750        20
40.760        20
40.770        27
40.780        20
40.790        33
40.800        20
40.810        33
40.820        20
40.830         0
40.840        40
40.850         7
40.860        20
40.870        20
40.880         7
40.890        13
40.900        20
40.910        20
40.920        20
40.930        27
40.940        27
40.950        27
40.960        27
40.970        13
40.980         0
40.990         7
41.000        27
41.010        20
41.020         7
41.030        13
41.040        27
41.050        13
41.060        13
41.070        33
41.080         0
41.090        20
41.100        33
41.110        20
41.120        13
41.130        20
41.140        27
41.150        40
41.160        27
41.170        27
41.180        27
41.190         7
41.200        20
41.210        40
41.220        20
41.230        20
41.240         0
41.250         0
41.260        13
41.270        13
41.280        27
41.290        27
41.300        33
41.310        20
41.320        20
41.330        20
41.340         7
41.350         7
41.360        27
41.370        20
41.380        13
41.390         7
41.400         7
41.410        47
41.420        27
41.430         7
41.440        47
41.450        33
41.460        27
41.470        27
41.480        27
41.490        20
41.500        20
41.510        20
41.520        40
41.530         0
41.540        33
41.550        47
41.560        13
41.570        53
41.580        33
41.590        40
41.600        27
41.610        33
41.620        67
41.630        33
41.640        53
41.650        67
41.660        47
41.670        80
41.680        47
41.690        53
41.700        33
41.710        13
41.720        13
41.730        53
41.740        47
41.750         7
41.760        67
41.770        33
41.780        33
41.790        80
41.800        20
41.810        40
41.820        13
41.830        53
41.840         7
41.850        47
41.860        13
41.870        13
41.880        20
41.890        13
41.900        33
41.910        47
41.920        27
41.930        20
41.940        33
41.950        40
41.960        40
41.970        27
41.980        33
41.990         7
42.000        20
42.010        20
42.020         7
42.030        27
42.040        13
42.050        13
42.060        33
42.070        20
42.080        20
42.090        33
42.100        20
42.110        13
42.120         7
42.130        40
42.140        33
42.150        13
42.160        20
42.170         0
42.180        13
42.190        27
42.200        13
42.210        13
42.220         7
42.230        33
42.240         0
42.250        47
42.260        33
42.270         7
42.280        20
42.290         7
42.300        53
42.310        13
42.320        13
42.330        27
42.340        27
42.350        20
42.360        20
42.370        40
42.380        20
42.390        20
42.400        13
42.410        33
42.420        27
42.430         7
42.440        27
42.450        13
42.460        13
42.470        60
42.480        20
42.490        13
42.500        20
42.510        20
42.520        13
42.530        33
42.540        33
42.550        13
42.560        33
42.570        40
42.580        13
42.590        27
42.600        27
42.610        13
42.620        33
42.630         7
42.640         0
42.650        33
42.660        20
42.670        27
42.680        27
42.690        13
42.700        13
42.710        33
42.720        20
42.730        27
42.740        33
42.750        27
42.760         7
42.770        27
42.780         7
42.790        27
42.800        27
42.810        33
42.820        20
42.830        67
42.840        13
42.850        13
42.860        13
42.870        53
42.880        20
42.890        20
42.900        13
42.910        20
42.920        47
42.930        20
42.940        20
42.950        47
42.960        47
42.970        33
42.980        27
42.990        53
43.000        20
43.010        40
43.020        13
43.030        20
43.040        40
43.050        53
43.060        40
43.070        33
43.080        13
43.090        20
43.100        27
43.110        33
43.120        40
43.130        27
43.140        60
43.150        33
43.160        27
43.170        40
43.180        60
43.190        73
43.200        53
43.210        67
43.220        33
43.230        67
43.240        47
43.250        60
43.260        47
43.270        40
43.280        60
43.290        87
43.300       107
43.310       180
43.320       280
43.330       247
43.340       287
43.350       253
43.360       200
43.370       253
43.380       153
43.390       180
43.400       133
43.410       180
43.420       113
43.430        80
43.440       153
43.450       193
43.460       160
43.470       187
43.480       120
43.490       107
43.500       127
43.510       140
43.520        67
43.530        67
43.540        80
43.550        40
43.560        27
43.570        27
43.580        27
43.590        33
43.600        27
43.610        40
43.620        33
43.630        53
43.640        33
43.650         7
43.660        40
43.670        47
43.680        47
43.690        53
43.700        33
43.710        13
43.720        53
43.730        27
43.740        27
43.750        60
43.760        27
43.770        53
43.780        47
43.790        27
43.800        47
43.810        40
43.820        53
43.830        33
43.840        40
43.850        60
43.860        27
43.870        47
43.880        53
43.890        40
43.900        60
43.910        73
43.920        73
43.930        40
43.940        80
43.950        73
43.960        53
43.970        60
43.980        80
43.990       100
44.000        67
44.010        87
44.020        53
44.030       160
44.040       140
44.050       120
44.060       153
44.070       187
44.080       173
44.090       233
44.100       233
44.110       220
44.120       293
44.130       280
44.140       347
44.150       420
44.160       420
44.170       493
44.180       606
44.190       713
44.200       700
44.210       853
44.220       746
44.230       920
44.240      1140
44.250      1106
44.260      1453
44.270      1279
44.280      1313
44.290      1666
44.300      1579
44.310      1773
44.320      1679
44.330      1733
44.340      1919
44.350      1813
44.360      1966
44.370      1766
44.380      1833
44.390      1979
44.400      1926
44.410      1679
44.420      1639
44.430      1413
44.440      1453
44.450      1373
44.460      1433
44.470      1240
44.480      1033
44.490       753
44.500       953
44.510       886
44.520       746
44.530       620
44.540       446
44.550       526
44.560       453
44.570       380
44.580       320
44.590       307
44.600       220
44.610       307
44.620       180
44.630       133
44.640       167
44.650       140
44.660       120
44.670       193
44.680       120
44.690       100
44.700       100
44.710        80
44.720       107
44.730       107
44.740        67
44.750        40
44.760        60
44.770        60
44.780        33
44.790        73
44.800        40
44.810        67
44.820        40
44.830        27
44.840        60
44.850        87
44.860        73
44.870        80
44.880       107
44.890        87
44.900        27
44.910        60
44.920        53
44.930        53
44.940        53
44.950        33
44.960        47
44.970        27
44.980        60
44.990        60
45.000        60
45.010        67
45.020        40
45.030        27
45.040        47
45.050        33
45.060        27
45.070       107
45.080        53
45.090        40
45.100        47
45.110        33
45.120        13
45.130        20
45.140        20
45.150        33
45.160        27
45.170        40
45.180        47
45.190        20
45.200        27
45.210        13
45.220        27
45.230        40
45.240        33
45.250        27
45.260        40
45.270        20
45.280        53
45.290        40
45.300        33
45.310        20
45.320        33
45.330        33
45.340        33
45.350        33
45.360        20
45.370        13
45.380        27
45.390        27
45.400        27
45.410        27
45.420        13
45.430        53
45.440        33
45.450        27
45.460        27
45.470        13
45.480        13
45.490        53
45.500        20
45.510        33
45.520        40
45.530        53
45.540        40
45.550        47
45.560        20
45.570        27
45.580        27
45.590        13
45.600        20
45.610        33
45.620        20
45.630        27
45.640        67
45.650        20
45.660        33
45.670        47
45.680        13
45.690        13
45.700        13
45.710        20
45.720        40
45.730         0
45.740        33
45.750        33
45.760        27
45.770        33
45.780        20
45.790        20
45.800        27
45.810        20
45.820        20
45.830        13
45.840        40
45.850         7
45.860        20
45.870        27
45.880        13
45.890         7
45.900        20
45.910        33
45.920        33
45.930        20
45.940        27
45.950        33
45.960        20
45.970         7
45.980        20
45.990        20
46.000        20
46.010        20
46.020        33
46.030        27
46.040        13
46.050        33
46.060         7
46.070        13
46.080        13
46.090        47
46.100        20
46.110        13
46.120        40
46.130        27
46.140        20
46.150        40
46.160        13
46.170        27
46.180        13
46.190        20
46.200         7
46.210        40
46.220        40
46.230        33
46.240        33
46.250        53
46.260        53
46.270        27
46.280        27
46.290         7
46.300        27
46.310         7
46.320        27
46.330        27
46.340        53
46.350        53
46.360        20
46.370        27
46.380        13
46.390        27
46.400        20
46.410        13
46.420        27
46.430        27
46.440         7
46.450         7
46.460        40
46.470        33
46.480        20
46.490        27
46.500        33
46.510        33
46.520         7
46.530        20
46.540        47
46.550        33
46.560        27
46.570         7
46.580        33
46.590         0
46.600        33
46.610        33
46.620        13
46.630        20
46.640        20
46.650        20
46.660        27
46.670        13
46.680        33
46.690        33
46.700        33
46.710        27
46.720        13
46.730         7
46.740        33
46.750         0
46.760        33
46.770        27
46.780        27
46.790        20
46.800        27
46.810        20
46.820        27
46.830        20
46.840        13
46.850        27
46.860        27
46.870        33
46.880        13
46.890        33
46.900        20
46.910        27
46.920        20
46.930        20
46.940        20
46.950         7
46.960        40
46.970        13
46.980        13
46.990         7
47.000        20
47.010        27
47.020        20
47.030        20
47.040         7
47.050        13
47.060        20
47.070         7
47.080        33
47.090         7
47.100        20
47.110         7
47.120        13
47.130        13
47.140         7
47.150        27
47.160        13
47.170        27
47.180         7
47.190        53
47.200        13
47.210        27
47.220        20
47.230        27
47.240        20
47.250        20
47.260        20
47.270        53
47.280        20
47.290         0
47.300        27
47.310        27
47.320        33
47.330        33
47.340        27
47.350        20
47.360        13
47.370        33
47.380        27
47.390        27
47.400        27
47.410        60
47.420         7
47.430        13
47.440        20
47.450        40
47.460        13
47.470        20
47.480        27
47.490        20
47.500        27
47.510        33
47.520        13
47.530        20
47.540        33
47.550         7
47.560        27
47.570        20
47.580        20
47.590        27
47.600        13
47.610        33
47.620        40
47.630        20
47.640        13
47.650        27
47.660        20
47.670         7
47.680        53
47.690        13
47.700        13
47.710         0
47.720        33
47.730        27
47.740        47
47.750        13
47.760        27
47.770         7
47.780         7
47.790        13
47.800        33
47.810        13
47.820         7
47.830        27
47.840        13
47.850        47
47.860        27
47.870         7
47.880        33
47.890        20
47.900        13
47.910        13
47.920        13
47.930         7
47.940        20
47.950        27
47.960         7
47.970        13
47.980        20
47.990        13
48.000        13
48.010         7
48.020        20
48.030         7
48.040        20
48.050        20
48.060         7
48.070         7
48.080        27
48.090        20
48.100        13
48.110        13
48.120        33
48.130        13
48.140        20
48.150        13
48.160         7
48.170        20
48.180        20
48.190        20
48.200        20
48.210        13
48.220         7
48.230        33
48.240        27
48.250        33
48.260        27
48.270        13
48.280         7
48.290        40
48.300        47
48.310        20
48.320        13
48.330        33
48.340        13
48.350        40
48.360        13
48.370        33
48.380        27
48.390        47
48.400        33
48.410        40
48.420         7
48.430        13
48.440        27
48.450        27
48.460        33
48.470         7
48.480        20
48.490        20
48.500        20
48.510        13
48.520         7
48.530        33
48.540        47
48.550        27
48.560        13
48.570        27
48.580        20
48.590        33
48.600        13
48.610        13
48.620        13
48.630         0
48.640        27
48.650        20
48.660         7
48.670        20
48.680        13
48.690        33
48.700         7
48.710        13
48.720        20
48.730         7
48.740        13
48.750         7
48.760         0
48.770        27
48.780         0
48.790        27
48.800         7
48.810         7
48.820         7
48.830        40
48.840         7
48.850        27
48.860        20
48.870        27
48.880        20
48.890        27
48.900        20
48.910        27
48.920         7
48.930        20
48.940        40
48.950        40
48.960        27
48.970         7
48.980         7
48.990        27
49.000        27
49.010        27
49.020        40
49.030        33
49.040         7
49.050         7
49.060        13
49.070        27
49.080         0
49.090         7
49.100         0
49.110        13
49.120        27
49.130        20
49.140        33
49.150         7
49.160        40
49.170        40
49.180        20
49.190        33
49.200        13
49.210         7
49.220         7
49.230        20
49.240        27
49.250        13
49.260         7
49.270         0
49.280        20
49.290        47
49.300         7
49.310        13
49.320        20
49.330        20
49.340         0
49.350         7
49.360        20
49.370         0
49.380        20
49.390        33
49.400        13
49.410         0
49.420        27
49.430        13
49.440        13
49.450        40
49.460        20
49.470        13
49.480        33
49.490        20
49.500        13
49.510        33
49.520        33
49.530        20
49.540        40
49.550        33
49.560         7
49.570        13
49.580        33
49.590         7
49.600        13
49.610         7
49.620        40
49.630        33
49.640        13
49.650        20
49.660         7
49.670         7
49.680         0
49.690         0
49.700        20
49.710        27
49.720         7
49.730        13
49.740         0
49.750        13
49.760        13
49.770         7
49.780        20
49.790        33
49.800        53
49.810        47
49.820         7
49.830        33
49.840         7
49.850         7
49.860        40
49.870        20
49.880        40
49.890         7
49.900        20
49.910        40
49.920         7
49.930        20
49.940        13
49.950        20
49.960        27
49.970        27
49.980        20
49.990        20
50.000        33
50.010        20
50.020        33
50.030        20
50.040        33
50.050        20
50.060        13
50.070        13
50.080         0
50.090         7
50.100        20
50.110        33
50.120         7
50.130        20
50.140        13
50.150        27
50.160        27
50.170        27
50.180        27
50.190        20
50.200        20
50.210         0
50.220        20
50.230        13
50.240        13
50.250        13
50.260        27
50.270         7
50.280         7
50.290        20
50.300        20
50.310        20
50.320        20
50.330        27
50.340        20
50.350         7
50.360         7
50.370        13
50.380        27
50.390        13
50.400        40
50.410        13
50.420        20
50.430         7
50.440        33
50.450        13
50.460        20
50.470        13
50.480        20
50.490        33
50.500        40
50.510        40
50.520        33
50.530        20
50.540        47
50.550         0
50.560        27
50.570        20
50.580        20
50.590        20
50.600         0
50.610        13
50.620        27
50.630        13
50.640         7
50.650         0
50.660        27
50.670        13
50.680        40
50.690        13
50.700        33
50.710        33
50.720         7
50.730        47
50.740         7
50.750        20
50.760        13
50.770        27
50.780         7
50.790         7
50.800        13
50.810        13
50.820        13
50.830        20
50.840         0
50.850         0
50.860         7
50.870        13
50.880        40
50.890        13
50.900        27
50.910        20
50.920         0
50.930        20
50.940        33
50.950        33
50.960        33
50.970        27
50.980        40
50.990        40
51.000        20
51.010        20
51.020        13
51.030        13
51.040        13
51.050        33
51.060        13
51.070        27
51.080        13
51.090         7
51.100        13
51.110        27
51.120         7
51.130         7
51.140        13
51.150         0
51.160        20
51.170        13
51.180        27
51.190        13
51.200         7
51.210         7
51.220         7
51.230        27
51.240         7
51.250         7
51.260        27
51.270        27
51.280        20
51.290        20
51.300        13
51.310        40
51.320         0
51.330        20
51.340        20
51.350        13
51.360        33
51.370         7
51.380         7
51.390        13
51.400        20
51.410        27
51.420        27
51.430         7
51.440         0
51.450        13
51.460        27
51.470         7
51.480        20
51.490        33
51.500         7
51.510         7
51.520        20
51.530         7
51.540        40
51.550         0
51.560         7
51.570        27
51.580         0
51.590         0
51.600        33
51.610        53
51.620         0
51.630        13
51.640        27
51.650        33
51.660        20
51.670         7
51.680        13
51.690         7
51.700         7
51.710        27
51.720        27
51.730        20
51.740        13
51.750        20
51.760         0
51.770         7
51.780        20
51.790         7
51.800         0
51.810         0
51.820        20
51.830        13
51.840         7
51.850        13
51.860        20
51.870        27
51.880        13
51.890        53
51.900        13
51.910        27
51.920        20
51.930         0
51.940        40
51.950         7
51.960        13
51.970         7
51.980        33
51.990         0
52.000        13
52.010        27
52.020         0
52.030        13
52.040        20
52.050        27
52.060         7
52.070        40
52.080        13
52.090         7
52.100        13
52.110        13
52.120         7
52.130         7
52.140        33
52.150        13
52.160         0
52.170        27
52.180        20
52.190         7
52.200        27
52.210         0
52.220        27
52.230         0
52.240        20
52.250        20
52.260         7
52.270        13
52.280         7
52.290        13
52.300        33
52.310        33
52.320        27
52.330         0
52.340         7
52.350        27
52.360        20
52.370        27
52.380        20
52.390        13
52.400         7
52.410         0
52.420        47
52.430        20
52.440        40
52.450        20
52.460        20
52.470        33
52.480        47
52.490        27
52.500        27
52.510        13
52.520         0
52.530        53
52.540        80
52.550        47
52.560        53
52.570        53
52.580        87
52.590       107
52.600       100
52.610       153
52.620       113
52.630        93
52.640        47
52.650        47
52.660        60
52.670        47
52.680        40
52.690        47
52.700        60
52.710        73
52.720        73
52.730       107
52.740       107
52.750        87
52.760        53
52.770        40
52.780        40
52.790        33
52.800        13
52.810         7
52.820        20
52.830         7
52.840        13
52.850        13
52.860        20
52.870        20
52.880         7
52.890        27
52.900        13
52.910        33
52.920        13
52.930        13
52.940        27
52.950         0
52.960         7
52.970         7
52.980        20
52.990         0
53.000        27
53.010        47
53.020        27
53.030        13
53.040        20
53.050        20
53.060         7
53.070        13
53.080         7
53.090         7
53.100        27
53.110        20
53.120        20
53.130        13
53.140         7
53.150        13
53.160        13
53.170        13
53.180        13
53.190        20
53.200        40
53.210         0
53.220        20
53.230         7
53.240        27
53.250        13
53.260        27
53.270        20
53.280        13
53.290        20
53.300         0
53.310         7
53.320        13
53.330         7
53.340        40
53.350         0
53.360        27
53.370        13
53.380         7
53.390        20
53.400        13
53.410         7
53.420        40
53.430        20
53.440         7
53.450         7
53.460         7
53.470        27
53.480        20
53.490         0
53.500        27
53.510         7
53.520        13
53.530        13
53.540        20
53.550         7
53.560        20
53.570         7
53.580         0
53.590        20
53.600        13
53.610         7
53.620        27
53.630        20
53.640        20
53.650         7
53.660        20
53.670         7
53.680         7
53.690        20
53.700        33
53.710        20
53.720         7
53.730         0
53.740         0
53.750        20
53.760        20
53.770         7
53.780        20
53.790        13
53.800        20
53.810        20
53.820         7
53.830        27
53.840         0
53.850         0
53.860        27
53.870        13
53.880        27
53.890        20
53.900         7
53.910        13
53.920        13
53.930        20
53.940         7
53.950        13
53.960        13
53.970        13
53.980        13
53.990        20
54.000        27
54.010        27
54.020         0
54.030         7
54.040        27
54.050         7
54.060        13
54.070         7
54.080        20
54.090         7
54.100        33
54.110         7
54.120        33
54.130         7
54.140        33
54.150        27
54.160        20
54.170         0
54.180        20
54.190         0
54.200        20
54.210        13
54.220        13
54.230         7
54.240         7
54.250         7
54.260        20
54.270        33
54.280        27
54.290        13
54.300         7
54.310         7
54.320        27
54.330        13
54.340        20
54.350         7
54.360         0
54.370         7
54.380         0
54.390        40
54.400        13
54.410         0
54.420         7
54.430         0
54.440        13
54.450        33
54.460         0
54.470        27
54.480         0
54.490         7
54.500        13
54.510        47
54.520        33
54.530        13
54.540        20
54.550        13
54.560        20
54.570        27
54.580        13
54.590        20
54.600        13
54.610         7
54.620        33
54.630         7
54.640         7
54.650         7
54.660        20
54.670        27
54.680        20
54.690        33
54.700        13
54.710         7
54.720        33
54.730        13
54.740        20
54.750        13
54.760         7
54.770        13
54.780        13
54.790        27
54.800        40
54.810        20
54.820        27
54.830         7
54.840        20
54.850        33
54.860        33
54.870        20
54.880        20
54.890        27
54.900        33
54.910        33
54.920        33
54.930        67
54.940        60
54.950        40
54.960        87
54.970        73
54.980        33
54.990        53
55.000       100
55.010        60
55.020        73
55.030        80
55.040        80
55.050       140
55.060        67
55.070        53
55.080        80
55.090        80
55.100       113
55.110       140
55.120       113
55.130       113
55.140       107
55.150       107
55.160       120
55.170        80
55.180       100
55.190        80
55.200        87
55.210        87
55.220       113
55.230        47
55.240       100
55.250        60
55.260        67
55.270        87
55.280       113
55.290        60
55.300        53
55.310        73
55.320        80
55.330        40
55.340       100
55.350        53
55.360        47
55.370        80
55.380        80
55.390        40
55.400        47
55.410        47
55.420        27
55.430        27
55.440         7
55.450         7
55.460        27
55.470        40
55.480        27
55.490        20
55.500        33
55.510        27
55.520         7
55.530        27
55.540        20
55.550        27
55.560        27
55.570        20
55.580        40
55.590        33
55.600         7
55.610         7
55.620        20
55.630        27
55.640        20
55.650        20
55.660        20
55.670         7
55.680         7
55.690        27
55.700         7
55.710         7
55.720        13
55.730         0
55.740         7
55.750        13
55.760        13
55.770        13
55.780         7
55.790        20
55.800        20
55.810        20
55.820        27
55.830         7
55.840        20
55.850        13
55.860        20
55.870        20
55.880        13
55.890        40
55.900        33
55.910        20
55.920        13
55.930        20
55.940         7
55.950        20
55.960        20
55.970        27
55.980        20
55.990         7
56.000        20
56.010         0
56.020        13
56.030        13
56.040        20
56.050        13
56.060        13
56.070         0
56.080        13
56.090         7
56.100         7
56.110        20
56.120         0
56.130         7
56.140        13
56.150        20
56.160         0
56.170        13
56.180         7
56.190        13
56.200        13
56.210        13
56.220        20
56.230        33
56.240        13
56.250        47
56.260         7
56.270        13
56.280        13
56.290         0
56.300        13
56.310         7
56.320        13
56.330        13
56.340        27
56.350        13
56.360        13
56.370         7
56.380        27
56.390        20
56.400        20
56.410        27
56.420        20
56.430        20
56.440        27
56.450        13
56.460         0
56.470        13
56.480        27
56.490        27
56.500        33
56.510        13
56.520         0
56.530         0
56.540        13
56.550        13
56.560        27
56.570        13
56.580         7
56.590         7
56.600         0
56.610        20
56.620        20
56.630        27
56.640        13
56.650         7
56.660         7
56.670         7
56.680        40
56.690        27
56.700         7
56.710        27
56.720        20
56.730         7
56.740        27
56.750        53
56.760        20
56.770        13
56.780        33
56.790        20
56.800        27
56.810        13
56.820         7
56.830        13
56.840         7
56.850        13
56.860        13
56.870        33
56.880        13
56.890        13
56.900        13
56.910         7
56.920         7
56.930         0
56.940        33
56.950         7
56.960        13
56.970        27
56.980         7
56.990        27
57.000        20
57.010        27
57.020        13
57.030        27
57.040        13
57.050        40
57.060         0
57.070         7
57.080         7
57.090        27
57.100        27
57.110        27
57.120        13
57.130        13
57.140        20
57.150         0
57.160         0
57.170        20
57.180        27
57.190         7
57.200        13
57.210        13
57.220        13
57.230        13
57.240        13
57.250        20
57.260        13
57.270        33
57.280        40
57.290        13
57.300        27
57.310        27
57.320        20
57.330        13
57.340        53
57.350        33
57.360        20
57.370        40
57.380        13
57.390        40
57.400        67
57.410        67
57.420        27
57.430        67
57.440        67
57.450       127
57.460        93
57.470        93
57.480       200
57.490       200
57.500       167
57.510       167
57.520       280
57.530       167
57.540       180
57.550       153
57.560       207
57.570       127
57.580        87
57.590        87
57.600       100
57.610       107
57.620        60
57.630        60
57.640        93
57.650        93
57.660        87
57.670        73
57.680       113
57.690        93
57.700       120
57.710        73
57.720        40
57.730        60
57.740        47
57.750        13
57.760        47
57.770        13
57.780        13
57.790         7
57.800        27
57.810         0
57.820        13
57.830        20
57.840        27
57.850        40
57.860         7
57.870        20
57.880         7
57.890        13
57.900        13
57.910         0
57.920         7
57.930        33
57.940        13
57.950         7
57.960        20
57.970        27
57.980        20
57.990        13
58.000        27
58.010         7
58.020         0
58.030        20
58.040        13
58.050         7
58.060        27
58.070         7
58.080         7
58.090        13
58.100        13
58.110         0
58.120         0
58.130        27
58.140        20
58.150        13
58.160         0
58.170         7
58.180        13
58.190        13
58.200        13
58.210        13
58.220         0
58.230        20
58.240         7
58.250        20
58.260         7
58.270         0
58.280        27
58.290        13
58.300         7
58.310        20
58.320        20
58.330         7
58.340         0
58.350        20
58.360        27
58.370        20
58.380        20
58.390        27
58.400        20
58.410        20
58.420        20
58.430        13
58.440        20
58.450        27
58.460        13
58.470        13
58.480        20
58.490         7
58.500         0
58.510        73
58.520        20
58.530         0
58.540        13
58.550        20
58.560         7
58.570         7
58.580        13
58.590        27
58.600         0
58.610         0
58.620         0
58.630         7
58.640        13
58.650        27
58.660        13
58.670        13
58.680         7
58.690         0
58.700        20
58.710        20
58.720         7
58.730         0
58.740         7
58.750         7
58.760        40
58.770         7
58.780        27
58.790        13
58.800         7
58.810         0
58.820         0
58.830        13
58.840        20
58.850         7
58.860        13
58.870         7
58.880         7
58.890         7
58.900         0
58.910         7
58.920         7
58.930         7
58.940         7
58.950        27
58.960        20
58.970        13
58.980        20
58.990        13
59.000         7
59.010         7
59.020         0
59.030         7
59.040         0
59.050        20
59.060        33
59.070        20
59.080         7
59.090        20
59.100        20
59.110         7
59.120        20
59.130        20
59.140        20
59.150        47
59.160        13
59.170        33
59.180        27
59.190        13
59.200        20
59.210        20
59.220        13
59.230        20
59.240         0
59.250        20
59.260         7
59.270        13
59.280        20
59.290        13
59.300         0
59.310        20
59.320         0
59.330        27
59.340        20
59.350        13
59.360         0
59.370         7
59.380        13
59.390        13
59.400        13
59.410        13
59.420         7
59.430         0
59.440        20
59.450        40
59.460        33
59.470        20
59.480         7
59.490        13
59.500         7
59.510        13
59.520         7
59.530         7
59.540        13
59.550        20
59.560        13
59.570         0
59.580        20
59.590        13
59.600         7
59.610        13
59.620        20
59.630        13
59.640        13
59.650         7
59.660        20
59.670         7
59.680        53
59.690         7
59.700        13
59.710        13
59.720        33
59.730        20
59.740        27
59.750        20
59.760        13
59.770        27
59.780        13
59.790        20
59.800        13
59.810        27
59.820         0
59.830        27
59.840        33
59.850        13
59.860        20
59.870        20
59.880        13
59.890        20
59.900         7
59.910        33
59.920        13
59.930        13
59.940         7
59.950         7
59.960        27
59.970        13
59.980         7
59.990         7
60.000         7
