20.000        47
20.010        47
20.020       107
20.030        73
20.040        73
20.050        47
20.060        20
20.070        47
20.080        53
20.090        73
20.100         7
20.110        47
20.120        53
20.130        67
20.140         7
20.150        47
20.160        33
20.170        67
20.180        80
20.190        53
20.200        67
20.210        40
20.220        47
20.230        33
20.240        33
20.250        47
20.260        33
20.270        47
20.280        80
20.290        73
20.300        47
20.310        47
20.320        60
20.330        40
20.340        47
20.350        47
20.360        20
20.370        40
20.380        20
20.390        53
20.400        27
20.410        60
20.420        67
20.430        53
20.440        20
20.450        33
20.460        40
20.470        47
20.480        13
20.490        47
20.500        53
20.510        40
20.520        47
20.530        60
20.540        27
20.550        20
20.560        40
20.570        53
20.580        33
20.590        53
20.600        67
20.610        47
20.620        60
20.630        33
20.640        47
20.650        33
20.660        33
20.670        47
20.680        20
20.690        27
20.700        47
20.710        33
20.720        47
20.730        33
20.740        33
20.750        80
20.760        27
20.770        40
20.780        47
20.790        27
20.800        13
20.810        60
20.820        87
20.830        33
20.840        47
20.850        33
20.860        47
20.870        67
20.880        27
20.890        60
20.900        73
20.910        20
20.920        47
20.930        20
20.940        40
20.950        67
20.960        73
20.970        33
20.980         7
20.990        67
21.000        60
21.010        33
21.020        20
21.030        47
21.040        47
21.050        33
21.060        47
21.070        53
21.080        20
21.090        33
21.100        33
21.110        60
21.120        40
21.130        33
21.140         7
21.150        27
21.160        47
21.170        20
21.180        53
21.190        33
21.200        47
21.210        67
21.220        47
21.230        33
21.240        67
21.250        47
21.260        40
21.270        67
21.280        20
21.290        67
21.300        60
21.310        60
21.320        53
21.330        40
21.340        40
21.350        33
21.360        27
21.370        27
21.380        40
21.390        27
21.400        53
21.410        60
21.420        33
21.430        40
21.440        40
21.450        47
21.460        60
21.470        47
21.480        20
21.490        53
21.500        47
21.510        40
21.520        67
21.530        33
21.540        40
21.550        47
21.560        13
21.570        53
21.580        40
21.590        53
21.600        47
21.610        67
21.620        47
21.630        13
21.640        60
21.650        27
21.660        40
21.670        80
21.680        47
21.690        20
21.700        13
21.710        40
21.720        40
21.730        60
21.740        47
21.750        33
21.760        27
21.770        60
21.780        67
21.790        47
21.800        47
21.810        80
21.820        47
21.830        40
21.840        13
21.850        47
21.860        47
21.870        47
21.880        33
21.890        53
21.900        40
21.910        33
21.920        60
21.930        20
21.940        33
21.950        40
21.960        20
21.970        33
21.980        27
21.990        40
22.000        80
22.010        33
22.020        40
22.030        73
22.040        40
22.050        40
22.060        40
22.070        60
22.080        67
22.090        40
22.100        47
22.110        27
22.120        53
22.130        47
22.140        27
22.150        60
22.160        33
22.170        53
22.180        53
22.190        53
22.200        20
22.210        40
22.220        40
22.230        67
22.240        47
22.250        53
22.260        47
22.270        40
22.280        27
22.290        40
22.300        33
22.310        47
22.320        53
22.330        47
22.340        47
22.350        60
22.360        27
22.370        47
22.380        33
22.390        33
22.400        13
22.410        33
22.420        40
22.430        20
22.440        47
22.450        27
22.460        60
22.470        47
22.480        13
22.490         0
22.500        33
22.510        33
22.520        33
22.530        40
22.540        53
22.550        47
22.560        53
22.570        27
22.580        13
22.590        53
22.600        33
22.610        27
22.620        13
22.630        33
22.640        40
22.650        67
22.660        40
22.670        80
22.680        73
22.690        53
22.700        93
22.710        40
22.720        87
22.730       107
22.740        93
22.750       133
22.760       120
22.770       133
22.780       113
22.790        93
22.800       147
22.810       147
22.820        73
22.830       193
22.840       127
22.850       107
22.860        60
22.870       133
22.880        87
22.890       133
22.900       107
22.910       113
22.920       160
22.930        67
22.940        67
22.950        60
22.960        40
22.970        93
22.980        73
22.990        13
23.000        27
23.010        60
23.020        20
23.030        80
23.040        27
23.050        60
23.060        33
23.070        47
23.080        27
23.090        47
23.100        27
23.110        60
23.120        33
23.130        60
23.140        20
23.150        33
23.160        40
23.170        40
23.180        40
23.190        40
23.200        47
23.210        53
23.220        20
23.230        47
23.240        93
23.250        33
23.260        47
23.270        33
23.280        27
23.290        60
23.300        40
23.310        20
23.320        47
23.330        33
23.340        33
23.350        80
23.360        33
23.370        27
23.380        33
23.390        20
23.400        40
23.410        40
23.420        27
23.430        53
23.440        27
23.450        27
23.460        33
23.470        13
23.480        47
23.490        33
23.500        20
23.510        13
23.520        80
23.530        27
23.540        53
23.550        13
23.560        40
23.570        27
23.580        40
23.590        60
23.600        27
23.610        27
23.620        47
23.630        27
23.640        20
23.650        60
23.660        20
23.670        33
23.680        33
23.690        13
23.700        33
23.710        60
23.720        47
23.730        27
23.740        53
23.750        60
23.760        20
23.770        67
23.780        67
23.790        40
23.800        60
23.810        33
23.820        33
23.830        40
23.840        33
23.850        53
23.860        47
23.870        53
23.880         7
23.890        20
23.900        60
23.910        20
23.920        20
23.930        40
23.940        20
23.950        27
23.960        27
23.970        53
23.980        33
23.990        20
24.000        33
24.010        73
24.020        40
24.030        13
24.040        33
24.050        40
24.060        33
24.070        27
24.080        33
24.090        67
24.100        27
24.110        20
24.120        53
24.130        47
24.140        47
24.150        40
24.160        20
24.170        27
24.180        13
24.190        67
24.200        33
24.210        33
24.220        40
24.230        33
24.240        27
24.250        20
24.260        73
24.270        27
24.280        33
24.290        47
24.300        60
24.310        27
24.320        13
24.330        33
24.340        40
24.350         7
24.360        33
24.370        20
24.380        40
24.390        53
24.400        27
24.410        60
24.420        47
24.430        53
24.440        33
24.450        13
24.460        33
24.470        93
24.480        27
24.490        40
24.500        27
24.510        20
24.520        33
24.530        47
24.540        27
24.550        13
24.560        40
24.570        27
24.580        47
24.590        67
24.600        27
24.610         7
24.620        33
24.630        40
24.640        40
24.650        67
24.660        73
24.670        40
24.680        40
24.690        33
24.700        40
24.710        53
24.720        40
24.730        27
24.740        60
24.750        33
24.760        13
24.770        67
24.780        33
24.790        67
24.800        47
24.810        40
24.820        27
24.830        27
24.840        73
24.850        40
24.860         7
24.870        40
24.880        53
24.890        20
24.900        53
24.910        47
24.920        33
24.930        40
24.940         7
24.950        40
24.960        20
24.970        60
24.980        53
24.990        73
25.000        27
25.010        27
25.020        40
25.030        27
25.040        60
25.050        40
25.060        13
25.070        20
25.080        27
25.090        13
25.100        33
25.110        13
25.120        53
25.130        33
25.140        47
25.150        33
25.160        33
25.170        27
25.180        13
25.190        27
25.200        27
25.210        20
25.220        53
25.230         0
25.240        27
25.250        60
25.260        27
25.270        27
25.280        20
25.290        73
25.300        67
25.310        53
25.320         0
25.330        20
25.340        67
25.350        27
25.360        33
25.370        33
25.380        47
25.390        40
25.400        53
25.410        87
25.420        33
25.430        47
25.440        80
25.450        53
25.460        40
25.470       133
25.480       113
25.490       180
25.500       133
25.510       140
25.520       167
25.530        87
25.540       127
25.550       173
25.560       140
25.570       220
25.580       300
25.590       193
25.600       253
25.610       247
25.620       180
25.630       227
25.640       207
25.650       173
25.660       220
25.670       147
25.680       147
25.690        93
25.700       120
25.710        87
25.720       100
25.730        53
25.740        53
25.750        33
25.760        47
25.770        53
25.780        13
25.790        20
25.800        13
25.810        27
25.820        33
25.830        20
25.840        33
25.850        40
25.860        20
25.870        40
25.880        33
25.890        73
25.900        13
25.910        27
25.920        33
25.930        80
25.940        13
25.950        40
25.960        33
25.970        13
25.980        20
25.990        13
26.000        33
26.010        20
26.020        27
26.030        13
26.040        40
26.050        53
26.060        40
26.070        27
26.080        53
26.090        33
26.100        53
26.110        40
26.120         0
26.130        27
26.140        33
26.150        47
26.160        13
26.170        47
26.180        20
26.190        27
26.200        40
26.210        67
26.220        33
26.230        47
26.240        27
26.250        13
26.260        13
26.270        40
26.280        47
26.290        33
26.300        13
26.310        27
26.320        53
26.330        27
26.340        47
26.350        40
26.360        60
26.370        53
26.380        27
26.390        27
26.400        40
26.410         7
26.420        33
26.430        40
26.440        40
26.450        33
26.460         0
26.470        47
26.480        33
26.490        47
26.500        33
26.510        27
26.520        27
26.530        67
26.540        40
26.550        33
26.560        27
26.570        27
26.580        33
26.590        47
26.600        47
26.610        27
26.620        13
26.630        27
26.640        20
26.650        20
26.660        20
26.670        40
26.680        27
26.690        27
26.700        33
26.710        20
26.720        40
26.730        73
26.740        53
26.750        13
26.760        20
26.770        40
26.780        40
26.790        13
26.800        67
26.810        60
26.820        47
26.830        13
26.840        47
26.850        13
26.860        13
26.870        33
26.880        33
26.890        40
26.900        27
26.910        20
26.920        47
26.930        53
26.940        33
26.950        33
26.960        20
26.970        13
26.980        13
26.990        20
27.000        27
27.010        20
27.020        60
27.030        40
27.040        20
27.050        33
27.060        33
27.070        40
27.080        20
27.090        33
27.100        27
27.110        40
27.120        33
27.130        20
27.140        27
27.150        13
27.160        33
27.170        87
27.180        27
27.190        27
27.200        40
27.210        13
27.220        27
27.230        33
27.240        27
27.250        47
27.260        73
27.270        13
27.280        20
27.290        40
27.300        33
27.310        33
27.320        53
27.330        27
27.340        40
27.350        27
27.360        13
27.370        20
27.380         7
27.390        20
27.400        27
27.410        20
27.420        13
27.430        47
27.440        27
27.450        40
27.460        40
27.470        40
27.480        13
27.490        33
27.500        13
27.510        40
27.520        47
27.530        27
27.540        53
27.550        20
27.560        47
27.570        47
27.580        60
27.590        33
27.600        47
27.610        53
27.620        27
27.630        33
27.640         7
27.650        27
27.660         7
27.670        20
27.680        53
27.690        33
27.700        20
27.710        33
27.720         7
27.730        40
27.740        27
27.750        27
27.760        33
27.770        13
27.780        40
27.790        40
27.800        33
27.810        20
27.820        53
27.830        40
27.840        33
27.850        40
27.860        67
27.870        13
27.880        40
27.890         7
27.900        33
27.910         7
27.920        13
27.930        20
27.940        33
27.950        33
27.960        20
27.970        13
27.980        40
27.990        47
28.000        13
28.010        53
28.020        33
28.030        13
28.040        33
28.050        20
28.060        33
28.070        40
28.080        13
28.090        53
28.100        33
28.110        20
28.120        47
28.130        33
28.140         7
28.150        13
28.160        20
28.170        40
28.180        40
28.190        27
28.200        13
28.210        27
28.220        40
28.230        20
28.240        27
28.250        40
28.260        40
28.270        27
28.280        33
28.290        20
28.300         7
28.310        53
28.320        13
28.330        33
28.340        27
28.350        73
28.360        20
28.370        67
28.380        40
28.390        33
28.400        40
28.410        40
28.420        20
28.430        20
28.440        27
28.450        27
28.460        20
28.470        20
28.480        13
28.490        13
28.500        13
28.510        27
28.520        47
28.530        53
28.540        20
28.550        20
28.560        40
28.570        47
28.580         7
28.590        13
28.600        20
28.610        33
28.620        20
28.630        40
28.640        13
28.650        53
28.660         0
28.670        40
28.680        40
28.690        27
28.700        33
28.710        13
28.720        20
28.730         7
28.740        20
28.750        20
28.760        20
28.770        40
28.780        33
28.790         0
28.800        27
28.810        27
28.820        33
28.830        13
28.840        27
28.850        20
28.860        33
28.870        27
28.880        27
28.890        13
28.900        13
28.910        20
28.920        47
28.930        40
28.940        47
28.950        13
28.960        40
28.970        47
28.980        20
28.990        33
29.000        13
29.010        20
29.020        27
29.030        20
29.040        27
29.050        33
29.060        60
29.070        40
29.080        40
29.090        13
29.100        13
29.110        40
29.120        20
29.130        47
29.140        27
29.150        60
29.160        13
29.170         7
29.180        53
29.190        60
29.200        40
29.210        40
29.220        47
29.230        33
29.240         0
29.250        20
29.260        20
29.270        33
29.280        47
29.290        33
29.300        40
29.310         0
29.320        20
29.330        27
29.340         7
29.350        27
29.360        20
29.370        40
29.380        20
29.390        47
29.400        40
29.410        53
29.420        20
29.430        27
29.440        40
29.450        47
29.460        33
29.470        27
29.480        33
29.490        27
29.500        33
29.510        47
29.520        20
29.530        33
29.540        40
29.550        40
29.560        27
29.570        20
29.580        20
29.590        20
29.600        13
29.610         0
29.620         7
29.630        40
29.640        27
29.650        13
29.660        33
29.670        33
29.680        33
29.690        40
29.700         7
29.710        47
29.720        13
29.730        20
29.740        33
29.750        13
29.760         7
29.770        27
29.780        27
29.790        53
29.800        33
29.810        47
29.820        20
29.830        20
29.840        27
29.850        27
29.860        20
29.870        20
29.880        20
29.890         0
29.900        13
29.910        20
29.920        33
29.930        27
29.940        13
29.950        33
29.960        13
29.970        27
29.980        27
29.990        20
30.000        27
30.010        27
30.020        27
30.030        47
30.040        33
30.050        33
30.060         7
30.070        40
30.080        20
30.090        13
30.100         0
30.110        27
30.120        40
30.130         7
30.140         7
30.150        40
30.160        33
30.170        33
30.180        20
30.190        40
30.200        13
30.210         7
30.220        13
30.230         7
30.240        20
30.250        33
30.260        33
30.270        27
30.280        27
30.290        60
30.300        20
30.310        27
30.320        40
30.330        33
30.340        33
30.350        40
30.360        27
30.370        33
30.380         7
30.390        13
30.400        27
30.410        13
30.420        20
30.430        27
30.440        27
30.450        20
30.460        20
30.470         7
30.480        60
30.490         0
30.500        20
30.510        40
30.520        33
30.530        20
30.540        47
30.550        40
30.560        20
30.570        20
30.580        20
30.590        13
30.600        27
30.610        33
30.620         7
30.630         7
30.640        27
30.650        47
30.660        13
30.670        20
30.680        33
30.690        13
30.700        13
30.710        33
30.720        47
30.730         7
30.740        27
30.750        33
30.760        33
30.770        27
30.780        13
30.790        20
30.800         7
30.810        27
30.820        20
30.830        33
30.840        40
30.850        27
30.860        13
30.870        20
30.880        13
30.890        20
30.900        20
30.910        33
30.920        13
30.930        20
30.940        20
30.950        20
30.960        27
30.970        20
30.980         7
30.990        27
31.000        47
31.010         7
31.020        53
31.030        60
31.040        13
31.050        73
31.060        13
31.070        13
31.080        20
31.090         7
31.100        13
31.110        47
31.120        27
31.130        33
31.140        47
31.150        40
31.160         7
31.170        33
31.180        27
31.190         7
31.200        47
31.210        27
31.220         7
31.230        40
31.240        33
31.250        33
31.260        27
31.270        33
31.280        47
31.290        40
31.300        27
31.310        33
31.320        33
31.330        13
31.340        53
31.350        33
31.360        27
31.370        27
31.380        27
31.390        47
31.400        27
31.410        27
31.420        20
31.430        33
31.440        27
31.450        33
31.460        47
31.470        20
31.480        20
31.490         7
31.500        53
31.510        27
31.520        20
31.530        13
31.540        13
31.550        13
31.560        27
31.570        47
31.580        13
31.590        20
31.600        33
31.610        20
31.620        13
31.630        20
31.640        47
31.650        27
31.660        20
31.670        33
31.680        33
31.690        20
31.700        53
31.710        33
31.720        27
31.730        20
31.740        47
31.750        13
31.760        40
31.770        33
31.780        20
31.790        40
31.800        47
31.810        47
31.820        27
31.830        33
31.840        20
31.850        27
31.860        20
31.870        27
31.880        53
31.890        53
31.900        60
31.910        47
31.920        13
31.930        20
31.940         7
31.950        33
31.960        33
31.970        40
31.980        53
31.990        40
32.000        20
32.010        27
32.020        13
32.030         7
32.040        40
32.050        40
32.060        33
32.070        27
32.080        53
32.090        40
32.100        47
32.110        60
32.120        20
32.130        60
32.140        60
32.150        20
32.160        73
32.170        20
32.180        20
32.190        60
32.200        60
32.210        73
32.220        53
32.230        40
32.240        13
32.250        40
32.260       100
32.270        80
32.280        53
32.290       113
32.300       100
32.310       107
32.320       107
32.330       113
32.340       160
32.350       113
32.360       120
32.370       247
32.380       120
32.390       160
32.400       127
32.410       227
32.420       233
32.430       280
32.440       240
32.450       260
32.460       340
32.470       273
32.480       300
32.490       313
32.500       273
32.510       340
32.520       313
32.530       240
32.540       253
32.550       280
32.560       227
32.570       140
32.580       167
32.590       173
32.600       100
32.610       147
32.620       153
32.630        73
32.640        80
32.650        53
32.660        60
32.670        87
32.680        27
32.690        60
32.700        40
32.710        47
32.720        60
32.730        40
32.740        53
32.750        40
32.760        27
32.770        33
32.780        73
32.790        33
32.800        20
32.810        33
32.820        40
32.830        40
32.840        40
32.850        20
32.860        40
32.870        67
32.880        47
32.890        47
32.900        27
32.910        60
32.920        27
32.930        20
32.940        13
32.950        33
32.960        27
32.970        33
32.980        53
32.990        47
33.000        13
33.010        53
33.020        27
33.030        33
33.040        27
33.050        27
33.060        20
33.070        13
33.080        33
33.090        40
33.100        27
33.110        60
33.120        40
33.130        27
33.140        13
33.150        20
33.160         7
33.170        13
33.180        13
33.190        20
33.200        27
33.210        53
33.220        33
33.230        33
33.240        13
33.250        27
33.260        33
33.270        13
33.280        20
33.290         7
33.300        33
33.310        33
33.320        13
33.330        27
33.340        33
33.350        27
33.360        20
33.370        33
33.380        13
33.390         7
33.400        33
33.410        27
33.420        33
33.430        53
33.440        27
33.450        20
33.460        33
33.470        13
33.480         7
33.490        40
33.500        20
33.510        47
33.520        20
33.530        13
33.540        47
33.550         7
33.560        47
33.570        33
33.580        33
33.590        27
33.600        27
33.610        13
33.620        27
33.630        13
33.640        13
33.650        40
33.660        20
33.670         7
33.680        13
33.690        20
33.700        20
33.710        27
33.720        13
33.730        40
33.740        47
33.750         7
33.760         7
33.770        20
33.780        47
33.790        40
33.800        27
33.810        20
33.820        27
33.830        20
33.840        27
33.850        20
33.860        33
33.870        40
33.880        47
33.890        27
33.900        13
33.910        40
33.920        27
33.930        13
33.940        13
33.950        27
33.960        40
33.970        20
33.980        20
33.990        27
34.000        20
34.010        20
34.020        33
34.030        20
34.040        27
34.050         7
34.060        40
34.070        27
34.080        20
34.090        53
34.100        33
34.110        27
34.120        33
34.130        40
34.140         0
34.150        27
34.160        80
34.170        20
34.180         7
34.190         7
34.200        20
34.210        33
34.220        33
34.230        27
34.240        27
34.250        20
34.260        13
34.270        27
34.280        27
34.290        20
34.300        13
34.310        13
34.320        33
34.330        33
34.340        27
34.350        33
34.360         0
34.370         0
34.380        33
34.390        47
34.400        20
34.410        40
34.420        40
34.430        40
34.440        33
34.450        27
34.460        13
34.470        27
34.480        27
34.490        27
34.500        20
34.510        20
34.520        20
34.530         0
34.540        33
34.550        20
34.560        27
34.570        47
34.580         7
34.590        47
34.600        27
34.610         7
34.620        47
34.630        47
34.640        20
34.650        33
34.660        13
34.670        33
34.680        40
34.690        33
34.700        40
34.710        20
34.720        27
34.730        40
34.740        27
34.750        13
34.760        40
34.770        53
34.780        27
34.790        40
34.800        20
34.810        20
34.820        40
34.830        53
34.840        20
34.850        13
34.860        33
34.870        47
34.880        20
34.890        33
34.900        13
34.910        40
34.920        47
34.930        20
34.940        20
34.950        67
34.960        73
34.970        33
34.980        47
34.990        67
35.000        80
35.010        93
35.020       100
35.030       120
35.040       133
35.050       193
35.060       167
35.070       173
35.080       193
35.090       287
35.100       400
35.110       353
35.120       426
35.130       486
35.140       580
35.150       813
35.160       733
35.170       660
35.180       766
35.190       700
35.200       713
35.210       633
35.220       500
35.230       513
35.240       420
35.250       393
35.260       373
35.270       360
35.280       353
35.290       253
35.300       327
35.310       153
35.320       120
35.330       107
35.340       107
35.350        87
35.360        40
35.370        40
35.380        13
35.390        27
35.400        40
35.410        33
35.420        40
35.430         7
35.440        40
35.450        13
35.460        13
35.470        33
35.480        40
35.490        20
35.500        13
35.510         7
35.520        40
35.530        60
35.540        20
35.550        33
35.560        53
35.570        13
35.580        13
35.590        20
35.600        27
35.610        33
35.620        20
35.630        33
35.640        33
35.650        13
35.660        20
35.670        13
35.680        20
35.690        13
35.700        33
35.710        40
35.720        27
35.730        27
35.740        20
35.750        27
35.760        13
35.770        13
35.780         7
35.790        27
35.800        47
35.810        13
35.820        27
35.830        33
35.840        20
35.850        13
35.860        33
35.870        13
35.880        33
35.890        13
35.900         0
35.910         7
35.920        40
35.930        20
35.940         7
35.950        27
35.960        27
35.970         7
35.980        13
35.990        20
36.000         7
36.010        27
36.020        27
36.030        33
36.040        33
36.050        13
36.060        13
36.070        27
36.080        27
36.090        33
36.100        20
36.110        20
36.120        27
36.130        27
36.140        47
36.150        20
36.160         7
36.170         0
36.180        40
36.190        33
36.200        53
36.210         7
36.220        33
36.230         7
36.240        40
36.250        47
36.260        47
36.270        27
36.280        13
36.290         7
36.300        27
36.310        20
36.320        13
36.330        27
36.340         0
36.350        27
36.360        33
36.370        33
36.380        20
36.390        27
36.400         0
36.410        20
36.420        13
36.430         7
36.440        13
36.450        33
36.460        20
36.470        27
36.480        33
36.490        40
36.500        13
36.510         7
36.520        13
36.530        27
36.540        20
36.550        20
36.560        40
36.570        33
36.580         7
36.590        20
36.600        33
36.610        27
36.620        13
36.630        20
36.640         0
36.650        40
36.660         7
36.670        47
36.680        20
36.690         7
36.700        27
36.710        13
36.720        40
36.730        47
36.740        33
36.750        33
36.760        47
36.770        27
36.780        47
36.790        20
36.800        33
36.810        27
36.820        27
36.830        33
36.840        20
36.850        40
36.860        33
36.870        33
36.880        33
36.890        13
36.900        20
36.910        40
36.920        27
36.930        20
36.940        13
36.950        27
36.960        13
36.970        33
36.980        40
36.990        20
37.000        13
37.010        33
37.020        27
37.030        20
37.040        13
37.050        27
37.060        27
37.070        40
37.080        33
37.090        40
37.100         7
37.110        13
37.120        20
37.130        33
37.140        13
37.150         0
37.160        20
37.170        47
37.180        27
37.190        20
37.200        33
37.210        20
37.220        13
37.230        20
37.240        27
37.250        13
37.260        33
37.270        20
37.280        33
37.290        13
37.300        47
37.310         7
37.320         7
37.330         7
37.340        13
37.350        13
37.360        27
37.370        33
37.380        33
37.390        13
37.400        40
37.410         7
37.420        33
37.430        40
37.440        53
37.450        13
37.460        27
37.470        13
37.480        27
37.490        13
37.500        53
37.510        13
37.520        40
37.530         7
37.540        27
37.550        33
37.560        40
37.570        27
37.580        40
37.590        33
37.600        47
37.610        20
37.620        27
37.630        33
37.640        20
37.650        27
37.660        67
37.670        73
37.680        87
37.690        87
37.700       107
37.710       100
37.720       147
37.730       120
37.740       113
37.750        33
37.760       107
37.770       100
37.780        80
37.790       133
37.800       207
37.810       247
37.820       207
37.830       220
37.840       167
37.850       140
37.860       153
37.870        87
37.880        93
37.890        87
37.900        80
37.910       120
37.920        93
37.930       127
37.940        53
37.950        93
37.960        80
37.970        40
37.980        67
37.990        27
38.000        73
38.010        33
38.020         0
38.030        47
38.040         7
38.050        20
38.060        47
38.070         7
38.080         7
38.090        33
38.100         0
38.110        20
38.120        20
38.130        40
38.140        20
38.150        20
38.160         7
38.170        20
38.180        13
38.190        20
38.200        27
38.210        47
38.220        20
38.230         7
38.240        27
38.250        20
38.260        33
38.270        40
38.280         7
38.290        20
38.300        47
38.310        40
38.320        33
38.330         7
38.340        40
38.350        13
38.360        20
38.370        33
38.380         7
38.390        40
38.400        33
38.410        47
38.420        20
38.430         7
38.440        33
38.450        40
38.460         7
38.470        13
38.480        33
38.490        13
38.500        13
38.510        27
38.520         7
38.530        13
38.540        20
38.550         7
38.560        47
38.570        33
38.580        27
38.590        20
38.600        33
38.610        20
38.620        33
38.630         7
38.640         0
38.650        20
38.660        40
38.670        33
38.680        20
38.690        13
38.700        13
38.710         7
38.720        20
38.730        40
38.740        20
38.750         7
38.760        13
38.770        13
38.780        27
38.790        60
38.800        40
38.810        53
38.820        27
38.830        13
38.840        13
38.850        33
38.860        27
38.870        40
38.880        13
38.890        47
38.900         7
38.910        33
38.920         7
38.930        13
38.940        33
38.950        13
38.960        20
38.970         0
38.980        20
38.990        27
39.000         7
39.010         7
39.020         0
39.030         7
39.040        20
39.050        27
39.060        27
39.070        40
39.080        27
39.090        13
39.100         7
39.110        20
39.120        33
39.130        13
39.140        33
39.150         7
39.160         7
39.170        27
39.180         0
39.190        53
39.200        13
39.210        27
39.220        20
39.230        13
39.240        13
39.250        27
39.260        27
39.270        47
39.280        20
39.290        27
39.300        13
39.310        47
39.320        13
39.330        33
39.340        13
39.350        27
39.360        27
39.370         7
39.380        20
39.390        27
39.400         7
39.410        20
39.420        13
39.430        13
39.440        27
39.450        33
39.460         7
39.470        13
39.480        33
39.490         7
39.500        13
39.510        27
39.520         7
39.530        27
39.540        27
39.550         7
39.560         7
39.570        27
39.580         7
39.590        13
39.600        13
39.610        20
39.620        13
39.630        27
39.640        33
39.650        27
39.660        27
39.670        13
39.680        20
39.690        20
39.700        13
39.710        33
39.720         7
39.730        33
39.740        13
39.750        33
39.760        27
39.770        27
39.780         7
39.790        20
39.800        40
39.810        27
39.820        13
39.830        67
39.840        40
39.850        40
39.860        27
39.870        20
39.880        13
39.890        27
39.900        13
39.910        20
39.920        60
39.930        33
39.940        13
39.950        60
39.960        20
39.970        53
39.980        47
39.990        27
40.000        60
40.010        67
40.020        87
40.030        40
40.040        60
40.050        47
40.060        60
40.070        47
40.080        87
40.090        53
40.100        53
40.110        47
40.120        20
40.130        47
40.140        47
40.150        47
40.160        40
40.170        33
40.180        40
40.190        60
40.200        40
40.210        27
40.220        60
40.230        33
40.240        27
40.250        27
40.260        20
40.270        13
40.280        20
40.290        33
40.300        20
40.310        13
40.320         7
40.330        20
40.340        20
40.350        33
40.360         7
40.370        20
40.380        13
40.390        20
40.400        13
40.410         7
40.420         7
40.430        33
40.440        60
40.450         7
40.460         7
40.470        20
40.480        33
40.490        13
40.500        27
40.510         7
40.520        20
40.530        13
40.540        20
40.550         0
40.560        33
40.570        20
40.580        40
40.590        27
40.600        13
40.610        27
40.620         7
40.630        80
40.640        47
40.650        13
40.660        13
40.670        33
40.680        33
40.690        27
40.700        13
40.710        20
40.720        20
40.730        13
40.740        27
40.750         0
40.760         7
40.770         0
40.780        13
40.790        13
40.800        20
40.810        27
40.820        13
40.830        33
40.840        13
40.850        33
40.860        20
40.870        33
40.880        20
40.890        13
40.900         0
40.910        27
40.920        20
40.930        33
40.940        20
40.950        13
40.960        20
40.970        27
40.980        33
40.990        27
41.000         7
41.010        27
41.020        27
41.030        13
41.040         0
41.050         7
41.060        20
41.070        33
41.080         7
41.090        27
41.100        20
41.110        20
41.120        27
41.130        13
41.140        13
41.150        27
41.160        13
41.170         7
41.180        33
41.190        27
41.200        27
41.210        33
41.220        27
41.230         7
41.240         0
41.250        33
41.260        20
41.270        20
41.280         7
41.290        33
41.300        13
41.310        33
41.320         7
41.330        13
41.340        13
41.350        27
41.360        20
41.370        33
41.380        13
41.390         7
41.400        20
41.410         0
41.420         7
41.430         7
41.440         7
41.450        13
41.460        53
41.470        33
41.480         7
41.490        20
41.500        67
41.510        33
41.520        40
41.530        13
41.540        20
41.550        20
41.560        27
41.570        47
41.580        40
41.590        53
41.600        33
41.610        40
41.620        60
41.630        47
41.640        67
41.650        67
41.660       100
41.670       120
41.680       133
41.690       147
41.700       140
41.710       120
41.720        93
41.730        87
41.740        87
41.750        73
41.760        93
41.770        87
41.780       100
41.790        73
41.800        60
41.810        53
41.820       100
41.830        33
41.840        53
41.850        60
41.860        33
41.870        33
41.880        33
41.890        40
41.900        53
41.910        40
41.920        40
41.930        20
41.940        20
41.950         7
41.960        27
41.970        20
41.980        27
41.990        27
42.000        33
42.010        20
42.020        40
42.030         7
42.040         0
42.050        47
42.060        33
42.070        33
42.080        33
42.090         7
42.100        20
42.110         0
42.120        27
42.130        13
42.140         7
42.150        53
42.160        27
42.170        20
42.180         7
42.190        13
42.200         7
42.210        20
42.220        13
42.230         7
42.240        20
42.250        40
42.260        20
42.270         7
42.280        20
42.290        13
42.300        27
42.310        27
42.320        27
42.330         7
42.340        20
42.350        13
42.360        33
42.370        27
42.380        13
42.390        20
42.400        47
42.410        20
42.420        13
42.430        20
42.440        20
42.450        27
42.460         7
42.470        27
42.480        27
42.490        53
42.500        20
42.510        13
42.520        27
42.530        33
42.540        13
42.550        13
42.560        13
42.570        47
42.580         7
42.590        13
42.600        13
42.610        33
42.620        27
42.630        20
42.640         7
42.650         7
42.660         7
42.670        13
42.680        20
42.690         7
42.700        27
42.710        13
42.720         7
42.730        20
42.740        13
42.750        40
42.760        20
42.770        13
42.780        13
42.790        20
42.800        33
42.810         7
42.820        27
42.830        27
42.840         7
42.850        20
42.860        27
42.870        13
42.880         0
42.890        20
42.900        40
42.910        20
42.920        13
42.930        27
42.940        20
42.950        13
42.960        13
42.970        40
42.980        27
42.990        33
43.000        33
43.010        20
43.020        20
43.030        27
43.040        27
43.050        20
43.060         7
43.070        40
43.080        40
43.090        13
43.100        33
43.110        33
43.120        20
43.130        20
43.140        40
43.150        27
43.160        60
43.170        47
43.180        40
43.190        27
43.200        40
43.210        27
43.220        73
43.230        27
43.240        67
43.250        87
43.260        93
43.270       100
43.280       107
43.290       133
43.300       173
43.310       207
43.320       227
43.330       240
43.340       233
43.350       273
43.360       367
43.370       433
43.380       387
43.390       393
43.400       433
43.410       393
43.420       240
43.430       173
43.440       193
43.450       240
43.460       147
43.470       213
43.480       200
43.490       153
43.500       180
43.510       153
43.520       140
43.530       187
43.540       140
43.550        87
43.560        60
43.570        27
43.580        33
43.590        47
43.600        33
43.610        27
43.620        33
43.630         7
43.640         7
43.650        47
43.660        20
43.670        13
43.680        47
43.690        13
43.700        40
43.710        13
43.720         0
43.730        40
43.740        40
43.750        20
43.760        20
43.770        20
43.780        13
43.790        20
43.800         7
43.810        13
43.820        20
43.830        47
43.840        20
43.850        13
43.860        27
43.870        33
43.880        20
43.890        33
43.900        27
43.910        20
43.920         7
43.930        13
43.940        13
43.950        20
43.960        20
43.970        13
43.980        33
43.990        40
44.000         7
44.010        20
44.020        47
44.030        27
44.040        20
44.050         0
44.060        13
44.070         0
44.080        20
44.090         7
44.100        33
44.110         7
44.120        27
44.130        13
44.140        20
44.150         0
44.160         7
44.170         7
44.180        27
44.190        13
44.200        40
44.210        33
44.220         7
44.230        33
44.240        20
44.250         7
44.260        33
44.270        27
44.280        27
44.290        20
44.300        13
44.310        20
44.320         7
44.330        20
44.340         7
44.350         7
44.360        13
44.370        20
44.380        13
44.390        13
44.400        20
44.410        13
44.420         7
44.430         0
44.440        33
44.450        13
44.460        13
44.470        13
44.480        13
44.490        20
44.500        13
44.510        13
44.520        20
44.530        13
44.540        13
44.550        40
44.560        33
44.570        13
44.580         0
44.590         7
44.600        33
44.610        20
44.620        13
44.630        27
44.640        33
44.650        20
44.660        33
44.670        20
44.680        13
44.690        13
44.700        33
44.710        27
44.720        20
44.730         7
44.740         7
44.750        27
44.760        20
44.770         0
44.780        33
44.790        27
44.800        13
44.810        20
44.820        27
44.830        13
44.840        33
44.850         0
44.860        13
44.870        33
44.880         7
44.890         7
44.900        27
44.910        13
44.920        47
44.930         7
44.940        20
44.950         7
44.960        27
44.970        20
44.980         7
44.990        13
45.000        20
45.010        40
45.020        20
45.030        20
45.040        20
45.050        13
45.060        20
45.070        27
45.080         7
45.090        13
45.100        20
45.110        20
45.120        20
45.130        13
45.140        13
45.150        13
45.160        33
45.170        27
45.180        20
45.190        20
45.200        20
45.210        27
45.220        20
45.230        40
45.240        13
45.250        27
45.260        13
45.270        27
45.280        40
45.290         0
45.300        27
45.310         7
45.320         7
45.330        13
45.340        40
45.350        20
45.360        40
45.370        20
45.380        33
45.390        47
45.400        27
45.410        33
45.420        20
45.430        27
45.440        40
45.450        27
45.460        13
45.470        40
45.480         7
45.490         7
45.500        13
45.510        47
45.520        20
45.530        27
45.540        33
45.550        27
45.560         7
45.570        13
45.580        20
45.590        27
45.600        27
45.610        13
45.620        33
45.630        33
45.640        20
45.650        20
45.660         7
45.670         7
45.680         7
45.690        13
45.700        33
45.710        40
45.720        13
45.730        33
45.740         7
45.750        13
45.760        13
45.770        40
45.780        20
45.790        40
45.800        33
45.810        20
45.820        33
45.830        27
45.840        47
45.850        40
45.860        13
45.870         0
45.880        33
45.890        20
45.900        20
45.910        60
45.920        27
45.930        13
45.940         7
45.950        60
45.960        33
45.970        27
45.980        33
45.990        20
46.000        40
46.010        13
46.020         0
46.030        53
46.040         7
46.050        33
46.060        53
46.070        60
46.080        27
46.090        27
46.100        33
46.110        20
46.120        67
46.130        87
46.140        33
46.150        67
46.160        20
46.170        20
46.180        40
46.190        53
46.200        73
46.210        13
46.220        33
46.230        53
46.240        73
46.250        60
46.260        73
46.270        80
46.280       173
46.290        80
46.300       140
46.310       140
46.320        93
46.330       113
46.340       127
46.350       127
46.360       147
46.370       167
46.380       173
46.390       173
46.400       173
46.410       207
46.420       327
46.430       273
46.440       287
46.450       426
46.460       433
46.470       400
46.480       420
46.490       526
46.500       540
46.510       586
46.520       693
46.530       493
46.540       600
46.550       753
46.560       746
46.570       680
46.580       760
46.590       760
46.600       660
46.610       593
46.620       840
46.630       666
46.640       800
46.650       673
46.660       706
46.670       513
46.680       580
46.690       520
46.700       606
46.710       486
46.720       546
46.730       360
46.740       440
46.750       300
46.760       327
46.770       273
46.780       280
46.790       207
46.800       267
46.810       207
46.820       247
46.830       153
46.840       173
46.850       107
46.860       113
46.870        67
46.880       120
46.890        80
46.900        73
46.910        80
46.920        53
46.930       107
46.940       107
46.950        80
46.960        27
46.970        40
46.980        80
46.990        67
47.000        93
47.010        40
47.020        40
47.030        33
47.040        53
47.050        40
47.060        60
47.070        67
47.080        27
47.090        33
47.100        40
47.110        40
47.120        60
47.130        13
47.140        47
47.150        47
47.160        27
47.170        33
47.180         7
47.190        27
47.200        60
47.210        27
47.220        47
47.230        53
47.240        27
47.250        40
47.260        27
47.270        27
47.280        47
47.290        27
47.300        13
47.310        47
47.320        20
47.330        13
47.340        20
47.350        27
47.360        40
47.370         7
47.380        27
47.390        27
47.400        40
47.410        27
47.420         7
47.430        27
47.440        13
47.450        33
47.460        13
47.470        27
47.480        27
47.490        27
47.500        13
47.510        13
47.520        13
47.530        20
47.540        33
47.550        27
47.560        33
47.570        13
47.580        47
47.590        13
47.600         7
47.610        13
47.620        40
47.630        13
47.640         7
47.650        20
47.660        33
47.670        27
47.680         0
47.690        20
47.700        27
47.710        20
47.720        27
47.730        20
47.740        13
47.750        20
47.760        33
47.770        20
47.780        13
47.790        13
47.800        27
47.810        27
47.820         0
47.830         0
47.840        20
47.850        13
47.860        27
47.870        13
47.880        27
47.890        33
47.900         7
47.910         0
47.920         7
47.930        20
47.940        13
47.950        20
47.960        13
47.970        13
47.980        33
47.990        40
48.000        27
48.010        33
48.020         7
48.030        13
48.040        20
48.050        27
48.060        20
48.070        33
48.080        20
48.090        40
48.100         7
48.110        27
48.120        20
48.130         0
48.140         7
48.150        40
48.160        27
48.170         7
48.180        20
48.190         7
48.200        33
48.210         7
48.220        20
48.230         7
48.240        13
48.250        13
48.260        20
48.270        20
48.280        13
48.290        20
48.300        27
48.310        20
48.320        20
48.330        33
48.340        13
48.350        27
48.360        13
48.370        20
48.380        33
48.390        40
48.400        20
48.410        13
48.420        13
48.430        20
48.440        20
48.450        20
48.460        27
48.470        13
48.480        13
48.490        27
48.500         7
48.510        47
48.520         7
48.530        20
48.540         7
48.550         7
48.560        20
48.570        13
48.580        20
48.590         7
48.600        33
48.610        13
48.620         7
48.630        27
48.640         7
48.650         0
48.660        27
48.670        13
48.680        13
48.690        13
48.700         7
48.710        20
48.720        20
48.730        33
48.740         7
48.750         7
48.760         7
48.770         7
48.780        13
48.790        13
48.800        13
48.810        20
48.820         7
48.830        13
48.840        40
48.850         7
48.860         7
48.870        27
48.880        20
48.890        27
48.900        20
48.910        20
48.920        20
48.930         7
48.940        40
48.950        27
48.960        27
48.970        20
48.980        27
48.990        13
49.000        20
49.010        13
49.020        13
49.030         7
49.040        13
49.050        33
49.060        27
49.070        33
49.080        27
49.090        13
49.100        13
49.110         7
49.120        33
49.130        33
49.140        20
49.150        47
49.160         0
49.170        27
49.180        13
49.190        13
49.200         7
49.210        13
49.220        20
49.230         7
49.240        20
49.250        13
49.260        20
49.270         0
49.280        33
49.290         7
49.300        33
49.310        13
49.320         0
49.330        13
49.340        20
49.350         0
49.360        13
49.370        20
49.380        20
49.390         7
49.400        13
49.410        20
49.420        27
49.430        33
49.440        20
49.450        27
49.460        13
49.470        20
49.480         0
49.490         7
49.500        27
49.510        13
49.520        20
49.530        33
49.540         7
49.550         7
49.560        20
49.570        13
49.580        20
49.590         7
49.600        13
49.610         0
49.620        13
49.630         7
49.640        13
49.650        20
49.660        13
49.670        33
49.680        13
49.690        13
49.700        13
49.710         7
49.720        13
49.730        47
49.740        13
49.750         0
49.760        20
49.770        13
49.780        20
49.790        40
49.800        27
49.810         0
49.820         7
49.830        13
49.840        20
49.850        27
49.860        20
49.870        20
49.880        13
49.890        27
49.900        13
49.910        13
49.920         0
49.930        13
49.940        13
49.950         7
49.960        13
49.970         0
49.980         7
49.990        13
50.000        27
50.010        27
50.020        13
50.030        20
50.040        20
50.050        13
50.060         0
50.070         0
50.080        20
50.090        33
50.100        20
50.110        33
50.120        33
50.130         7
50.140        27
50.150         7
50.160        13
50.170         7
50.180        13
50.190        20
50.200        20
50.210        20
50.220        13
50.230        13
50.240         7
50.250         0
50.260         7
50.270        40
50.280        13
50.290         7
50.300        20
50.310        20
50.320        13
50.330        20
50.340        13
50.350        27
50.360        20
50.370        13
50.380         7
50.390        27
50.400         7
50.410        20
50.420        20
50.430        13
50.440         0
50.450         7
50.460        13
50.470        20
50.480         7
50.490         7
50.500        33
50.510        27
50.520        20
50.530        20
50.540        47
50.550        33
50.560         0
50.570        13
50.580         7
50.590        13
50.600         0
50.610        13
50.620        27
50.630         7
50.640        20
50.650         7
50.660        20
50.670         7
50.680         0
50.690        20
50.700         7
50.710        40
50.720         0
50.730        20
50.740         7
50.750        33
50.760         7
50.770        20
50.780        13
50.790         7
50.800        27
50.810         7
50.820        20
50.830        33
50.840         7
50.850         7
50.860         0
50.870         7
50.880        47
50.890         7
50.900        20
50.910         7
50.920        13
50.930         7
50.940        13
50.950        13
50.960         7
50.970        13
50.980        20
50.990         0
51.000        33
51.010         7
51.020        20
51.030        13
51.040        20
51.050        13
51.060         7
51.070        13
51.080        13
51.090         7
51.100        13
51.110         0
51.120         0
51.130         7
51.140        13
51.150        20
51.160         7
51.170        20
51.180        20
51.190         7
51.200         7
51.210         0
51.220        13
51.230        20
51.240        27
51.250        20
51.260        20
51.270        20
51.280         7
51.290         7
51.300        33
51.310        33
51.320        20
51.330         7
51.340        33
51.350        13
51.360        13
51.370        27
51.380        20
51.390         7
51.400        33
51.410         7
51.420        27
51.430         0
51.440        27
51.450         7
51.460        13
51.470        13
51.480         7
51.490        13
51.500        13
51.510        33
51.520        20
51.530        13
51.540         7
51.550        13
51.560        13
51.570        33
51.580        27
51.590        20
51.600        40
51.610        40
51.620         7
51.630        27
51.640        27
51.650         7
51.660        27
51.670        13
51.680        13
51.690        13
51.700        27
51.710        27
51.720        33
51.730        20
51.740        33
51.750         7
51.760        20
51.770        20
51.780        13
51.790        13
51.800        27
51.810        33
51.820         0
51.830         0
51.840        27
51.850        20
51.860         7
51.870        13
51.880         7
51.890        27
51.900         7
51.910        13
51.920         0
51.930         7
51.940        33
51.950        20
51.960        13
51.970         7
51.980         7
51.990         0
52.000        20
52.010        20
52.020        20
52.030        20
52.040        13
52.050        40
52.060        13
52.070        13
52.080         7
52.090         0
52.100         7
52.110         7
52.120        20
52.130         7
52.140         0
52.150        40
52.160        20
52.170        13
52.180        13
52.190        20
52.200         7
52.210        27
52.220        20
52.230         7
52.240        13
52.250        20
52.260        47
52.270        20
52.280        20
52.290        13
52.300        20
52.310        20
52.320         7
52.330        40
52.340        13
52.350        13
52.360        20
52.370        27
52.380        13
52.390        27
52.400        27
52.410        53
52.420        27
52.430        13
52.440        47
52.450        33
52.460        40
52.470        47
52.480        27
52.490        87
52.500        53
52.510        73
52.520        93
52.530        60
52.540       127
52.550       100
52.560       133
52.570       173
52.580       173
52.590       160
52.600       120
52.610       160
52.620       120
52.630       113
52.640        67
52.650        73
52.660        67
52.670        40
52.680        53
52.690        60
52.700        67
52.710        60
52.720        60
52.730        40
52.740       120
52.750        93
52.760        87
52.770        13
52.780        27
52.790        33
52.800        40
52.810        33
52.820        13
52.830         7
52.840        13
52.850        27
52.860        13
52.870         0
52.880        20
52.890         7
52.900        27
52.910        20
52.920         7
52.930        13
52.940        20
52.950        13
52.960        13
52.970        20
52.980        20
52.990         0
53.000        20
53.010        33
53.020        13
53.030        13
53.040         7
53.050        20
53.060        27
53.070        13
53.080        13
53.090        13
53.100         7
53.110         0
53.120        20
53.130         7
53.140        13
53.150        13
53.160        33
53.170        27
53.180        13
53.190        13
53.200        13
53.210         7
53.220         7
53.230        13
53.240        13
53.250        13
53.260        40
53.270         7
53.280        20
53.290        13
53.300         7
53.310        20
53.320        13
53.330        20
53.340         7
53.350        47
53.360        13
53.370         0
53.380         7
53.390         7
53.400        33
53.410        13
53.420        27
53.430         7
53.440        13
53.450         0
53.460        27
53.470        27
53.480        13
53.490         0
53.500         7
53.510        33
53.520        13
53.530        13
53.540        20
53.550         0
53.560        20
53.570        20
53.580        13
53.590        33
53.600        20
53.610        13
53.620        13
53.630        13
53.640         7
53.650        20
53.660        13
53.670         0
53.680        20
53.690        33
53.700         0
53.710         0
53.720        13
53.730        20
53.740        20
53.750        20
53.760        20
53.770        20
53.780        33
53.790        40
53.800        13
53.810        13
53.820        13
53.830        13
53.840        20
53.850        13
53.860         0
53.870        13
53.880        13
53.890        27
53.900        13
53.910        27
53.920         7
53.930        20
53.940         0
53.950        20
53.960         7
53.970         0
53.980        20
53.990        20
54.000         7
54.010        13
54.020        20
54.030         7
54.040        13
54.050         7
54.060        20
54.070        20
54.080        20
54.090        20
54.100        20
54.110         7
54.120        13
54.130        20
54.140        20
54.150        33
54.160        20
54.170        13
54.180        20
54.190        20
54.200        13
54.210         7
54.220        27
54.230         0
54.240        13
54.250        20
54.260        13
54.270        13
54.280         7
54.290         7
54.300        20
54.310         0
54.320         7
54.330        27
54.340        40
54.350        20
54.360         7
54.370        27
54.380        20
54.390         7
54.400        33
54.410        20
54.420        13
54.430        27
54.440         7
54.450        20
54.460        27
54.470         7
54.480         7
54.490         0
54.500        20
54.510         0
54.520         0
54.530         0
54.540         7
54.550        33
54.560        33
54.570         7
54.580         7
54.590        27
54.600         0
54.610        40
54.620        27
54.630        13
54.640         0
54.650        13
54.660         0
54.670         0
54.680        27
54.690        20
54.700         0
54.710        13
54.720         7
54.730        33
54.740         7
54.750         7
54.760        33
54.770        27
54.780         0
54.790        20
54.800         7
54.810        13
54.820         7
54.830        33
54.840        13
54.850        53
54.860        13
54.870        13
54.880        20
54.890        33
54.900         7
54.910        27
54.920         7
54.930        20
54.940         7
54.950        13
54.960        27
54.970        27
54.980         7
54.990        13
55.000        13
55.010        27
55.020        13
55.030        20
55.040        20
55.050        27
55.060        13
55.070        20
55.080         0
55.090         7
55.100         7
55.110         7
55.120        13
55.130        20
55.140         7
55.150        20
55.160        27
55.170        20
55.180        27
55.190        27
55.200         7
55.210         7
55.220        33
55.230         7
55.240        27
55.250        27
55.260         0
55.270        20
55.280        13
55.290        13
55.300        20
55.310        13
55.320        20
55.330        33
55.340        13
55.350         7
55.360        13
55.370         0
55.380         7
55.390         0
55.400        13
55.410         7
55.420         7
55.430        27
55.440        13
55.450        13
55.460        13
55.470        27
55.480        13
55.490         0
55.500        20
55.510        27
55.520        13
55.530         7
55.540         0
55.550        13
55.560         7
55.570        13
55.580        20
55.590         0
55.600        20
55.610        27
55.620        13
55.630         7
55.640         0
55.650         7
55.660         7
55.670         0
55.680        27
55.690        20
55.700        13
55.710        20
55.720         7
55.730         7
55.740        13
55.750        13
55.760         7
55.770        13
55.780        33
55.790         7
55.800         7
55.810        20
55.820        13
55.830        13
55.840         7
55.850        27
55.860         7
55.870        13
55.880        27
55.890        33
55.900        13
55.910        13
55.920        13
55.930         7
55.940        13
55.950         7
55.960         7
55.970        20
55.980         0
55.990         7
56.000         7
56.010         7
56.020         7
56.030        13
56.040        13
56.050        33
56.060         7
56.070        27
56.080        13
56.090        20
56.100        20
56.110         0
56.120        13
56.130        13
56.140        20
56.150        27
56.160         7
56.170        13
56.180         7
56.190         7
56.200        13
56.210         7
56.220        20
56.230         7
56.240        33
56.250         0
56.260        13
56.270         7
56.280        20
56.290        27
56.300        13
56.310        20
56.320         7
56.330        13
56.340        13
56.350        20
56.360         0
56.370        13
56.380        20
56.390         0
56.400        27
56.410        27
56.420        27
56.430         7
56.440        13
56.450         7
56.460        13
56.470        13
56.480         7
56.490        20
56.500        20
56.510        27
56.520        33
56.530         0
56.540        27
56.550         7
56.560        13
56.570         7
56.580        27
56.590        13
56.600         7
56.610        13
56.620        33
56.630        13
56.640         0
56.650         7
56.660         7
56.670        40
56.680         0
56.690        20
56.700        27
56.710        27
56.720         7
56.730        20
56.740        20
56.750        33
56.760        13
56.770         7
56.780        20
56.790        13
56.800         0
56.810         0
56.820        13
56.830        27
56.840         7
56.850        20
56.860        27
56.870         0
56.880        27
56.890         7
56.900         0
56.910        13
56.920        20
56.930        27
56.940        33
56.950         7
56.960        33
56.970        20
56.980        13
56.990         7
57.000        20
57.010        20
57.020         7
57.030         7
57.040        13
57.050        27
57.060        13
57.070        20
57.080         7
57.090        13
57.100        13
57.110        33
57.120        33
57.130         0
57.140         7
57.150        20
57.160        27
57.170        13
57.180        33
57.190         7
57.200        47
57.210        40
57.220        27
57.230        13
57.240        33
57.250        47
57.260        53
57.270        20
57.280        80
57.290        73
57.300        47
57.310        33
57.320        33
57.330        40
57.340        80
57.350        33
57.360       113
57.370        20
57.380        87
57.390        53
57.400        93
57.410       100
57.420       107
57.430       100
57.440       113
57.450       180
57.460       187
57.470       307
57.480       506
57.490       360
57.500       666
57.510       866
57.520       966
57.530       813
57.540      1026
57.550       900
57.560      1060
57.570       880
57.580       593
57.590       367
57.600       460
57.610       367
57.620       200
57.630       280
57.640       233
57.650       327
57.660       413
57.670       367
57.680       533
57.690       506
57.700       580
57.710       466
57.720       473
57.730       320
57.740       287
57.750       200
57.760       180
57.770        87
57.780        73
57.790        60
57.800        53
57.810        60
57.820        67
57.830        20
57.840        40
57.850        47
57.860        47
57.870        47
57.880        20
57.890        20
57.900        27
57.910        40
57.920        27
57.930        47
57.940        47
57.950         7
57.960        20
57.970        20
57.980        13
57.990        20
58.000        20
58.010         7
58.020        20
58.030        33
58.040        20
58.050        13
58.060        47
58.070        53
58.080        47
58.090         7
58.100        20
58.110        13
58.120        27
58.130        33
58.140         7
58.150        27
58.160        20
58.170        20
58.180        13
58.190        33
58.200        20
58.210         7
58.220        20
58.230        27
58.240        13
58.250        20
58.260         7
58.270         7
58.280        13
58.290         7
58.300        20
58.310        13
58.320        13
58.330         0
58.340        13
58.350        20
58.360        13
58.370         7
58.380        13
58.390         7
58.400        13
58.410        20
58.420        13
58.430        20
58.440        13
58.450        20
58.460         7
58.470         0
58.480        13
58.490         0
58.500        13
58.510        47
58.520        13
58.530        13
58.540         7
58.550        20
58.560        13
58.570        20
58.580        33
58.590        13
58.600        27
58.610        27
58.620        20
58.630        20
58.640        20
58.650         7
58.660        20
58.670        20
58.680         7
58.690        13
58.700        13
58.710        20
58.720         7
58.730        20
58.740        13
58.750        20
58.760        13
58.770        13
58.780        20
58.790        20
58.800         0
58.810         7
58.820         7
58.830         7
58.840         7
58.850        13
58.860        27
58.870         7
58.880        33
58.890        20
58.900         0
58.910        27
58.920         7
58.930        27
58.940        27
58.950        27
58.960        13
58.970        20
58.980        27
58.990         7
59.000        13
59.010         7
59.020         7
59.030        20
59.040        13
59.050        20
59.060         0
59.070         7
59.080         7
59.090        27
59.100        13
59.110        27
59.120        27
59.130        27
59.140         0
59.150        13
59.160         7
59.170        27
59.180         0
59.190         0
59.200        20
59.210         0
59.220        40
59.230         7
59.240         0
59.250        20
59.260         0
59.270        20
59.280        27
59.290         0
59.300        20
59.310        13
59.320        20
59.330         0
59.340        13
59.350        13
59.360         7
59.370        13
59.380        27
59.390        13
59.400        20
59.410        13
59.420         7
59.430         7
59.440        20
59.450        13
59.460         7
59.470         7
59.480        27
59.490         7
59.500         7
59.510        60
59.520        20
59.530         7
59.540         0
59.550        20
59.560        13
59.570        13
59.580        20
59.590        13
59.600        20
59.610         0
59.620        13
59.630         7
59.640        13
59.650         7
59.660         7
59.670        13
59.680         0
59.690         7
59.700         7
59.710        20
59.720        13
59.730        20
59.740        33
59.750         7
59.760        13
59.770         0
59.780        27
59.790         7
59.800        53
59.810        27
59.820        27
59.830         7
59.840        13
59.850        27
59.860        20
59.870        13
59.880        27
59.890         7
59.900        27
59.910        20
59.920        33
59.930         7
59.940         7
59.950         0
59.960         7
59.970        13
59.980         7
59.990        20
60.000        20
