20.000        80
20.010        47
20.020        53
20.030        33
20.040        60
20.050        33
20.060        53
20.070        80
20.080        27
20.090        33
20.100        47
20.110        60
20.120        47
20.130        53
20.140        47
20.150        87
20.160        53
20.170        53
20.180        27
20.190        40
20.200        93
20.210        33
20.220        60
20.230        20
20.240        47
20.250         7
20.260        27
20.270        40
20.280        33
20.290        40
20.300        40
20.310        33
20.320        80
20.330        20
20.340        47
20.350        60
20.360        60
20.370        40
20.380        73
20.390        27
20.400        60
20.410        53
20.420        27
20.430        13
20.440        27
20.450        60
20.460        53
20.470        13
20.480        93
20.490        20
20.500        27
20.510        47
20.520        40
20.530        73
20.540        47
20.550        67
20.560        27
20.570        27
20.580        53
20.590        60
20.600        33
20.610        80
20.620        33
20.630        33
20.640        47
20.650        33
20.660        60
20.670        80
20.680        40
20.690        53
20.700        20
20.710        20
20.720        73
20.730        27
20.740        53
20.750        40
20.760        53
20.770        33
20.780        27
20.790        33
20.800        33
20.810        80
20.820        27
20.830        47
20.840        27
20.850        27
20.860        40
20.870        67
20.880        27
20.890        33
20.900        87
20.910        20
20.920        60
20.930        40
20.940        47
20.950        60
20.960        33
20.970        53
20.980        33
20.990        20
21.000        67
21.010        20
21.020        33
21.030        60
21.040        40
21.050        40
21.060        67
21.070        53
21.080        40
21.090        47
21.100        20
21.110       100
21.120        47
21.130        27
21.140        33
21.150        53
21.160        40
21.170        27
21.180        53
21.190        47
21.200        33
21.210        27
21.220        47
21.230        47
21.240        73
21.250        47
21.260        53
21.270        13
21.280         7
21.290        73
21.300        60
21.310        33
21.320        40
21.330        47
21.340        73
21.350        60
21.360        40
21.370        53
21.380        40
21.390        40
21.400        60
21.410        47
21.420        73
21.430        53
21.440        33
21.450        80
21.460        53
21.470        80
21.480        87
21.490        60
21.500       147
21.510       107
21.520        67
21.530        73
21.540       113
21.550       167
21.560       113
21.570       107
21.580       173
21.590       120
21.600       220
21.610       167
21.620       180
21.630       273
21.640       253
21.650       233
21.660       240
21.670       267
21.680       313
21.690       247
21.700       387
21.710       240
21.720       220
21.730       287
21.740       240
21.750       200
21.760       213
21.770       227
21.780       147
21.790       120
21.800        93
21.810        67
21.820        67
21.830        47
21.840        87
21.850        60
21.860        87
21.870        80
21.880        27
21.890        40
21.900        60
21.910        27
21.920        47
21.930        33
21.940        40
21.950        80
21.960        60
21.970        40
21.980        53
21.990        60
22.000        47
22.010        40
22.020        33
22.030        53
22.040        27
22.050        33
22.060        60
22.070        47
22.080        47
22.090        47
22.100        60
22.110        20
22.120        33
22.130        47
22.140        27
22.150        53
22.160        27
22.170        27
22.180        40
22.190        33
22.200        20
22.210        40
22.220        33
22.230        47
22.240        67
22.250        27
22.260        40
22.270        47
22.280        53
22.290        40
22.300        27
22.310        60
22.320        33
22.330        27
22.340        33
22.350        60
22.360        67
22.370        60
22.380        60
22.390        40
22.400         7
22.410        40
22.420        33
22.430        27
22.440        27
22.450        53
22.460        33
22.470        27
22.480        53
22.490        40
22.500        47
22.510        60
22.520        47
22.530        53
22.540        20
22.550        20
22.560        33
22.570        20
22.580        73
22.590        27
22.600        40
22.610        60
22.620        67
22.630        33
22.640        27
22.650        27
22.660        53
22.670        47
22.680        40
22.690        47
22.700        40
22.710        80
22.720        40
22.730        20
22.740        53
22.750        27
22.760        13
22.770        20
22.780        47
22.790        53
22.800        47
22.810        33
22.820        67
22.830        53
22.840        40
22.850        33
22.860        27
22.870        33
22.880        27
22.890        33
22.900         7
22.910        27
22.920        40
22.930        60
22.940        33
22.950        40
22.960         7
22.970        53
22.980        40
22.990        47
23.000        20
23.010        60
23.020        13
23.030        33
23.040        27
23.050        47
23.060        40
23.070        53
23.080        60
23.090        27
23.100        40
23.110        27
23.120        20
23.130        53
23.140        27
23.150        33
23.160         7
23.170        47
23.180        67
23.190        20
23.200        27
23.210        60
23.220        27
23.230        33
23.240        33
23.250        40
23.260        40
23.270        33
23.280        20
23.290        33
23.300        27
23.310         7
23.320        40
23.330        27
23.340        27
23.350        53
23.360        47
23.370        27
23.380        33
23.390        20
23.400        67
23.410        27
23.420        33
23.430        40
23.440        27
23.450        67
23.460        27
23.470        67
23.480        47
23.490        33
23.500        40
23.510        20
23.520        27
23.530        27
23.540        33
23.550        20
23.560         7
23.570        47
23.580        40
23.590        40
23.600        60
23.610        53
23.620        13
23.630        47
23.640        40
23.650        47
23.660        40
23.670        13
23.680        53
23.690        40
23.700        13
23.710        47
23.720        53
23.730        47
23.740        27
23.750        47
23.760        20
23.770        27
23.780        40
23.790        33
23.800         0
23.810        20
23.820        53
23.830        60
23.840        53
23.850        40
23.860        33
23.870         7
23.880        53
23.890        33
23.900        33
23.910        60
23.920        27
23.930        13
23.940        33
23.950        53
23.960        40
23.970        40
23.980        40
23.990        40
24.000        20
24.010        33
24.020        53
24.030        20
24.040        33
24.050        27
24.060        40
24.070        33
24.080        67
24.090        40
24.100        27
24.110        27
24.120        27
24.130        20
24.140        13
24.150        20
24.160        40
24.170        20
24.180        40
24.190        27
24.200        27
24.210        53
24.220        33
24.230        27
24.240        40
24.250        33
24.260        53
24.270        33
24.280        47
24.290        33
24.300        33
24.310        33
24.320        27
24.330        40
24.340        33
24.350        20
24.360        33
24.370        53
24.380        20
24.390        20
24.400        27
24.410        20
24.420        20
24.430        47
24.440        33
24.450        47
24.460        80
24.470        20
24.480        13
24.490        53
24.500        13
24.510        47
24.520        87
24.530        33
24.540        33
24.550        27
24.560        27
24.570        20
24.580        60
24.590        47
24.600        27
24.610        73
24.620        20
24.630        33
24.640        40
24.650        27
24.660         7
24.670        40
24.680        33
24.690        20
24.700        40
24.710        33
24.720        40
24.730        33
24.740        27
24.750        20
24.760        20
24.770        13
24.780        33
24.790        13
24.800        67
24.810        33
24.820        33
24.830        40
24.840        20
24.850        60
24.860        33
24.870        20
24.880        53
24.890        53
24.900        33
24.910        27
24.920        47
24.930        40
24.940        33
24.950        47
24.960        33
24.970        67
24.980        27
24.990        27
25.000        20
25.010        40
25.020        13
25.030        13
25.040        40
25.050        60
25.060        33
25.070        33
25.080        20
25.090        27
25.100        33
25.110        33
25.120        47
25.130        33
25.140        47
25.150        27
25.160        33
25.170        60
25.180        33
25.190       107
25.200        47
25.210       140
25.220        93
25.230       127
25.240       133
25.250       173
25.260       213
25.270       147
25.280       200
25.290       240
25.300       187
25.310       253
25.320       213
25.330       253
25.340       260
25.350       173
25.360       200
25.370       153
25.380        73
25.390        93
25.400       113
25.410        67
25.420        60
25.430        93
25.440        60
25.450        47
25.460        53
25.470        47
25.480        33
25.490        27
25.500        60
25.510        40
25.520        93
25.530        33
25.540        13
25.550        33
25.560        80
25.570        80
25.580        60
25.590        20
25.600        73
25.610        73
25.620        93
25.630        27
25.640        47
25.650        13
25.660        27
25.670        13
25.680        53
25.690        40
25.700        20
25.710        13
25.720        27
25.730        20
25.740        20
25.750        33
25.760        53
25.770        40
25.780        27
25.790        27
25.800        60
25.810        20
25.820        47
25.830        47
25.840        33
25.850        53
25.860        33
25.870        33
25.880        53
25.890        53
25.900        40
25.910        20
25.920        33
25.930        47
25.940        33
25.950        27
25.960        33
25.970        40
25.980        20
25.990        20
26.000        13
26.010        20
26.020        27
26.030        27
26.040        47
26.050        20
26.060        33
26.070        40
26.080        33
26.090        60
26.100         7
26.110        47
26.120        33
26.130         7
26.140        33
26.150        33
26.160        67
26.170        73
26.180        33
26.190        33
26.200        20
26.210        33
26.220        13
26.230        20
26.240        13
26.250        27
26.260        33
26.270        47
26.280        53
26.290        47
26.300        27
26.310        40
26.320        47
26.330        27
26.340        27
26.350        20
26.360        20
26.370        33
26.380        47
26.390        40
26.400        33
26.410        33
26.420        20
26.430        27
26.440        47
26.450        27
26.460        40
26.470        67
26.480        47
26.490        60
26.500        47
26.510        60
26.520        27
26.530        40
26.540        27
26.550        40
26.560        47
26.570        33
26.580        20
26.590        40
26.600        33
26.610        40
26.620        33
26.630        13
26.640        40
26.650        47
26.660        20
26.670        20
26.680        87
26.690        40
26.700        60
26.710        20
26.720         7
26.730        40
26.740        33
26.750        40
26.760        33
26.770        40
26.780        13
26.790        27
26.800        47
26.810        40
26.820        47
26.830        33
26.840        27
26.850        40
26.860        20
26.870        47
26.880        33
26.890        33
26.900        33
26.910        13
26.920        20
26.930        33
26.940        13
26.950         7
26.960        20
26.970        20
26.980        13
26.990        27
27.000        47
27.010        20
27.020        33
27.030        27
27.040         7
27.050        53
27.060        27
27.070        40
27.080        27
27.090        20
27.100        27
27.110         7
27.120        27
27.130        20
27.140        67
27.150        33
27.160        27
27.170        13
27.180        13
27.190         7
27.200        67
27.210        47
27.220        27
27.230        27
27.240        47
27.250        20
27.260         7
27.270        13
27.280        53
27.290        40
27.300        27
27.310        47
27.320        33
27.330        33
27.340        27
27.350        20
27.360        53
27.370        67
27.380        67
27.390        20
27.400        53
27.410        33
27.420        33
27.430        47
27.440        47
27.450        27
27.460        40
27.470        33
27.480        33
27.490        13
27.500         7
27.510        53
27.520        13
27.530        33
27.540        33
27.550        47
27.560        47
27.570        33
27.580        13
27.590        53
27.600        27
27.610        33
27.620        33
27.630        67
27.640        67
27.650        47
27.660        67
27.670        33
27.680        33
27.690        40
27.700        27
27.710        40
27.720        40
27.730        47
27.740        33
27.750        67
27.760        73
27.770        87
27.780        67
27.790        40
27.800        73
27.810        60
27.820       107
27.830        60
27.840       113
27.850       100
27.860        80
27.870        60
27.880        87
27.890        47
27.900        73
27.910        80
27.920        60
27.930        80
27.940        53
27.950        47
27.960        33
27.970        40
27.980        27
27.990        20
28.000        60
28.010        67
28.020        40
28.030        53
28.040        20
28.050        53
28.060        27
28.070        53
28.080        40
28.090         7
28.100        13
28.110        40
28.120        73
28.130        67
28.140        47
28.150        53
28.160        40
28.170        53
28.180        33
28.190        40
28.200        60
28.210        13
28.220        33
28.230        40
28.240        27
28.250        47
28.260        33
28.270        27
28.280        33
28.290        33
28.300        60
28.310        33
28.320        13
28.330        27
28.340        40
28.350        27
28.360        20
28.370        60
28.380        40
28.390        13
28.400        40
28.410        67
28.420        40
28.430        27
28.440        33
28.450        33
28.460        33
28.470        27
28.480        20
28.490        20
28.500        27
28.510        33
28.520        40
28.530        20
28.540        67
28.550        40
28.560        27
28.570        40
28.580        20
28.590        27
28.600        13
28.610        53
28.620        20
28.630        27
28.640        27
28.650        47
28.660        47
28.670        53
28.680        53
28.690        27
28.700        67
28.710        33
28.720        47
28.730        47
28.740        60
28.750        33
28.760        33
28.770        40
28.780        40
28.790        20
28.800        33
28.810        13
28.820        60
28.830        40
28.840        33
28.850        60
28.860        60
28.870        67
28.880        73
28.890        47
28.900        47
28.910        13
28.920        47
28.930        27
28.940        47
28.950        27
28.960        20
28.970        13
28.980        33
28.990        40
29.000        33
29.010        60
29.020        47
29.030        53
29.040        20
29.050        67
29.060        13
29.070        27
29.080        47
29.090        60
29.100        33
29.110        93
29.120        60
29.130        47
29.140        47
29.150         0
29.160        33
29.170        20
29.180        33
29.190        40
29.200        60
29.210        20
29.220        40
29.230        53
29.240        47
29.250        40
29.260        53
29.270        33
29.280        53
29.290        20
29.300        27
29.310        20
29.320        33
29.330        13
29.340        47
29.350        27
29.360        33
29.370        40
29.380        40
29.390        47
29.400        53
29.410        67
29.420        40
29.430        27
29.440        60
29.450        20
29.460        27
29.470        53
29.480        33
29.490        40
29.500        13
29.510        60
29.520        40
29.530        13
29.540        53
29.550        53
29.560        27
29.570        33
29.580        53
29.590        40
29.600        33
29.610        33
29.620        20
29.630        53
29.640        33
29.650        33
29.660        33
29.670        27
29.680        53
29.690        33
29.700        47
29.710        27
29.720        27
29.730        27
29.740        53
29.750        60
29.760        53
29.770        13
29.780        27
29.790        47
29.800        80
29.810       107
29.820        13
29.830        47
29.840        80
29.850        40
29.860        60
29.870        53
29.880        73
29.890        60
29.900       113
29.910        80
29.920        60
29.930        87
29.940        60
29.950        87
29.960        60
29.970        80
29.980        47
29.990        67
30.000        73
30.010        87
30.020        73
30.030        67
30.040        87
30.050        53
30.060        87
30.070       113
30.080        73
30.090        47
30.100        87
30.110        87
30.120        47
30.130       107
30.140        80
30.150        80
30.160        47
30.170       100
30.180        53
30.190        47
30.200        73
30.210        80
30.220        87
30.230        53
30.240       107
30.250        60
30.260        87
30.270        87
30.280        73
30.290        80
30.300        53
30.310        67
30.320        60
30.330        53
30.340        73
30.350        67
30.360        73
30.370       100
30.380        53
30.390        67
30.400       113
30.410       107
30.420        73
30.430        87
30.440        53
30.450       120
30.460        80
30.470        67
30.480       140
30.490        73
30.500       133
30.510        93
30.520       127
30.530       160
30.540       153
30.550       127
30.560       113
30.570       213
30.580       173
30.590       167
30.600       227
30.610       233
30.620       280
30.630       313
30.640       293
30.650       413
30.660       426
30.670       380
30.680       566
30.690       580
30.700       733
30.710       866
30.720       940
30.730      1040
30.740      1220
30.750      1319
30.760      1579
30.770      1846
30.780      1999
30.790      2312
30.800      2606
30.810      3099
30.820      3599
30.830      4132
30.840      4638
30.850      5771
30.860      6291
30.870      7124
30.880      7230
30.890      8317
30.900      8790
30.910      8956
30.920      8463
30.930      8930
30.940      8603
30.950      7904
30.960      7650
30.970      7017
30.980      6164
30.990      5818
31.000      5431
31.010      4971
31.020      4125
31.030      3359
31.040      3119
31.050      2532
31.060      1993
31.070      1479
31.080      1353
31.090       973
31.100       713
31.110       593
31.120       733
31.130       526
31.140       480
31.150       327
31.160       373
31.170       253
31.180       220
31.190       167
31.200       220
31.210       127
31.220       100
31.230       260
31.240       187
31.250       153
31.260       147
31.270       107
31.280       133
31.290       173
31.300       100
31.310        80
31.320       113
31.330       153
31.340       133
31.350        80
31.360       100
31.370       107
31.380        73
31.390        93
31.400       127
31.410        80
31.420        93
31.430        60
31.440        80
31.450        80
31.460       100
31.470       107
31.480        67
31.490        93
31.500        93
31.510       100
31.520        73
31.530        53
31.540        87
31.550        53
31.560        47
31.570        87
31.580        47
31.590        47
31.600       107
31.610        73
31.620        80
31.630        80
31.640        67
31.650        73
31.660        87
31.670        73
31.680        87
31.690        80
31.700        53
31.710        87
31.720        60
31.730        80
31.740        40
31.750        40
31.760       133
31.770        60
31.780        73
31.790        87
31.800       100
31.810        53
31.820        80
31.830        60
31.840        67
31.850        47
31.860        60
31.870        60
31.880        93
31.890        80
31.900        33
31.910        33
31.920        80
31.930        47
31.940       107
31.950        80
31.960        73
31.970        40
31.980        60
31.990        93
32.000        40
32.010        47
32.020        53
32.030        53
32.040        47
32.050        27
32.060        67
32.070        53
32.080        47
32.090        73
32.100        67
32.110        80
32.120       113
32.130        53
32.140       107
32.150        47
32.160        60
32.170        60
32.180        67
32.190        60
32.200        87
32.210        40
32.220        47
32.230        47
32.240        60
32.250        47
32.260       100
32.270        73
32.280        47
32.290        53
32.300        60
32.310        47
32.320        27
32.330        93
32.340        13
32.350        60
32.360        47
32.370        80
32.380        80
32.390        53
32.400        67
32.410        47
32.420        40
32.430        40
32.440        13
32.450        73
32.460        47
32.470        60
32.480         7
32.490        47
32.500        33
32.510        53
32.520        47
32.530        53
32.540        73
32.550        47
32.560        33
32.570        27
32.580        27
32.590        20
32.600        53
32.610        40
32.620        80
32.630        27
32.640        60
32.650        47
32.660        60
32.670        33
32.680        27
32.690        60
32.700        60
32.710        67
32.720        40
32.730       113
32.740        53
32.750        47
32.760        73
32.770        33
32.780        87
32.790        67
32.800        93
32.810        40
32.820        27
32.830        67
32.840        60
32.850        80
32.860        80
32.870        27
32.880        67
32.890        53
32.900        27
32.910        60
32.920        47
32.930        67
32.940        87
32.950        60
32.960        20
32.970        20
32.980        53
32.990        67
33.000        73
33.010        47
33.020        27
33.030        67
33.040        67
33.050        33
33.060        53
33.070        60
33.080        53
33.090        33
33.100        67
33.110        60
33.120        13
33.130        40
33.140        47
33.150        53
33.160        87
33.170        40
33.180        53
33.190        67
33.200        80
33.210        53
33.220        47
33.230        87
33.240        47
33.250        33
33.260        40
33.270        27
33.280        73
33.290        47
33.300        67
33.310        67
33.320        67
33.330        40
33.340        60
33.350        60
33.360        47
33.370        47
33.380        47
33.390        73
33.400        33
33.410        53
33.420        67
33.430        13
33.440        27
33.450        47
33.460        40
33.470        53
33.480        27
33.490        33
33.500        40
33.510        20
33.520        47
33.530        47
33.540        73
33.550        47
33.560        40
33.570        33
33.580        33
33.590        73
33.600        53
33.610        47
33.620        53
33.630        27
33.640        53
33.650       100
33.660        80
33.670        53
33.680        60
33.690        47
33.700        33
33.710        40
33.720        67
33.730        53
33.740        47
33.750        40
33.760        40
33.770        67
33.780        20
33.790        20
33.800        33
33.810        20
33.820        53
33.830        67
33.840        53
33.850        40
33.860        87
33.870        33
33.880        60
33.890        33
33.900        60
33.910        47
33.920        13
33.930       100
33.940        47
33.950        47
33.960        40
33.970        33
33.980        53
33.990        53
34.000        60
34.010        80
34.020        53
34.030        33
34.040        47
34.050        33
34.060        73
34.070        47
34.080        47
34.090        47
34.100        53
34.110        47
34.120        40
34.130        60
34.140        27
34.150        47
34.160        47
34.170        47
34.180        60
34.190        33
34.200        47
34.210        53
34.220        20
34.230        33
34.240        60
34.250        67
34.260        80
34.270        60
34.280        67
34.290        60
34.300        53
34.310        20
34.320        73
34.330        60
34.340        33
34.350        60
34.360        53
34.370        47
34.380        73
34.390        40
34.400        60
34.410        27
34.420        67
34.430        60
34.440        27
34.450        47
34.460        60
34.470        40
34.480        40
34.490        40
34.500        60
34.510        53
34.520        13
34.530        67
34.540        53
34.550        40
34.560        40
34.570        47
34.580        67
34.590        33
34.600        73
34.610        73
34.620        73
34.630        40
34.640        33
34.650        87
34.660        27
34.670        73
34.680        53
34.690        80
34.700        47
34.710        80
34.720        53
34.730        20
34.740        60
34.750        47
34.760        87
34.770        53
34.780        53
34.790        27
34.800        40
34.810        80
34.820        47
34.830        67
34.840        93
34.850        67
34.860        33
34.870        33
34.880        40
34.890        53
34.900        80
34.910        73
34.920        40
34.930        87
34.940        33
34.950        33
34.960        27
34.970        73
34.980        93
34.990        40
35.000        87
35.010        27
35.020        67
35.030        53
35.040        73
35.050        93
35.060        53
35.070        33
35.080        40
35.090        53
35.100        67
35.110        53
35.120       107
35.130        20
35.140        53
35.150        60
35.160        53
35.170        13
35.180        47
35.190        20
35.200        27
35.210        33
35.220        40
35.230        40
35.240        73
35.250        27
35.260        33
35.270        53
35.280        53
35.290        60
35.300        40
35.310        40
35.320        33
35.330        40
35.340        47
35.350        67
35.360        20
35.370        40
35.380        13
35.390        60
35.400        53
35.410        20
35.420        73
35.430        60
35.440       107
35.450        60
35.460        60
35.470        67
35.480        47
35.490        33
35.500        47
35.510        67
35.520        27
35.530        40
35.540        33
35.550        40
35.560        27
35.570        47
35.580        60
35.590        73
35.600        33
35.610        27
35.620        93
35.630        53
35.640        80
35.650        60
35.660        33
35.670        53
35.680       100
35.690        73
35.700        47
35.710        73
35.720        33
35.730        60
35.740        60
35.750        33
35.760        20
35.770        40
35.780        93
35.790        33
35.800        67
35.810        60
35.820        27
35.830        80
35.840        47
35.850        47
35.860        40
35.870        33
35.880        80
35.890        40
35.900        53
35.910        40
35.920        47
35.930        47
35.940        47
35.950        60
35.960        33
35.970        47
35.980        13
35.990        40
36.000        67
36.010        53
36.020        53
36.030        80
36.040        27
36.050        33
36.060        53
36.070        33
36.080        47
36.090        33
36.100        47
36.110        27
36.120        40
36.130        53
36.140       120
36.150        53
36.160        20
36.170        80
36.180        47
36.190        47
36.200        27
36.210        33
36.220        40
36.230        47
36.240        47
36.250        27
36.260        40
36.270        33
36.280        20
36.290        53
36.300        33
36.310        33
36.320        53
36.330        33
36.340        33
36.350        47
36.360        47
36.370        47
36.380        73
36.390        33
36.400        40
36.410        47
36.420        60
36.430        40
36.440        47
36.450        60
36.460        40
36.470        20
36.480        40
36.490        40
36.500        40
36.510        67
36.520        53
36.530        27
36.540        27
36.550        47
36.560        73
36.570        40
36.580        67
36.590        33
36.600        47
36.610        87
36.620        60
36.630        40
36.640        53
36.650        60
36.660        40
36.670        67
36.680        60
36.690        53
36.700        33
36.710        27
36.720        40
36.730        53
36.740        33
36.750        53
36.760        33
36.770        33
36.780        40
36.790        47
36.800        27
36.810        73
36.820        40
36.830        33
36.840        33
36.850        53
36.860        60
36.870        20
36.880        33
36.890        60
36.900        40
36.910        47
36.920        40
36.930        27
36.940        60
36.950        53
36.960        67
36.970        73
36.980        40
36.990        60
37.000        53
37.010        53
37.020        27
37.030        60
37.040        47
37.050        60
37.060        53
37.070        60
37.080        40
37.090        27
37.100        40
37.110        27
37.120        40
37.130        73
37.140        47
37.150        47
37.160        33
37.170        47
37.180        67
37.190        40
37.200        47
37.210        33
37.220        67
37.230        33
37.240        33
37.250        47
37.260        27
37.270        73
37.280         7
37.290        40
37.300        40
37.310        60
37.320        27
37.330        67
37.340        67
37.350        53
37.360        20
37.370        33
37.380        27
37.390        73
37.400        40
37.410        33
37.420        33
37.430        20
37.440        20
37.450        40
37.460        33
37.470        73
37.480        33
37.490        47
37.500        13
37.510        53
37.520        27
37.530        20
37.540        33
37.550        33
37.560        40
37.570        40
37.580        13
37.590        53
37.600        13
37.610        47
37.620        13
37.630        47
37.640        33
37.650        27
37.660        33
37.670        20
37.680        40
37.690        40
37.700        47
37.710        47
37.720        33
37.730        33
37.740        40
37.750        40
37.760        13
37.770        27
37.780        40
37.790        33
37.800        53
37.810        40
37.820        47
37.830        40
37.840        53
37.850        33
37.860        27
37.870        33
37.880        67
37.890        40
37.900        20
37.910        20
37.920        20
37.930        40
37.940        40
37.950        27
37.960        47
37.970        73
37.980        53
37.990        33
38.000        67
38.010        80
38.020        33
38.030        80
38.040        47
38.050        40
38.060        40
38.070        47
38.080        33
38.090        53
38.100        33
38.110        60
38.120       113
38.130        60
38.140        60
38.150        80
38.160        80
38.170        93
38.180        93
38.190        40
38.200        93
38.210        47
38.220        53
38.230        67
38.240        27
38.250        33
38.260        53
38.270        33
38.280        27
38.290        60
38.300        20
38.310        80
38.320        67
38.330        60
38.340        27
38.350        27
38.360        27
38.370        27
38.380        20
38.390        53
38.400        40
38.410        67
38.420        60
38.430        53
38.440        40
38.450        27
38.460        53
38.470        20
38.480        33
38.490        33
38.500        40
38.510         7
38.520        67
38.530        40
38.540        33
38.550        27
38.560        47
38.570         7
38.580        93
38.590        53
38.600        27
38.610        40
38.620        27
38.630        67
38.640        47
38.650        53
38.660        47
38.670        27
38.680        33
38.690        27
38.700        53
38.710        20
38.720        47
38.730        40
38.740        13
38.750        33
38.760        27
38.770        20
38.780        80
38.790        40
38.800        53
38.810        47
38.820        47
38.830        47
38.840        80
38.850        73
38.860        20
38.870        40
38.880        20
38.890        33
38.900        73
38.910        33
38.920        33
38.930        13
38.940        40
38.950        27
38.960        60
38.970        20
38.980        13
38.990        60
39.000        60
39.010        27
39.020        47
39.030        33
39.040        47
39.050        47
39.060        67
39.070        27
39.080        33
39.090        20
39.100        13
39.110        60
39.120         0
39.130        60
39.140        33
39.150        80
39.160        20
39.170        40
39.180        27
39.190        27
39.200        40
39.210        40
39.220        60
39.230        20
39.240        20
39.250        53
39.260        53
39.270        27
39.280        20
39.290        53
39.300        47
39.310        40
39.320        20
39.330        53
39.340        20
39.350        27
39.360        33
39.370        40
39.380        33
39.390        40
39.400        47
39.410        60
39.420        47
39.430        33
39.440        40
39.450        20
39.460        27
39.470        20
39.480        20
39.490        53
39.500        33
39.510        20
39.520        33
39.530        27
39.540        47
39.550        33
39.560        53
39.570        20
39.580        47
39.590        20
39.600        33
39.610        53
39.620        53
39.630        33
39.640        53
39.650        47
39.660        27
39.670        33
39.680        20
39.690        47
39.700        40
39.710        40
39.720        47
39.730        40
39.740        20
39.750        40
39.760        20
39.770        53
39.780        60
39.790        40
39.800        47
39.810        27
39.820        53
39.830        67
39.840        47
39.850        60
39.860        33
39.870        53
39.880        60
39.890        73
39.900        27
39.910        60
39.920        20
39.930        13
39.940        47
39.950        33
39.960        40
39.970        40
39.980        27
39.990        27
40.000        40
40.010        60
40.020        20
40.030        40
40.040        67
40.050        47
40.060        53
40.070        33
40.080         7
40.090        40
40.100        33
40.110        33
40.120        27
40.130        33
40.140        13
40.150        53
40.160        53
40.170        27
40.180        40
40.190        27
40.200        27
40.210        27
40.220        27
40.230        60
40.240        27
40.250        53
40.260         0
40.270         7
40.280        67
40.290        33
40.300        33
40.310        40
40.320         7
40.330        60
40.340        33
40.350        13
40.360        27
40.370        40
40.380        40
40.390        33
40.400        53
40.410        13
40.420        33
40.430        33
40.440        27
40.450        47
40.460        33
40.470        47
40.480         7
40.490        47
40.500        60
40.510        33
40.520        47
40.530        13
40.540        27
40.550        13
40.560        20
40.570        33
40.580        13
40.590        33
40.600        33
40.610        27
40.620        33
40.630        27
40.640        27
40.650        33
40.660        33
40.670        20
40.680        27
40.690        40
40.700        27
40.710        47
40.720        33
40.730        33
40.740        13
40.750        27
40.760        27
40.770        53
40.780        13
40.790         7
40.800        67
40.810        33
40.820        27
40.830        20
40.840        47
40.850        40
40.860        60
40.870        33
40.880        53
40.890        40
40.900        33
40.910        40
40.920        47
40.930        53
40.940        47
40.950        47
40.960         7
40.970        27
40.980        60
40.990        40
41.000        47
41.010        33
41.020        20
41.030        47
41.040        20
41.050        13
41.060        33
41.070        27
41.080         7
41.090        27
41.100         7
41.110        40
41.120        47
41.130        33
41.140        13
41.150        20
41.160        27
41.170        40
41.180        40
41.190        20
41.200        47
41.210        20
41.220        27
41.230        27
41.240        60
41.250        20
41.260        27
41.270        20
41.280        13
41.290         7
41.300        67
41.310        20
41.320        20
41.330        13
41.340         7
41.350         7
41.360        27
41.370        27
41.380        33
41.390        27
41.400        27
41.410        40
41.420        40
41.430        20
41.440        20
41.450        33
41.460        33
41.470        27
41.480        20
41.490        27
41.500        33
41.510        73
41.520        33
41.530        40
41.540        40
41.550        33
41.560        27
41.570        40
41.580        47
41.590        27
41.600        33
41.610        20
41.620         7
41.630        27
41.640        33
41.650        13
41.660        20
41.670        20
41.680        33
41.690        40
41.700        20
41.710        20
41.720        40
41.730        33
41.740        40
41.750        13
41.760        13
41.770        40
41.780        20
41.790        40
41.800        33
41.810        33
41.820        13
41.830        20
41.840        53
41.850        27
41.860        13
41.870        40
41.880        20
41.890        40
41.900        27
41.910        33
41.920        33
41.930        27
41.940        33
41.950        20
41.960        73
41.970        40
41.980        20
41.990        33
42.000        53
42.010        27
42.020        33
42.030        40
42.040        53
42.050        40
42.060        27
42.070        60
42.080        33
42.090        27
42.100        27
42.110        27
42.120        40
42.130        20
42.140        60
42.150        20
42.160        67
42.170        20
42.180        13
42.190        13
42.200        20
42.210        27
42.220         7
42.230        40
42.240        53
42.250        40
42.260        20
42.270        33
42.280        33
42.290        33
42.300        20
42.310        33
42.320        53
42.330        13
42.340        13
42.350        47
42.360        33
42.370        20
42.380        27
42.390        60
42.400        13
42.410        27
42.420        13
42.430        53
42.440        33
42.450        53
42.460        53
42.470        27
42.480        20
42.490        20
42.500        33
42.510        27
42.520        40
42.530        20
42.540        47
42.550        33
42.560        20
42.570        40
42.580        20
42.590        27
42.600        27
42.610        80
42.620        27
42.630        27
42.640        33
42.650        53
42.660        40
42.670        20
42.680        27
42.690        20
42.700        53
42.710        47
42.720        60
42.730        20
42.740        33
42.750        13
42.760        13
42.770        40
42.780        53
42.790        40
42.800        47
42.810        13
42.820        27
42.830        20
42.840        27
42.850        53
42.860        20
42.870        67
42.880        40
42.890        73
42.900        53
42.910        60
42.920        27
42.930        47
42.940        33
42.950        20
42.960        33
42.970        53
42.980        27
42.990        33
43.000        20
43.010         7
43.020        40
43.030        33
43.040        67
43.050        33
43.060        20
43.070         7
43.080        20
43.090        33
43.100        33
43.110        27
43.120        20
43.130        33
43.140        33
43.150        40
43.160        13
43.170        13
43.180        40
43.190        40
43.200        53
43.210        40
43.220        53
43.230        13
43.240        33
43.250        40
43.260        40
43.270        40
43.280        47
43.290        60
43.300        53
43.310        40
43.320        67
43.330        20
43.340        60
43.350        27
43.360        20
43.370        33
43.380        27
43.390        53
43.400        73
43.410         7
43.420        53
43.430        27
43.440        40
43.450        40
43.460        13
43.470         7
43.480        33
43.490        40
43.500        20
43.510        47
43.520        47
43.530        47
43.540        20
43.550        27
43.560        13
43.570        13
43.580        53
43.590        27
43.600        60
43.610        20
43.620        33
43.630        33
43.640        33
43.650        53
43.660        33
43.670        40
43.680        73
43.690        40
43.700        60
43.710        47
43.720        53
43.730        47
43.740        60
43.750        47
43.760        20
43.770        47
43.780        47
43.790        67
43.800        53
43.810        47
43.820        60
43.830        80
43.840        53
43.850        40
43.860        47
43.870        47
43.880        53
43.890        40
43.900        87
43.910        47
43.920        33
43.930        67
43.940        47
43.950        60
43.960        60
43.970        73
43.980        80
43.990        80
44.000        93
44.010        87
44.020        87
44.030       113
44.040        60
44.050       140
44.060       133
44.070       147
44.080       180
44.090       227
44.100       187
44.110       227
44.120       260
44.130       253
44.140       253
44.150       313
44.160       413
44.170       413
44.180       486
44.190       613
44.200       593
44.210       613
44.220       660
44.230       880
44.240       893
44.250       860
44.260      1006
44.270      1066
44.280      1106
44.290      1120
44.300      1246
44.310      1200
44.320      1180
44.330      1133
44.340      1066
44.350      1093
44.360      1100
44.370      1006
44.380      1033
44.390       973
44.400       866
44.410       946
44.420       813
44.430       760
44.440       706
44.450       640
44.460       533
44.470       646
44.480       520
44.490       480
44.500       446
44.510       367
44.520       360
44.530       280
44.540       360
44.550       273
44.560       193
44.570       160
44.580       187
44.590       160
44.600       100
44.610       173
44.620        73
44.630       100
44.640       113
44.650        73
44.660        40
44.670        60
44.680        53
44.690        60
44.700        60
44.710        67
44.720        33
44.730        13
44.740        53
44.750        60
44.760        33
44.770        13
44.780        67
44.790        33
44.800        33
44.810        40
44.820        40
44.830        53
44.840        47
44.850        93
44.860        27
44.870        60
44.880        33
44.890        47
44.900        47
44.910        53
44.920        33
44.930        40
44.940        20
44.950        27
44.960        47
44.970        33
44.980        40
44.990        73
45.000        33
45.010        40
45.020         7
45.030        20
45.040        53
45.050        20
45.060        33
45.070        60
45.080        40
45.090        67
45.100        33
45.110        33
45.120        40
45.130        47
45.140        20
45.150        60
45.160        53
45.170        27
45.180        33
45.190        60
45.200        13
45.210        27
45.220        20
45.230        47
45.240        53
45.250        47
45.260        53
45.270        47
45.280        27
45.290        20
45.300        33
45.310        47
45.320        60
45.330        40
45.340        13
45.350        47
45.360        53
45.370        40
45.380        33
45.390        47
45.400        47
45.410         7
45.420        13
45.430        60
45.440        40
45.450        40
45.460        53
45.470        20
45.480        33
45.490        47
45.500        67
45.510        33
45.520        40
45.530        67
45.540        47
45.550        33
45.560        40
45.570        47
45.580        20
45.590        13
45.600        27
45.610        13
45.620        40
45.630        33
45.640        40
45.650        20
45.660        40
45.670        33
45.680        27
45.690        33
45.700        13
45.710        53
45.720        40
45.730        33
45.740        27
45.750        33
45.760        40
45.770        27
45.780        13
45.790        73
45.800        47
45.810        27
45.820        40
45.830        27
45.840        33
45.850        33
45.860        13
45.870        33
45.880        33
45.890         0
45.900         7
45.910        13
45.920        13
45.930        27
45.940        13
45.950        27
45.960        27
45.970        20
45.980        40
45.990        20
46.000        60
46.010        20
46.020        20
46.030        33
46.040         7
46.050        47
46.060        73
46.070        33
46.080        33
46.090        60
46.100        60
46.110        67
46.120        40
46.130        40
46.140        20
46.150        47
46.160        33
46.170        53
46.180        47
46.190         7
46.200        13
46.210        20
46.220        27
46.230        40
46.240        33
46.250        47
46.260        87
46.270        20
46.280        13
46.290        47
46.300        33
46.310        60
46.320        33
46.330        47
46.340        73
46.350        40
46.360        53
46.370        33
46.380        27
46.390        33
46.400         7
46.410        27
46.420        47
46.430        33
46.440        47
46.450        33
46.460        27
46.470        27
46.480        27
46.490        47
46.500        27
46.510        40
46.520        47
46.530        27
46.540        20
46.550        40
46.560        33
46.570        27
46.580        40
46.590        40
46.600        27
46.610        40
46.620        40
46.630        40
46.640        33
46.650        40
46.660        27
46.670        47
46.680        20
46.690        40
46.700        27
46.710        47
46.720         7
46.730        47
46.740        47
46.750        60
46.760        20
46.770        27
46.780        20
46.790        40
46.800         7
46.810        40
46.820        53
46.830        73
46.840        47
46.850        20
46.860        33
46.870        53
46.880        33
46.890        47
46.900        40
46.910        47
46.920        47
46.930        13
46.940        33
46.950        93
46.960        73
46.970        27
46.980        47
46.990        53
47.000        87
47.010        53
47.020        67
47.030        47
47.040        67
47.050        60
47.060        73
47.070        87
47.080        73
47.090       127
47.100       100
47.110       227
47.120       180
47.130       313
47.140       387
47.150       446
47.160       526
47.170       446
47.180       533
47.190       520
47.200       240
47.210       293
47.220       167
47.230       160
47.240        60
47.250        73
47.260        53
47.270        53
47.280        80
47.290        47
47.300       120
47.310        67
47.320        47
47.330        27
47.340        33
47.350        40
47.360        33
47.370        47
47.380        40
47.390        47
47.400        47
47.410        53
47.420        60
47.430        33
47.440        20
47.450        73
47.460        33
47.470        53
47.480        47
47.490        60
47.500        53
47.510        40
47.520        33
47.530        60
47.540        40
47.550        67
47.560        40
47.570        33
47.580        53
47.590        27
47.600        40
47.610        60
47.620        60
47.630        33
47.640        33
47.650        40
47.660        80
47.670        27
47.680        27
47.690        67
47.700        40
47.710        40
47.720        60
47.730        27
47.740        13
47.750        60
47.760        53
47.770        33
47.780        27
47.790        33
47.800        47
47.810        33
47.820        20
47.830        53
47.840        27
47.850        40
47.860        67
47.870        60
47.880        47
47.890        33
47.900        67
47.910        33
47.920        40
47.930        47
47.940        40
47.950        13
47.960        20
47.970        40
47.980        33
47.990        33
48.000        53
48.010         7
48.020        33
48.030        33
48.040        47
48.050        27
48.060        47
48.070        40
48.080        33
48.090        13
48.100        40
48.110        53
48.120        20
48.130        13
48.140        33
48.150        40
48.160        53
48.170        40
48.180        47
48.190        40
48.200        20
48.210        20
48.220        53
48.230        47
48.240        40
48.250        20
48.260        40
48.270        60
48.280        40
48.290        27
48.300        53
48.310        27
48.320        47
48.330        47
48.340        20
48.350        33
48.360        40
48.370        27
48.380        40
48.390        33
48.400        60
48.410        53
48.420        40
48.430        20
48.440        27
48.450        60
48.460        13
48.470        20
48.480        27
48.490        20
48.500        20
48.510        20
48.520        53
48.530        33
48.540        27
48.550        40
48.560        20
48.570         7
48.580        33
48.590        27
48.600        40
48.610        40
48.620        73
48.630        53
48.640        47
48.650        27
48.660        47
48.670        33
48.680        13
48.690        47
48.700        27
48.710        40
48.720        53
48.730        33
48.740        53
48.750        40
48.760        40
48.770        20
48.780        33
48.790        53
48.800        33
48.810        60
48.820        47
48.830        47
48.840        47
48.850        27
48.860        20
48.870        73
48.880        27
48.890        53
48.900        33
48.910        20
48.920        33
48.930        40
48.940        40
48.950        40
48.960        27
48.970        33
48.980        40
48.990        67
49.000        20
49.010         7
49.020        67
49.030        53
49.040        40
49.050        40
49.060        87
49.070        33
49.080        33
49.090        47
49.100        33
49.110        20
49.120        20
49.130        53
49.140        20
49.150        27
49.160        27
49.170        40
49.180        27
49.190        47
49.200         0
49.210        40
49.220        13
49.230        33
49.240        20
49.250        60
49.260        13
49.270        73
49.280         7
49.290        27
49.300        40
49.310        47
49.320        27
49.330        13
49.340        20
49.350        13
49.360        33
49.370        27
49.380        33
49.390        27
49.400        27
49.410        27
49.420        27
49.430        53
49.440        40
49.450        53
49.460        40
49.470        20
49.480        47
49.490        20
49.500        40
49.510        33
49.520        13
49.530        33
49.540        40
49.550         7
49.560        40
49.570        33
49.580        27
49.590        60
49.600         7
49.610        33
49.620        20
49.630        53
49.640        20
49.650        27
49.660        47
49.670        47
49.680        33
49.690        13
49.700        33
49.710        47
49.720        33
49.730        47
49.740        13
49.750        13
49.760        60
49.770        40
49.780        33
49.790        73
49.800        27
49.810        27
49.820        60
49.830        60
49.840        40
49.850        20
49.860        20
49.870        53
49.880        20
49.890        27
49.900        13
49.910        33
49.920        27
49.930        20
49.940        40
49.950        27
49.960        27
49.970        47
49.980        40
49.990        40
50.000        20
50.010        13
50.020        47
50.030        27
50.040        53
50.050        47
50.060        73
50.070        60
50.080        40
50.090        53
50.100        47
50.110        47
50.120        13
50.130        20
50.140        40
50.150        53
50.160        40
50.170        53
50.180        40
50.190        13
50.200        20
50.210        33
50.220        20
50.230        27
50.240        20
50.250        27
50.260        40
50.270        47
50.280        60
50.290        27
50.300        53
50.310        13
50.320        60
50.330        20
50.340        13
50.350         7
50.360        60
50.370        33
50.380        53
50.390        60
50.400        40
50.410        13
50.420        27
50.430         7
50.440        33
50.450        13
50.460        33
50.470        27
50.480        20
50.490        20
50.500        20
50.510        53
50.520        53
50.530        53
50.540        33
50.550        40
50.560        20
50.570        13
50.580        73
50.590        40
50.600        27
50.610        33
50.620        27
50.630        53
50.640        87
50.650        67
50.660        80
50.670        93
50.680       140
50.690       133
50.700       147
50.710        93
50.720       120
50.730       133
50.740       187
50.750       173
50.760        87
50.770       147
50.780       113
50.790       120
50.800       133
50.810        93
50.820       107
50.830       120
50.840       147
50.850       120
50.860       140
50.870       127
50.880       120
50.890       113
50.900       120
50.910       167
50.920       100
50.930       133
50.940       153
50.950       100
50.960       153
50.970       167
50.980       140
50.990       120
51.000       120
51.010       133
51.020       120
51.030       133
51.040       180
51.050       120
51.060       113
51.070       113
51.080       127
51.090       100
51.100       160
51.110       160
51.120       160
51.130       127
51.140       127
51.150       107
51.160       100
51.170       160
51.180        93
51.190       147
51.200       113
51.210       187
51.220        67
51.230       127
51.240       100
51.250       133
51.260       200
51.270       173
51.280       133
51.290       127
51.300        87
51.310       133
51.320       120
51.330       127
51.340        93
51.350       173
51.360       133
51.370       140
51.380       140
51.390       133
51.400       127
51.410       140
51.420       153
51.430       133
51.440       100
51.450       133
51.460       120
51.470       107
51.480       127
51.490       153
51.500       120
51.510       127
51.520       147
51.530       133
51.540       147
51.550       180
51.560       133
51.570       173
51.580       153
51.590       167
51.600       147
51.610       133
51.620       153
51.630       160
51.640       167
51.650       153
51.660       167
51.670       153
51.680       133
51.690       173
51.700       127
51.710       120
51.720       100
51.730       133
51.740       187
51.750       167
51.760       147
51.770       173
51.780       193
51.790       213
51.800       140
51.810       167
51.820       173
51.830       213
51.840       133
51.850       153
51.860       153
51.870       207
51.880       147
51.890       207
51.900       173
51.910       127
51.920       127
51.930       120
51.940       153
51.950       173
51.960       267
51.970       187
51.980       153
51.990       153
52.000       200
52.010       220
52.020       193
52.030       167
52.040       287
52.050       260
52.060       247
52.070       220
52.080       187
52.090       227
52.100       200
52.110       253
52.120       273
52.130       307
52.140       247
52.150       240
52.160       413
52.170       293
52.180       313
52.190       340
52.200       393
52.210       267
52.220       407
52.230       580
52.240       520
52.250       646
52.260       713
52.270       820
52.280       940
52.290      1106
52.300      1126
52.310      1313
52.320      1833
52.330      2106
52.340      2352
52.350      2366
52.360      2772
52.370      2819
52.380      2679
52.390      2945
52.400      3099
52.410      3159
52.420      3219
52.430      3372
52.440      3479
52.450      3332
52.460      4052
52.470      4572
52.480      4891
52.490      5991
52.500      7364
52.510     10129
52.520     15167
52.530     24230
52.540     33153
52.550     42303
52.560     51566
52.570     56291
52.580     60236
52.590     61096
52.600     56991
52.610     45062
52.620     31581
52.630     20065
52.640     13275
52.650     10036
52.660     10369
52.670     13155
52.680     17466
52.690     21391
52.700     25816
52.710     28642
52.720     31454
52.730     31467
52.740     27789
52.750     23097
52.760     16100
52.770     10976
52.780      6124
52.790      3805
52.800      2706
52.810      1933
52.820      1626
52.830      1220
52.840      1146
52.850      1073
52.860      1040
52.870       820
52.880       813
52.890       666
52.900       620
52.910       533
52.920       566
52.930       460
52.940       400
52.950       473
52.960       486
52.970       446
52.980       433
52.990       407
53.000       433
53.010       233
53.020       320
53.030       280
53.040       287
53.050       267
53.060       247
53.070       267
53.080       220
53.090       253
53.100       227
53.110       247
53.120       233
53.130       200
53.140       280
53.150       280
53.160       147
53.170       253
53.180       253
53.190       187
53.200       153
53.210       227
53.220       187
53.230       167
53.240       200
53.250       153
53.260       147
53.270       213
53.280       227
53.290       200
53.300       200
53.310       200
53.320       133
53.330       127
53.340       187
53.350       173
53.360       200
53.370       127
53.380        93
53.390       180
53.400       213
53.410       153
53.420       193
53.430       120
53.440       133
53.450       153
53.460       153
53.470       100
53.480       120
53.490       180
53.500       140
53.510       193
53.520       133
53.530        87
53.540       200
53.550       120
53.560       133
53.570       100
53.580       160
53.590       133
53.600       107
53.610       133
53.620       133
53.630       120
53.640       107
53.650       120
53.660       100
53.670       147
53.680       113
53.690       127
53.700       100
53.710       120
53.720       113
53.730       100
53.740        73
53.750       160
53.760       153
53.770        93
53.780       120
53.790       153
53.800        93
53.810       120
53.820       113
53.830       120
53.840       160
53.850       107
53.860       120
53.870       153
53.880       127
53.890        73
53.900       133
53.910       107
53.920       160
53.930       120
53.940       113
53.950       120
53.960       160
53.970       133
53.980       167
53.990       147
54.000       100
54.010       113
54.020       113
54.030        87
54.040       107
54.050        87
54.060       147
54.070       133
54.080       147
54.090       120
54.100        93
54.110       113
54.120        40
54.130       180
54.140       100
54.150        87
54.160        67
54.170        40
54.180        73
54.190        93
54.200       107
54.210        60
54.220       100
54.230        67
54.240       107
54.250        53
54.260        67
54.270        53
54.280        80
54.290       147
54.300        80
54.310        93
54.320       120
54.330        93
54.340       147
54.350       133
54.360        60
54.370       107
54.380        87
54.390        73
54.400       147
54.410       107
54.420        93
54.430       113
54.440       120
54.450       107
54.460        47
54.470        67
54.480        80
54.490       127
54.500       107
54.510        80
54.520        67
54.530       113
54.540        93
54.550       107
54.560       147
54.570        80
54.580       107
54.590        87
54.600        73
54.610       100
54.620       100
54.630       147
54.640        80
54.650       113
54.660       113
54.670        67
54.680        87
54.690       113
54.700        60
54.710       107
54.720       107
54.730       107
54.740       107
54.750       100
54.760       113
54.770        73
54.780       140
54.790        80
54.800       147
54.810        93
54.820       107
54.830       120
54.840       100
54.850       147
54.860       100
54.870        73
54.880        80
54.890        40
54.900       167
54.910       147
54.920       147
54.930       100
54.940        93
54.950       100
54.960       127
54.970       120
54.980       153
54.990        67
55.000       113
55.010       133
55.020        93
55.030       147
55.040       133
55.050       120
55.060       167
55.070       120
55.080       227
55.090       167
55.100       153
55.110       213
55.120       133
55.130       173
55.140       207
55.150       180
55.160       240
55.170       173
55.180       233
55.190       207
55.200       193
55.210       167
55.220       180
55.230       180
55.240       147
55.250       133
55.260       213
55.270       153
55.280       207
55.290       140
55.300       100
55.310       147
55.320       127
55.330       153
55.340       127
55.350       133
55.360       160
55.370       113
55.380       133
55.390        80
55.400        93
55.410       107
55.420       153
55.430       100
55.440        93
55.450       100
55.460        67
55.470       113
55.480       147
55.490        40
55.500        47
55.510        87
55.520        60
55.530        93
55.540        53
55.550        87
55.560       100
55.570       127
55.580       100
55.590       120
55.600       127
55.610        67
55.620        60
55.630       133
55.640        80
55.650       120
55.660        60
55.670        87
55.680        67
55.690        87
55.700        40
55.710        40
55.720        33
55.730        47
55.740        80
55.750        87
55.760        87
55.770       127
55.780        87
55.790        47
55.800        93
55.810        73
55.820        40
55.830        87
55.840        73
55.850        60
55.860        67
55.870        47
55.880        87
55.890        93
55.900        87
55.910        20
55.920       113
55.930        87
55.940        40
55.950       120
55.960        47
55.970        67
55.980        80
55.990       100
56.000       107
56.010        53
56.020       100
56.030        60
56.040        67
56.050        60
56.060        60
56.070        93
56.080        73
56.090        93
56.100        53
56.110       140
56.120        87
56.130        73
56.140        60
56.150        67
56.160        53
56.170        87
56.180        80
56.190        73
56.200        60
56.210        67
56.220        60
56.230        47
56.240        87
56.250        67
56.260        87
56.270        73
56.280        80
56.290        67
56.300        60
56.310       100
56.320        80
56.330        73
56.340       113
56.350        80
56.360        53
56.370        93
56.380        80
56.390        67
56.400        87
56.410        87
56.420        60
56.430        27
56.440        73
56.450        80
56.460        53
56.470       107
56.480        47
56.490        80
56.500        87
56.510        87
56.520        73
56.530        80
56.540        73
56.550        80
56.560       113
56.570        20
56.580        47
56.590        53
56.600        73
56.610        40
56.620       107
56.630        40
56.640        60
56.650       107
56.660        60
56.670        80
56.680       100
56.690        60
56.700        87
56.710        93
56.720        93
56.730        47
56.740        80
56.750        73
56.760       100
56.770       113
56.780        93
56.790        80
56.800        80
56.810        40
56.820        60
56.830        27
56.840        40
56.850       100
56.860        73
56.870        33
56.880        53
56.890        73
56.900        40
56.910        47
56.920        67
56.930        53
56.940        33
56.950        40
56.960        67
56.970        47
56.980        80
56.990        47
57.000        67
57.010        40
57.020        67
57.030        33
57.040        33
57.050        60
57.060        47
57.070        47
57.080        27
57.090        60
57.100       127
57.110        40
57.120        60
57.130        40
57.140        40
57.150        73
57.160        67
57.170        60
57.180        20
57.190       113
57.200        67
57.210        73
57.220        87
57.230        40
57.240        60
57.250        53
57.260        27
57.270        80
57.280        53
57.290        73
57.300        47
57.310       100
57.320        53
57.330        73
57.340        40
57.350        93
57.360        47
57.370        80
57.380        60
57.390        73
57.400        53
57.410        33
57.420       127
57.430        47
57.440        60
57.450        53
57.460        40
57.470        40
57.480        93
57.490        47
57.500        53
57.510        33
57.520        80
57.530        67
57.540        47
57.550        47
57.560        40
57.570        47
57.580        53
57.590        67
57.600        73
57.610        87
57.620        73
57.630        80
57.640        73
57.650        60
57.660        60
57.670        40
57.680       113
57.690        80
57.700       133
57.710        40
57.720        60
57.730        40
57.740        53
57.750        80
57.760        47
57.770        60
57.780        87
57.790        67
57.800        87
57.810        33
57.820        67
57.830        47
57.840        27
57.850        87
57.860        73
57.870        47
57.880        73
57.890        53
57.900        93
57.910        73
57.920        80
57.930        73
57.940        67
57.950        67
57.960        40
57.970        67
57.980        67
57.990        33
58.000        53
58.010        60
58.020        80
58.030        53
58.040        47
58.050        53
58.060        13
58.070        27
58.080        47
58.090        53
58.100        33
58.110        60
58.120        60
58.130        47
58.140        40
58.150        67
58.160        73
58.170        53
58.180        53
58.190        33
58.200        53
58.210        60
58.220        40
58.230        73
58.240        80
58.250       107
58.260        53
58.270        13
58.280        67
58.290        73
58.300        40
58.310        87
58.320        20
58.330        47
58.340        87
58.350        80
58.360        53
58.370        60
58.380        53
58.390        67
58.400        67
58.410        33
58.420        73
58.430        60
58.440        87
58.450        53
58.460        40
58.470        53
58.480        53
58.490        27
58.500        53
58.510        60
58.520        47
58.530        53
58.540        67
58.550        67
58.560        33
58.570        53
58.580        53
58.590        80
58.600        87
58.610        67
58.620        87
58.630        20
58.640        53
58.650        60
58.660        47
58.670        33
58.680        13
58.690        73
58.700        20
58.710        33
58.720        13
58.730        67
58.740        67
58.750        47
58.760        13
58.770        47
58.780        53
58.790        33
58.800        67
58.810        73
58.820        20
58.830        53
58.840        40
58.850        80
58.860        53
58.870        60
58.880        27
58.890        53
58.900        73
58.910        33
58.920        53
58.930        27
58.940        60
58.950        40
58.960        33
58.970        67
58.980        40
58.990        47
59.000        40
59.010        40
59.020        20
59.030        47
59.040        40
59.050        13
59.060        20
59.070        27
59.080        60
59.090        33
59.100        67
59.110        27
59.120        33
59.130        33
59.140        33
59.150        60
59.160        33
59.170        73
59.180        33
59.190        33
59.200        47
59.210        27
59.220        13
59.230        40
59.240        47
59.250        27
59.260        40
59.270        27
59.280        53
59.290        20
59.300       107
59.310        53
59.320        67
59.330        47
59.340        33
59.350        27
59.360        27
59.370        53
59.380        53
59.390        13
59.400        13
59.410        60
59.420        73
59.430        67
59.440        47
59.450        53
59.460        40
59.470        67
59.480        40
59.490        40
59.500        27
59.510        27
59.520        27
59.530        33
59.540        40
59.550        60
59.560        60
59.570        40
59.580        40
59.590        33
59.600        53
59.610        33
59.620        20
59.630        27
59.640        67
59.650        27
59.660        53
59.670        40
59.680        73
59.690        27
59.700        40
59.710        53
59.720        47
59.730        27
59.740        47
59.750        33
59.760        47
59.770        53
59.780        40
59.790        67
59.800        60
59.810        33
59.820        33
59.830        27
59.840        27
59.850        33
59.860        53
59.870        40
59.880        67
59.890        47
59.900        33
59.910        73
59.920        67
59.930        53
59.940        53
59.950        40
59.960        33
59.970        40
59.980        67
59.990         7
60.000         7
