20.000         0
20.010         0
20.020         7
20.030        60
20.040        60
20.050        53
20.060        13
20.070        33
20.080        33
20.090        33
20.100        53
20.110        20
20.120        33
20.130        53
20.140        73
20.150        47
20.160        40
20.170        47
20.180        27
20.190        53
20.200        53
20.210        53
20.220        47
20.230        33
20.240        13
20.250        60
20.260         0
20.270        67
20.280        60
20.290        33
20.300        27
20.310        40
20.320        53
20.330        40
20.340        27
20.350        47
20.360        40
20.370        53
20.380        67
20.390        60
20.400        27
20.410        40
20.420        20
20.430        80
20.440        33
20.450        33
20.460        60
20.470        40
20.480        40
20.490        53
20.500        47
20.510        33
20.520        20
20.530        47
20.540        67
20.550        73
20.560        20
20.570        27
20.580        20
20.590        33
20.600        33
20.610        40
20.620        33
20.630        47
20.640        40
20.650        27
20.660        27
20.670        60
20.680        13
20.690        40
20.700        47
20.710        53
20.720        33
20.730        73
20.740        53
20.750        33
20.760        20
20.770        47
20.780        33
20.790        53
20.800        27
20.810        33
20.820        33
20.830         7
20.840        27
20.850        73
20.860        27
20.870        40
20.880        47
20.890        33
20.900        27
20.910         7
20.920        33
20.930        27
20.940        27
20.950        40
20.960        40
20.970        27
20.980        67
20.990        20
21.000        40
21.010        67
21.020        40
21.030        67
21.040        47
21.050        13
21.060        47
21.070        20
21.080        47
21.090        67
21.100        33
21.110        53
21.120        67
21.130        47
21.140        53
21.150        53
21.160        20
21.170        53
21.180        20
21.190        33
21.200        33
21.210        33
21.220        20
21.230        20
21.240        53
21.250        20
21.260         7
21.270        33
21.280        33
21.290        20
21.300        13
21.310        67
21.320        80
21.330        27
21.340        40
21.350        33
21.360        40
21.370        53
21.380        53
21.390        53
21.400        53
21.410        87
21.420        53
21.430        73
21.440        13
21.450        53
21.460        40
21.470        27
21.480        40
21.490        20
21.500        27
21.510        47
21.520        33
21.530        53
21.540        33
21.550        33
21.560        13
21.570        20
21.580        13
21.590        27
21.600        27
21.610        27
21.620        93
21.630        40
21.640        40
21.650        33
21.660        53
21.670        33
21.680         7
21.690        33
21.700        20
21.710        40
21.720        33
21.730        40
21.740        67
21.750        20
21.760        33
21.770        67
21.780        33
21.790        47
21.800        27
21.810        40
21.820        47
21.830        53
21.840        20
21.850        27
21.860        20
21.870        33
21.880        73
21.890        40
21.900        60
21.910        13
21.920        27
21.930        53
21.940        40
21.950        33
21.960        13
21.970        27
21.980        27
21.990        33
22.000        60
22.010        20
22.020        53
22.030        27
22.040        53
22.050        47
22.060        40
22.070         7
22.080        33
22.090        33
22.100        40
22.110        27
22.120        33
22.130        33
22.140        33
22.150        40
22.160        33
22.170        67
22.180        40
22.190        33
22.200         7
22.210        27
22.220        33
22.230        13
22.240        47
22.250        47
22.260        27
22.270        33
22.280        27
22.290        87
22.300        80
22.310        33
22.320        33
22.330        13
22.340        20
22.350        53
22.360        40
22.370        33
22.380        13
22.390        20
22.400        47
22.410        33
22.420        20
22.430        13
22.440        33
22.450        73
22.460        87
22.470        73
22.480        13
22.490        60
22.500        40
22.510        53
22.520        67
22.530        53
22.540        47
22.550        67
22.560        27
22.570        33
22.580        53
22.590        53
22.600        40
22.610        53
22.620        73
22.630       113
22.640       147
22.650        93
22.660        73
22.670       100
22.680        93
22.690       120
22.700       127
22.710       120
22.720       113
22.730       113
22.740        67
22.750        93
22.760       147
22.770       107
22.780        93
22.790       133
22.800        80
22.810       113
22.820        67
22.830        73
22.840        73
22.850        40
22.860        53
22.870        20
22.880        67
22.890        53
22.900        67
22.910        87
22.920        87
22.930        60
22.940        53
22.950        47
22.960        53
22.970        73
22.980        53
22.990        87
23.000        47
23.010        73
23.020        33
23.030         7
23.040        87
23.050        27
23.060        33
23.070        47
23.080        53
23.090        33
23.100         0
23.110        53
23.120        27
23.130        27
23.140        47
23.150        40
23.160        73
23.170        33
23.180        27
23.190        53
23.200        27
23.210        47
23.220        67
23.230        27
23.240        40
23.250        40
23.260        53
23.270        47
23.280        13
23.290        13
23.300        53
23.310        47
23.320        53
23.330        87
23.340        53
23.350        60
23.360        27
23.370        40
23.380        40
23.390        47
23.400        40
23.410        27
23.420        20
23.430        20
23.440        80
23.450        60
23.460        47
23.470        20
23.480        60
23.490        53
23.500        33
23.510        20
23.520        27
23.530        53
23.540        60
23.550        40
23.560        47
23.570        33
23.580        40
23.590        27
23.600        67
23.610        47
23.620        47
23.630        60
23.640        20
23.650        13
23.660        73
23.670        47
23.680        13
23.690        33
23.700        13
23.710        73
23.720        47
23.730        27
23.740        27
23.750        27
23.760        47
23.770        33
23.780        13
23.790        47
23.800        47
23.810        40
23.820        33
23.830        47
23.840        33
23.850        53
23.860        47
23.870        40
23.880        13
23.890        40
23.900        60
23.910         7
23.920        53
23.930        47
23.940        33
23.950        33
23.960        13
23.970        53
23.980        53
23.990        27
24.000        27
24.010        20
24.020        67
24.030        27
24.040        33
24.050        33
24.060        13
24.070        47
24.080        60
24.090        20
24.100        47
24.110        53
24.120        27
24.130        20
24.140        60
24.150        33
24.160        40
24.170        27
24.180        20
24.190        40
24.200        33
24.210        33
24.220        47
24.230        67
24.240        33
24.250        47
24.260        53
24.270        47
24.280        27
24.290        47
24.300        73
24.310        13
24.320        53
24.330        60
24.340        20
24.350        13
24.360         7
24.370        20
24.380        27
24.390        20
24.400        67
24.410         7
24.420        47
24.430        13
24.440        80
24.450        53
24.460        20
24.470        40
24.480        33
24.490        53
24.500        33
24.510        27
24.520        13
24.530        80
24.540        27
24.550        33
24.560        60
24.570        27
24.580        60
24.590        47
24.600        40
24.610        33
24.620        80
24.630        80
24.640        40
24.650        33
24.660        33
24.670        33
24.680        33
24.690        80
24.700        47
24.710        73
24.720        73
24.730        67
24.740        93
24.750        87
24.760        67
24.770        60
24.780        73
24.790        87
24.800        60
24.810        67
24.820        93
24.830        40
24.840        80
24.850        93
24.860        73
24.870        67
24.880        80
24.890        67
24.900        67
24.910       133
24.920        67
24.930        60
24.940        73
24.950        87
24.960        60
24.970       173
24.980        53
24.990       127
25.000        87
25.010        80
25.020        73
25.030       100
25.040        67
25.050        80
25.060       107
25.070        40
25.080        80
25.090        80
25.100        87
25.110       133
25.120        67
25.130       120
25.140        80
25.150        80
25.160        80
25.170       107
25.180        93
25.190        53
25.200        93
25.210       127
25.220       127
25.230       127
25.240       140
25.250       160
25.260       127
25.270       207
25.280       153
25.290       320
25.300       307
25.310       566
25.320       673
25.330       706
25.340      1033
25.350      1106
25.360      1479
25.370      1699
25.380      1906
25.390      2199
25.400      2266
25.410      2572
25.420      2486
25.430      2692
25.440      2646
25.450      2886
25.460      2792
25.470      2792
25.480      2912
25.490      2906
25.500      2939
25.510      2412
25.520      2512
25.530      2319
25.540      2206
25.550      2219
25.560      1979
25.570      1953
25.580      2559
25.590      3699
25.600      6071
25.610      8896
25.620     12448
25.630     17673
25.640     20545
25.650     20319
25.660     15454
25.670     10956
25.680      8403
25.690      8943
25.700     10476
25.710     11222
25.720      8903
25.730      5951
25.740      2832
25.750      1266
25.760       886
25.770       580
25.780       513
25.790       373
25.800       260
25.810       407
25.820       360
25.830       227
25.840       253
25.850       193
25.860       233
25.870       253
25.880       247
25.890       160
25.900       180
25.910       227
25.920       133
25.930       207
25.940       180
25.950       160
25.960       180
25.970       173
25.980       173
25.990       167
26.000       153
26.010       187
26.020       167
26.030       113
26.040        93
26.050       147
26.060       153
26.070       133
26.080       140
26.090       147
26.100       167
26.110       180
26.120       127
26.130       127
26.140       127
26.150       120
26.160       200
26.170        73
26.180       133
26.190       107
26.200       140
26.210       113
26.220        87
26.230       147
26.240        87
26.250       140
26.260       187
26.270        60
26.280       107
26.290       133
26.300       167
26.310       120
26.320       113
26.330       160
26.340       167
26.350       127
26.360        93
26.370       173
26.380       113
26.390       140
26.400        80
26.410        67
26.420       127
26.430       187
26.440       127
26.450       133
26.460       107
26.470       167
26.480        67
26.490       140
26.500       140
26.510        80
26.520       127
26.530       127
26.540       140
26.550        73
26.560       120
26.570       133
26.580       153
26.590       113
26.600        87
26.610       127
26.620       160
26.630       127
26.640        80
26.650       207
26.660       107
26.670        73
26.680       100
26.690       113
26.700       120
26.710       140
26.720       127
26.730        80
26.740       133
26.750       167
26.760       140
26.770       147
26.780       120
26.790       100
26.800        73
26.810       173
26.820       127
26.830       127
26.840       100
26.850       100
26.860       180
26.870       133
26.880       160
26.890       133
26.900       180
26.910       107
26.920       133
26.930       180
26.940        93
26.950       180
26.960       120
26.970       107
26.980       120
26.990       100
27.000       180
27.010       133
27.020       173
27.030       147
27.040       127
27.050       140
27.060       107
27.070       160
27.080        93
27.090       140
27.100       107
27.110       100
27.120       160
27.130       140
27.140       113
27.150       133
27.160       187
27.170       153
27.180       133
27.190        87
27.200       113
27.210       127
27.220       193
27.230       120
27.240       120
27.250       120
27.260       173
27.270       120
27.280       120
27.290       127
27.300       147
27.310       173
27.320       100
27.330       173
27.340       127
27.350       133
27.360       167
27.370       127
27.380       127
27.390       107
27.400       127
27.410       120
27.420       167
27.430       140
27.440       127
27.450        73
27.460       113
27.470       127
27.480       113
27.490       140
27.500       147
27.510       120
27.520       107
27.530       133
27.540        87
27.550       113
27.560       167
27.570       113
27.580       133
27.590       153
27.600       153
27.610       120
27.620       100
27.630       120
27.640       153
27.650       173
27.660       140
27.670       127
27.680       100
27.690       133
27.700       153
27.710       193
27.720       107
27.730       107
27.740       127
27.750       167
27.760       200
27.770       133
27.780        93
27.790        80
27.800       113
27.810       100
27.820       180
27.830       120
27.840        93
27.850       107
27.860       153
27.870       180
27.880       107
27.890       100
27.900       167
27.910       100
27.920       140
27.930       147
27.940       113
27.950       127
27.960       153
27.970       187
27.980       127
27.990       147
28.000       160
28.010        87
28.020       173
28.030       173
28.040       147
28.050       160
28.060        93
28.070       180
28.080       120
28.090       167
28.100       167
28.110       100
28.120       173
28.130       180
28.140       140
28.150       107
28.160       127
28.170       133
28.180       187
28.190       127
28.200       180
28.210       140
28.220       160
28.230       133
28.240       120
28.250       200
28.260       147
28.270       147
28.280       180
28.290       133
28.300       113
28.310       120
28.320       173
28.330       107
28.340       207
28.350       127
28.360       160
28.370       153
28.380       147
28.390       133
28.400       147
28.410       160
28.420       147
28.430       107
28.440       133
28.450       173
28.460       120
28.470       160
28.480       127
28.490       173
28.500       153
28.510       107
28.520       133
28.530        87
28.540       107
28.550        80
28.560       153
28.570       147
28.580       187
28.590       120
28.600       160
28.610       107
28.620       127
28.630       107
28.640       160
28.650       180
28.660       160
28.670       160
28.680       153
28.690       180
28.700       107
28.710       127
28.720       187
28.730       213
28.740       120
28.750       153
28.760       167
28.770       180
28.780       120
28.790       167
28.800       120
28.810       120
28.820       153
28.830       160
28.840       147
28.850       127
28.860       133
28.870       100
28.880       100
28.890       187
28.900       187
28.910       153
28.920       160
28.930       113
28.940       113
28.950       220
28.960       140
28.970       100
28.980       107
28.990       160
29.000        93
29.010       160
29.020       160
29.030       180
29.040       147
29.050       113
29.060       127
29.070       160
29.080       100
29.090       200
29.100       127
29.110       160
29.120       107
29.130       140
29.140       140
29.150       167
29.160       100
29.170       127
29.180       133
29.190       160
29.200       120
29.210        93
29.220       120
29.230       187
29.240       107
29.250       107
29.260       147
29.270       113
29.280        93
29.290       113
29.300       193
29.310       180
29.320       113
29.330       193
29.340       133
29.350       140
29.360        93
29.370       160
29.380       153
29.390       120
29.400       147
29.410        87
29.420       133
29.430       140
29.440       133
29.450       127
29.460       127
29.470       173
29.480       100
29.490        93
29.500       107
29.510       153
29.520       187
29.530       147
29.540       207
29.550       147
29.560       100
29.570       180
29.580        80
29.590       167
29.600       120
29.610       100
29.620       173
29.630       193
29.640       133
29.650       107
29.660        67
29.670       133
29.680       173
29.690       120
29.700       113
29.710        73
29.720       120
29.730       160
29.740       120
29.750        93
29.760        93
29.770       133
29.780       167
29.790       107
29.800       133
29.810       107
29.820       147
29.830       173
29.840       160
29.850       147
29.860       160
29.870       160
29.880       160
29.890       167
29.900       107
29.910       213
29.920       167
29.930       120
29.940       120
29.950       113
29.960       160
29.970       140
29.980       140
29.990       100
30.000       160
30.010       167
30.020       140
30.030       107
30.040       140
30.050       140
30.060       207
30.070       133
30.080       127
30.090       140
30.100       180
30.110       133
30.120       160
30.130        67
30.140       100
30.150       160
30.160       147
30.170       160
30.180        93
30.190       120
30.200       153
30.210       147
30.220       107
30.230        93
30.240       120
30.250       113
30.260       167
30.270       160
30.280       147
30.290        93
30.300       127
30.310       140
30.320       153
30.330       120
30.340       120
30.350       133
30.360       127
30.370       107
30.380       127
30.390       133
30.400       153
30.410       113
30.420       147
30.430       167
30.440       100
30.450       140
30.460       173
30.470       167
30.480       127
30.490        93
30.500       140
30.510       147
30.520        53
30.530       127
30.540       107
30.550       107
30.560       160
30.570       120
30.580       120
30.590        80
30.600       120
30.610       113
30.620       107
30.630       147
30.640       147
30.650       120
30.660       153
30.670       120
30.680       127
30.690       140
30.700       140
30.710       147
30.720       140
30.730       140
30.740       100
30.750       193
30.760        80
30.770       173
30.780       107
30.790       187
30.800       113
30.810       153
30.820       100
30.830       153
30.840       107
30.850       107
30.860       147
30.870       107
30.880       167
30.890       120
30.900       193
30.910       127
30.920       107
30.930       140
30.940       187
30.950       140
30.960       160
30.970       100
30.980       107
30.990       140
31.000       120
31.010       127
31.020       167
31.030       127
31.040       120
31.050        80
31.060       113
31.070        87
31.080       120
31.090       153
31.100       100
31.110       120
31.120        67
31.130        93
31.140       127
31.150       107
31.160       133
31.170        93
31.180       167
31.190       127
31.200       160
31.210       160
31.220       127
31.230       133
31.240       147
31.250       160
31.260       120
31.270       200
31.280       107
31.290        80
31.300       100
31.310       133
31.320       120
31.330       127
31.340       107
31.350       167
31.360       107
31.370       147
31.380        73
31.390       120
31.400       100
31.410        80
31.420       120
31.430       100
31.440       107
31.450       107
31.460       100
31.470        93
31.480       160
31.490       107
31.500       127
31.510       167
31.520       120
31.530       153
31.540       133
31.550       147
31.560       180
31.570       107
31.580       107
31.590       113
31.600       180
31.610       127
31.620       127
31.630       107
31.640       140
31.650        87
31.660       107
31.670       160
31.680       113
31.690       140
31.700       160
31.710       133
31.720       133
31.730       167
31.740        93
31.750        87
31.760       133
31.770       153
31.780       127
31.790        73
31.800       167
31.810       107
31.820       160
31.830       127
31.840       113
31.850       153
31.860       180
31.870       140
31.880       120
31.890       153
31.900       180
31.910       107
31.920       180
31.930       133
31.940       160
31.950       233
31.960       200
31.970       173
31.980       213
31.990       173
32.000       167
32.010       213
32.020       193
32.030       160
32.040       140
32.050       167
32.060       167
32.070       213
32.080       240
32.090       227
32.100       233
32.110       200
32.120       253
32.130       300
32.140       313
32.150       320
32.160       293
32.170       353
32.180       380
32.190       433
32.200       526
32.210       420
32.220       500
32.230       646
32.240       633
32.250       613
32.260       693
32.270       733
32.280       853
32.290       940
32.300       866
32.310      1013
32.320      1046
32.330      1126
32.340      1299
32.350      1273
32.360      1253
32.370      1546
32.380      1539
32.390      1393
32.400      1439
32.410      1373
32.420      1346
32.430      1286
32.440      1273
32.450      1153
32.460      1040
32.470      1146
32.480       926
32.490       853
32.500      1006
32.510       780
32.520       680
32.530       706
32.540       586
32.550       613
32.560       560
32.570       393
32.580       433
32.590       426
32.600       413
32.610       340
32.620       393
32.630       347
32.640       293
32.650       313
32.660       320
32.670       173
32.680       227
32.690       293
32.700       193
32.710       167
32.720       147
32.730       247
32.740       167
32.750       127
32.760       153
32.770       153
32.780       147
32.790       173
32.800       113
32.810       147
32.820       107
32.830       113
32.840       133
32.850       193
32.860       120
32.870       180
32.880       167
32.890       173
32.900       173
32.910       100
32.920        80
32.930       133
32.940       100
32.950       127
32.960       120
32.970       140
32.980       140
32.990        87
33.000       107
33.010       120
33.020        87
33.030       107
33.040       133
33.050       133
33.060       120
33.070       147
33.080       180
33.090        87
33.100       127
33.110       120
33.120        80
33.130        93
33.140       113
33.150       127
33.160       107
33.170       107
33.180       140
33.190        87
33.200       107
33.210       120
33.220       107
33.230       120
33.240        87
33.250        73
33.260       120
33.270       100
33.280       153
33.290        47
33.300       100
33.310        80
33.320        93
33.330        73
33.340        93
33.350       120
33.360       133
33.370       120
33.380       127
33.390        87
33.400        93
33.410       107
33.420       147
33.430        93
33.440       113
33.450       107
33.460       180
33.470       127
33.480        93
33.490        87
33.500       147
33.510       140
33.520       113
33.530       120
33.540       107
33.550       107
33.560        93
33.570       147
33.580       107
33.590       153
33.600        47
33.610       107
33.620       133
33.630        87
33.640       140
33.650       107
33.660       127
33.670        80
33.680       127
33.690        87
33.700       107
33.710        73
33.720        93
33.730        67
33.740        67
33.750       113
33.760       100
33.770       120
33.780        53
33.790       100
33.800        87
33.810        93
33.820        73
33.830        73
33.840       100
33.850        47
33.860        47
33.870       100
33.880        93
33.890        60
33.900        80
33.910       100
33.920        80
33.930        87
33.940       127
33.950       100
33.960        80
33.970        93
33.980        93
33.990        67
34.000        53
34.010        73
34.020        40
34.030       107
34.040       120
34.050       140
34.060        67
34.070       107
34.080       100
34.090        73
34.100        67
34.110       100
34.120       100
34.130        80
34.140        80
34.150        60
34.160       120
34.170        67
34.180        93
34.190        60
34.200        73
34.210        73
34.220        73
34.230        73
34.240        93
34.250        93
34.260        73
34.270        47
34.280        87
34.290        67
34.300        67
34.310       127
34.320       107
34.330        87
34.340        73
34.350        80
34.360        47
34.370       107
34.380       140
34.390       113
34.400        33
34.410       127
34.420        47
34.430       127
34.440       107
34.450       107
34.460       113
34.470       107
34.480        73
34.490        60
34.500        87
34.510        87
34.520        87
34.530       107
34.540        87
34.550       113
34.560       113
34.570        60
34.580       107
34.590        73
34.600       113
34.610        73
34.620        93
34.630        67
34.640        67
34.650       100
34.660        80
34.670       100
34.680       113
34.690        80
34.700        60
34.710        73
34.720        67
34.730        67
34.740        80
34.750       107
34.760       153
34.770        73
34.780        80
34.790        60
34.800        67
34.810        53
34.820        87
34.830        73
34.840        80
34.850        93
34.860        80
34.870        40
34.880       107
34.890        60
34.900        80
34.910        60
34.920       100
34.930        53
34.940        60
34.950        80
34.960        27
34.970       107
34.980        73
34.990        40
35.000        67
35.010        67
35.020        93
35.030        67
35.040        47
35.050       127
35.060       100
35.070        53
35.080        60
35.090       107
35.100       153
35.110        80
35.120        40
35.130        87
35.140        60
35.150        80
35.160        53
35.170       100
35.180        87
35.190        87
35.200        87
35.210        67
35.220        87
35.230       120
35.240        60
35.250        93
35.260        93
35.270        67
35.280        73
35.290        87
35.300        60
35.310        53
35.320        93
35.330       120
35.340        53
35.350       113
35.360       140
35.370        87
35.380        93
35.390        67
35.400        60
35.410        53
35.420        53
35.430        60
35.440        80
35.450        40
35.460        67
35.470        53
35.480        47
35.490       100
35.500        27
35.510       100
35.520        53
35.530        47
35.540        87
35.550        93
35.560       100
35.570        93
35.580       107
35.590        73
35.600        73
35.610        73
35.620        53
35.630        73
35.640        93
35.650        40
35.660        53
35.670        53
35.680        73
35.690        73
35.700        53
35.710        67
35.720        73
35.730        87
35.740        87
35.750        47
35.760        47
35.770        67
35.780        93
35.790       120
35.800        67
35.810        53
35.820        67
35.830        53
35.840        53
35.850        87
35.860        67
35.870        47
35.880        60
35.890        60
35.900        53
35.910        40
35.920        60
35.930        67
35.940       113
35.950        73
35.960        73
35.970        40
35.980        47
35.990        60
36.000        53
36.010        80
36.020        33
36.030       120
36.040        73
36.050        87
36.060        73
36.070        67
36.080        73
36.090       100
36.100        47
36.110        80
36.120        87
36.130        67
36.140        87
36.150        80
36.160        47
36.170        67
36.180        60
36.190        40
36.200        73
36.210        53
36.220        60
36.230       113
36.240        73
36.250        73
36.260        73
36.270        80
36.280        73
36.290        73
36.300        40
36.310        80
36.320       120
36.330        53
36.340        53
36.350        73
36.360        67
36.370        27
36.380        93
36.390        73
36.400       107
36.410        53
36.420        67
36.430        67
36.440        40
36.450        47
36.460        93
36.470       107
36.480        60
36.490        67
36.500        47
36.510        33
36.520        20
36.530        67
36.540        67
36.550        40
36.560        73
36.570        47
36.580        80
36.590        93
36.600        53
36.610        93
36.620        40
36.630        73
36.640        47
36.650        73
36.660        40
36.670        33
36.680       100
36.690        87
36.700        40
36.710        80
36.720        53
36.730       120
36.740        13
36.750        73
36.760        40
36.770        73
36.780        67
36.790        60
36.800        60
36.810       100
36.820        67
36.830        33
36.840        47
36.850        60
36.860        93
36.870        27
36.880        33
36.890        47
36.900        53
36.910        93
36.920        27
36.930        40
36.940        60
36.950        53
36.960        93
36.970        40
36.980        80
36.990        53
37.000        47
37.010        33
37.020        40
37.030        60
37.040        67
37.050        87
37.060        87
37.070        33
37.080        80
37.090        20
37.100        73
37.110        87
37.120        53
37.130        67
37.140        60
37.150        40
37.160        80
37.170        60
37.180        60
37.190        87
37.200        33
37.210        47
37.220        87
37.230        87
37.240        87
37.250        73
37.260        47
37.270        60
37.280        33
37.290        67
37.300        67
37.310        40
37.320        53
37.330        60
37.340        53
37.350        67
37.360        53
37.370        53
37.380        53
37.390        73
37.400        93
37.410        67
37.420        93
37.430        40
37.440        33
37.450        67
37.460        73
37.470        33
37.480        27
37.490        40
37.500        47
37.510        53
37.520        33
37.530        47
37.540        73
37.550        73
37.560        47
37.570        33
37.580        20
37.590        40
37.600        67
37.610        33
37.620        53
37.630        40
37.640        67
37.650        73
37.660        87
37.670        73
37.680        47
37.690        67
37.700        47
37.710        13
37.720        87
37.730        33
37.740        47
37.750        47
37.760        80
37.770        20
37.780        73
37.790        40
37.800        47
37.810        73
37.820        53
37.830        60
37.840        87
37.850        60
37.860        33
37.870        47
37.880        33
37.890        67
37.900        87
37.910        47
37.920        47
37.930        47
37.940        87
37.950        47
37.960        40
37.970        60
37.980        67
37.990        27
38.000        27
38.010        40
38.020        60
38.030        33
38.040        93
38.050        27
38.060        60
38.070        87
38.080        40
38.090        40
38.100        53
38.110        80
38.120        60
38.130        80
38.140        67
38.150        80
38.160        53
38.170        60
38.180        60
38.190        40
38.200        33
38.210        60
38.220        40
38.230        73
38.240        73
38.250        20
38.260        47
38.270        53
38.280        53
38.290        40
38.300        53
38.310        73
38.320        13
38.330        93
38.340        53
38.350        47
38.360         7
38.370        60
38.380        20
38.390        53
38.400        60
38.410        53
38.420        47
38.430        67
38.440        40
38.450        47
38.460        40
38.470        20
38.480        47
38.490        67
38.500        40
38.510        47
38.520        47
38.530        47
38.540        47
38.550        40
38.560        73
38.570        60
38.580        47
38.590        27
38.600        33
38.610        40
38.620        47
38.630        40
38.640        40
38.650        33
38.660        60
38.670        67
38.680        47
38.690        53
38.700        40
38.710        47
38.720        47
38.730        40
38.740        33
38.750        33
38.760        47
38.770        60
38.780        60
38.790        27
38.800        40
38.810        47
38.820        47
38.830        13
38.840        73
38.850        53
38.860        27
38.870        53
38.880        20
38.890        27
38.900        60
38.910        40
38.920        47
38.930        20
38.940        53
38.950        40
38.960        47
38.970        33
38.980        40
38.990        33
39.000        47
39.010        33
39.020        13
39.030        53
39.040        67
39.050        47
39.060        33
39.070         7
39.080        27
39.090        60
39.100        53
39.110        40
39.120        27
39.130        40
39.140        47
39.150        20
39.160        47
39.170        47
39.180        53
39.190        40
39.200        67
39.210        40
39.220        20
39.230        67
39.240        67
39.250        33
39.260        53
39.270        40
39.280        27
39.290        53
39.300        40
39.310        47
39.320        40
39.330        33
39.340        33
39.350        47
39.360        27
39.370        47
39.380        27
39.390        60
39.400        47
39.410        33
39.420        20
39.430        67
39.440        40
39.450        27
39.460        33
39.470        53
39.480        60
39.490        27
39.500        40
39.510        53
39.520        53
39.530        53
39.540        33
39.550        67
39.560        27
39.570        40
39.580        47
39.590        47
39.600        67
39.610        67
39.620        13
39.630        40
39.640        27
39.650        53
39.660        13
39.670        40
39.680        60
39.690        40
39.700        20
39.710        47
39.720        20
39.730        53
39.740        60
39.750        47
39.760        67
39.770        27
39.780        87
39.790        67
39.800        20
39.810        40
39.820        27
39.830        53
39.840        47
39.850        40
39.860        67
39.870        53
39.880        73
39.890        33
39.900        80
39.910        27
39.920        33
39.930        80
39.940        40
39.950        73
39.960        47
39.970        27
39.980        33
39.990        47
40.000        33
40.010        27
40.020        20
40.030        60
40.040        27
40.050        47
40.060        40
40.070       107
40.080        53
40.090        40
40.100        67
40.110        47
40.120        33
40.130        47
40.140        33
40.150        33
40.160        20
40.170        47
40.180        53
40.190        47
40.200        53
40.210        33
40.220        40
40.230        40
40.240        53
40.250        67
40.260        40
40.270        60
40.280        40
40.290        53
40.300        33
40.310        20
40.320        40
40.330        20
40.340        13
40.350        20
40.360        40
40.370        40
40.380        20
40.390        60
40.400        93
40.410        53
40.420        27
40.430        33
40.440        20
40.450        27
40.460        40
40.470        40
40.480        27
40.490        53
40.500        27
40.510        73
40.520        47
40.530        27
40.540        33
40.550        27
40.560        27
40.570        47
40.580        33
40.590        33
40.600        20
40.610        60
40.620        27
40.630        33
40.640        33
40.650        47
40.660        27
40.670        60
40.680         7
40.690        27
40.700        20
40.710        53
40.720        13
40.730        60
40.740        53
40.750         7
40.760        33
40.770        60
40.780        33
40.790        33
40.800        33
40.810        27
40.820        73
40.830        60
40.840        47
40.850        13
40.860         7
40.870        20
40.880        33
40.890        47
40.900        67
40.910        27
40.920        33
40.930        27
40.940        13
40.950        20
40.960        27
40.970        53
40.980        40
40.990        27
41.000        40
41.010        20
41.020        33
41.030        20
41.040        47
41.050        47
41.060        67
41.070        47
41.080        47
41.090        53
41.100        40
41.110        33
41.120        67
41.130        27
41.140        27
41.150        27
41.160        40
41.170        27
41.180        47
41.190        20
41.200        20
41.210        53
41.220        53
41.230        33
41.240        33
41.250        27
41.260        27
41.270        40
41.280        20
41.290        47
41.300        33
41.310         7
41.320        20
41.330        60
41.340        40
41.350        20
41.360        40
41.370        53
41.380        33
41.390        13
41.400        27
41.410        27
41.420        33
41.430        47
41.440        27
41.450        47
41.460        40
41.470        47
41.480        40
41.490        20
41.500        33
41.510        20
41.520        40
41.530        60
41.540        53
41.550        33
41.560        27
41.570        13
41.580        20
41.590        40
41.600        33
41.610        33
41.620        40
41.630        53
41.640        20
41.650       100
41.660        47
41.670        40
41.680        27
41.690        33
41.700        13
41.710        60
41.720        53
41.730        47
41.740        33
41.750        73
41.760        27
41.770        13
41.780        53
41.790        60
41.800        13
41.810        53
41.820        40
41.830        33
41.840        47
41.850        27
41.860        27
41.870        40
41.880        53
41.890        13
41.900        20
41.910        40
41.920        13
41.930        27
41.940        33
41.950        20
41.960        33
41.970        60
41.980        53
41.990        33
42.000        33
42.010        27
42.020        20
42.030        47
42.040        53
42.050        60
42.060        27
42.070        20
42.080        33
42.090        33
42.100        40
42.110        47
42.120        33
42.130        33
42.140        20
42.150        27
42.160        27
42.170        27
42.180        13
42.190        20
42.200        13
42.210        13
42.220        20
42.230         0
42.240        33
42.250        20
42.260        47
42.270        40
42.280        40
42.290        20
42.300        13
42.310        20
42.320        13
42.330        60
42.340        40
42.350        33
42.360        33
42.370        13
42.380        87
42.390        47
42.400        40
42.410        33
42.420        60
42.430        40
42.440        20
42.450        27
42.460        20
42.470        47
42.480        33
42.490        13
42.500        33
42.510        27
42.520        40
42.530        60
42.540        33
42.550        20
42.560        40
42.570        13
42.580        33
42.590        27
42.600        60
42.610        20
42.620        40
42.630        47
42.640        40
42.650        40
42.660        47
42.670        33
42.680        60
42.690        27
42.700        67
42.710        33
42.720         7
42.730        47
42.740        33
42.750        40
42.760        47
42.770         7
42.780        27
42.790        40
42.800        27
42.810        47
42.820        53
42.830        47
42.840        20
42.850        33
42.860        40
42.870        67
42.880        60
42.890        33
42.900        20
42.910        60
42.920        27
42.930        27
42.940        47
42.950        40
42.960        53
42.970        33
42.980        47
42.990        13
43.000        47
43.010         7
43.020        33
43.030        13
43.040        20
43.050       180
43.060        20
43.070        33
43.080        27
43.090        27
43.100        33
43.110        27
43.120        33
43.130        40
43.140        27
43.150        40
43.160        20
43.170        33
43.180        20
43.190        20
43.200        40
43.210        13
43.220        20
43.230        20
43.240        47
43.250        40
43.260        33
43.270        27
43.280        27
43.290        40
43.300        20
43.310        27
43.320        33
43.330        60
43.340        40
43.350        27
43.360         7
43.370        33
43.380        13
43.390        33
43.400        13
43.410        60
43.420        40
43.430        27
43.440        33
43.450        53
43.460        40
43.470        53
43.480        53
43.490         7
43.500        53
43.510        20
43.520        33
43.530        13
43.540        27
43.550        27
43.560         7
43.570        40
43.580         0
43.590        47
43.600        33
43.610        33
43.620        33
43.630        47
43.640        27
43.650        33
43.660        27
43.670        33
43.680        33
43.690        27
43.700        27
43.710        20
43.720        13
43.730        40
43.740        47
43.750        47
43.760        20
43.770        20
43.780        13
43.790        67
43.800        27
43.810        27
43.820        27
43.830        27
43.840        27
43.850        40
43.860        40
43.870        20
43.880         7
43.890        40
43.900        53
43.910        33
43.920        27
43.930        53
43.940        53
43.950        40
43.960        40
43.970         0
43.980        40
43.990        20
44.000        27
44.010        60
44.020        47
44.030        33
44.040        60
44.050        40
44.060        40
44.070        33
44.080        40
44.090        53
44.100        27
44.110        20
44.120        60
44.130        27
44.140        40
44.150        40
44.160        47
44.170        20
44.180        20
44.190        27
44.200        53
44.210        13
44.220        33
44.230        13
44.240        33
44.250        20
44.260        80
44.270        13
44.280        20
44.290        33
44.300        13
44.310        27
44.320        47
44.330        33
44.340         7
44.350        33
44.360        20
44.370        33
44.380        27
44.390        27
44.400        20
44.410        27
44.420        33
44.430        13
44.440        13
44.450        27
44.460        27
44.470        33
44.480        20
44.490        40
44.500        33
44.510        27
44.520        27
44.530        27
44.540        27
44.550        33
44.560        47
44.570        33
44.580        33
44.590        33
44.600        40
44.610        27
44.620        13
44.630        40
44.640        33
44.650        47
44.660        40
44.670        27
44.680        40
44.690        47
44.700         7
44.710        33
44.720        47
44.730        67
44.740        67
44.750        27
44.760         7
44.770        27
44.780        47
44.790        27
44.800        87
44.810        13
44.820        53
44.830        33
44.840        20
44.850        20
44.860        67
44.870        13
44.880        20
44.890        40
44.900        33
44.910        40
44.920        33
44.930        27
44.940        40
44.950        40
44.960        33
44.970        20
44.980        20
44.990        40
45.000        47
45.010        20
45.020        33
45.030        60
45.040        27
45.050        13
45.060        40
45.070        53
45.080        13
45.090         7
45.100        33
45.110        13
45.120        33
45.130        27
45.140        53
45.150        20
45.160        53
45.170        40
45.180        73
45.190        60
45.200        47
45.210        40
45.220        27
45.230        27
45.240        67
45.250        53
45.260        27
45.270        20
45.280        13
45.290        13
45.300        47
45.310        33
45.320        47
45.330        27
45.340        60
45.350        27
45.360        47
45.370        67
45.380        53
45.390        27
45.400        33
45.410        47
45.420        20
45.430        47
45.440        20
45.450        40
45.460        67
45.470        60
45.480        67
45.490        27
45.500        27
45.510        40
45.520        33
45.530        47
45.540        47
45.550        40
45.560        20
45.570        33
45.580        67
45.590        60
45.600        33
45.610        73
45.620        47
45.630        20
45.640        40
45.650        33
45.660        60
45.670        67
45.680        80
45.690        27
45.700        53
45.710        40
45.720        60
45.730        67
45.740        87
45.750        53
45.760        73
45.770        67
45.780        40
45.790        73
45.800        53
45.810        60
45.820        80
45.830        60
45.840        80
45.850        67
45.860       100
45.870       113
45.880        53
45.890       107
45.900       100
45.910       107
45.920       107
45.930       100
45.940        93
45.950       120
45.960        80
45.970       127
45.980        73
45.990       213
46.000       180
46.010       107
46.020       147
46.030       140
46.040       193
46.050       173
46.060       167
46.070       313
46.080       247
46.090       240
46.100       247
46.110       307
46.120       273
46.130       300
46.140       307
46.150       327
46.160       307
46.170       347
46.180       340
46.190       333
46.200       387
46.210       453
46.220       407
46.230       446
46.240       466
46.250       473
46.260       520
46.270       540
46.280       553
46.290       600
46.300       600
46.310       633
46.320       673
46.330       780
46.340       733
46.350       780
46.360       666
46.370       733
46.380       813
46.390       720
46.400       593
46.410       780
46.420       793
46.430       786
46.440       673
46.450       713
46.460       660
46.470       593
46.480       606
46.490       620
46.500       526
46.510       520
46.520       526
46.530       546
46.540       426
46.550       426
46.560       400
46.570       340
46.580       360
46.590       433
46.600       267
46.610       267
46.620       347
46.630       227
46.640       180
46.650       247
46.660       193
46.670       213
46.680       127
46.690       173
46.700       193
46.710       160
46.720       220
46.730       167
46.740       153
46.750       207
46.760       167
46.770       140
46.780       113
46.790       133
46.800       133
46.810       140
46.820       120
46.830       140
46.840       153
46.850       107
46.860       127
46.870        33
46.880        47
46.890        67
46.900       100
46.910        73
46.920       100
46.930       107
46.940       133
46.950        93
46.960        93
46.970        87
46.980       100
46.990       127
47.000       100
47.010        67
47.020       100
47.030       120
47.040        93
47.050        53
47.060       107
47.070       133
47.080        93
47.090       140
47.100       127
47.110       153
47.120       147
47.130       153
47.140       213
47.150       313
47.160       493
47.170       726
47.180       853
47.190      1166
47.200      1213
47.210      1193
47.220      1140
47.230      1299
47.240      1213
47.250       946
47.260       740
47.270       380
47.280       307
47.290       273
47.300       200
47.310       140
47.320       193
47.330       113
47.340       127
47.350        80
47.360        60
47.370       100
47.380       133
47.390        53
47.400        53
47.410       100
47.420        80
47.430        93
47.440        73
47.450       100
47.460        40
47.470        87
47.480        87
47.490        67
47.500        33
47.510        67
47.520        33
47.530        67
47.540        53
47.550        93
47.560        53
47.570        53
47.580        53
47.590        33
47.600        67
47.610        67
47.620        40
47.630        53
47.640        27
47.650        47
47.660        40
47.670        87
47.680        60
47.690        33
47.700        40
47.710        80
47.720        40
47.730        80
47.740        47
47.750        67
47.760        47
47.770        60
47.780        67
47.790        67
47.800        60
47.810        60
47.820        27
47.830        73
47.840        47
47.850        40
47.860        73
47.870        80
47.880        33
47.890        47
47.900        40
47.910        20
47.920        40
47.930        33
47.940        60
47.950        60
47.960        27
47.970        33
47.980        53
47.990        40
48.000        40
48.010        47
48.020        67
48.030        53
48.040        60
48.050        33
48.060        53
48.070        40
48.080        47
48.090        47
48.100        40
48.110        67
48.120        13
48.130        27
48.140        47
48.150        40
48.160        73
48.170        40
48.180        60
48.190        67
48.200        40
48.210        53
48.220        20
48.230        33
48.240        33
48.250        53
48.260        53
48.270        33
48.280        13
48.290        53
48.300        20
48.310        27
48.320        27
48.330        60
48.340        47
48.350        40
48.360        40
48.370        53
48.380        27
48.390        53
48.400        27
48.410        33
48.420        40
48.430        47
48.440        67
48.450        40
48.460        40
48.470        60
48.480        33
48.490        47
48.500        67
48.510        60
48.520        27
48.530        47
48.540        47
48.550        47
48.560        53
48.570        60
48.580        40
48.590        33
48.600        20
48.610        40
48.620        27
48.630        40
48.640        33
48.650        40
48.660        20
48.670        27
48.680        53
48.690        40
48.700        27
48.710        27
48.720         7
48.730        20
48.740        47
48.750        40
48.760        40
48.770        13
48.780        67
48.790        60
48.800        40
48.810        20
48.820        53
48.830        40
48.840        47
48.850        53
48.860        27
48.870        53
48.880        27
48.890        53
48.900        20
48.910        33
48.920        47
48.930        20
48.940        60
48.950        27
48.960        27
48.970        53
48.980        33
48.990        40
49.000        47
49.010        60
49.020        47
49.030        40
49.040         7
49.050        20
49.060        27
49.070        53
49.080        20
49.090        33
49.100        27
49.110        20
49.120        40
49.130        53
49.140        40
49.150        33
49.160        33
49.170        53
49.180        20
49.190        53
49.200         7
49.210        33
49.220        40
49.230        40
49.240        47
49.250        33
49.260        20
49.270        27
49.280        20
49.290        47
49.300        20
49.310        40
49.320        47
49.330        47
49.340        47
49.350        40
49.360        33
49.370        60
49.380        27
49.390        27
49.400        60
49.410        33
49.420        13
49.430        13
49.440        27
49.450        27
49.460        47
49.470        40
49.480        47
49.490        27
49.500        33
49.510        40
49.520        40
49.530        40
49.540        40
49.550        60
49.560        40
49.570        27
49.580        27
49.590        20
49.600        47
49.610        20
49.620        27
49.630        13
49.640        60
49.650        40
49.660        20
49.670        40
49.680        33
49.690        13
49.700        33
49.710        27
49.720        27
49.730        33
49.740         0
49.750        13
49.760        33
49.770        47
49.780        40
49.790        20
49.800        33
49.810        27
49.820        27
49.830        53
49.840        40
49.850        33
49.860        33
49.870        40
49.880        27
49.890        33
49.900        33
49.910        60
49.920        13
49.930        20
49.940        60
49.950        33
49.960        33
49.970        27
49.980        20
49.990        47
50.000        13
50.010        60
50.020        40
50.030        53
50.040        53
50.050        27
50.060        20
50.070        33
50.080        53
50.090        47
50.100        13
50.110        20
50.120        40
50.130        13
50.140        33
50.150        47
50.160        27
50.170        33
50.180        67
50.190        40
50.200        47
50.210        47
50.220        27
50.230        60
50.240        20
50.250        60
50.260        20
50.270        27
50.280        53
50.290        33
50.300        33
50.310        40
50.320        47
50.330        27
50.340        60
50.350        27
50.360        33
50.370        67
50.380        33
50.390        27
50.400         7
50.410        60
50.420        13
50.430        47
50.440        47
50.450        73
50.460        33
50.470        67
50.480        33
50.490        47
50.500        33
50.510        27
50.520        40
50.530        20
50.540        67
50.550        67
50.560        73
50.570       107
50.580        33
50.590        60
50.600        73
50.610        13
50.620        73
50.630       100
50.640        73
50.650        80
50.660       160
50.670       113
50.680       213
50.690       200
50.700       253
50.710       320
50.720       327
50.730       313
50.740       307
50.750       293
50.760       280
50.770       373
50.780       373
50.790       300
50.800       267
50.810       460
50.820       353
50.830       353
50.840       373
50.850       353
50.860       373
50.870       426
50.880       407
50.890       413
50.900       353
50.910       300
50.920       320
50.930       273
50.940       293
50.950       333
50.960       327
50.970       333
50.980       273
50.990       333
51.000       426
51.010       353
51.020       400
51.030       433
51.040       287
51.050       360
51.060       367
51.070       440
51.080       367
51.090       400
51.100       373
51.110       333
51.120       340
51.130       273
51.140       453
51.150       347
51.160       440
51.170       380
51.180       486
51.190       380
51.200       380
51.210       413
51.220       353
51.230       367
51.240       300
51.250       320
51.260       320
51.270       426
51.280       340
51.290       353
51.300       313
51.310       293
51.320       293
51.330       327
51.340       400
51.350       367
51.360       273
51.370       400
51.380       367
51.390       353
51.400       333
51.410       433
51.420       340
51.430       380
51.440       347
51.450       520
51.460       347
51.470       373
51.480       293
51.490       360
51.500       313
51.510       327
51.520       387
51.530       380
51.540       486
51.550       327
51.560       333
51.570       446
51.580       353
51.590       353
51.600       293
51.610       367
51.620       373
51.630       293
51.640       407
51.650       347
51.660       373
51.670       307
51.680       360
51.690       380
51.700       373
51.710       393
51.720       333
51.730       373
51.740       407
51.750       480
51.760       327
51.770       347
51.780       400
51.790       460
51.800       486
51.810       520
51.820       387
51.830       440
51.840       413
51.850       367
51.860       433
51.870       387
51.880       426
51.890       433
51.900       387
51.910       566
51.920       526
51.930       493
51.940       440
51.950       573
51.960       473
51.970       546
51.980       466
51.990       486
52.000       453
52.010       480
52.020       540
52.030       613
52.040       606
52.050       513
52.060       573
52.070       560
52.080       660
52.090       646
52.100       573
52.110       633
52.120       713
52.130       613
52.140       653
52.150       720
52.160       733
52.170       726
52.180       686
52.190       740
52.200       853
52.210       740
52.220       906
52.230       920
52.240      1033
52.250      1066
52.260      1140
52.270      1326
52.280      1413
52.290      1879
52.300      2232
52.310      2466
52.320      3079
52.330      3472
52.340      3938
52.350      4405
52.360      4891
52.370      5431
52.380      5631
52.390      6091
52.400      6351
52.410      6751
52.420      6437
52.430      7290
52.440      7071
52.450      7884
52.460      8310
52.470      8503
52.480      8803
52.490      9056
52.500     10716
52.510     12328
52.520     14428
52.530     18433
52.540     24823
52.550     40730
52.560     67979
52.570     99567
52.580    126496
52.590    146848
52.600    159736
52.610    163954
52.620    161629
52.630    150213
52.640    124264
52.650     89398
52.660     59716
52.670     38545
52.680     30594
52.690     32307
52.700     42583
52.710     58050
52.720     72031
52.730     82500
52.740     90137
52.750     94669
52.760     92663
52.770     81301
52.780     67926
52.790     48047
52.800     30788
52.810     19259
52.820     12095
52.830      8477
52.840      6151
52.850      4778
52.860      4112
52.870      3559
52.880      3319
52.890      2985
52.900      2832
52.910      2379
52.920      2252
52.930      2119
52.940      1999
52.950      1806
52.960      1513
52.970      1419
52.980      1546
52.990      1466
53.000      1459
53.010      1259
53.020      1146
53.030      1093
53.040      1133
53.050       973
53.060       960
53.070      1100
53.080       886
53.090       913
53.100       920
53.110       880
53.120       846
53.130       820
53.140       733
53.150       720
53.160       700
53.170       626
53.180       646
53.190       606
53.200       706
53.210       806
53.220       833
53.230       600
53.240       620
53.250       613
53.260       593
53.270       586
53.280       606
53.290       580
53.300       493
53.310       573
53.320       553
53.330       620
53.340       506
53.350       506
53.360       473
53.370       506
53.380       440
53.390       633
53.400       380
53.410       573
53.420       533
53.430       620
53.440       460
53.450       433
53.460       380
53.470       433
53.480       460
53.490       586
53.500       460
53.510       460
53.520       493
53.530       466
53.540       440
53.550       347
53.560       347
53.570       466
53.580       420
53.590       400
53.600       407
53.610       347
53.620       367
53.630       466
53.640       313
53.650       387
53.660       387
53.670       280
53.680       413
53.690       393
53.700       420
53.710       407
53.720       320
53.730       260
53.740       287
53.750       293
53.760       373
53.770       347
53.780       327
53.790       380
53.800       433
53.810       260
53.820       280
53.830       320
53.840       300
53.850       333
53.860       313
53.870       293
53.880       253
53.890       293
53.900       360
53.910       287
53.920       287
53.930       240
53.940       426
53.950       293
53.960       300
53.970       280
53.980       420
53.990       340
54.000       333
54.010       267
54.020       220
54.030       426
54.040       320
54.050       273
54.060       293
54.070       340
54.080       307
54.090       287
54.100       347
54.110       387
54.120       240
54.130       267
54.140       347
54.150       353
54.160       220
54.170       280
54.180       280
54.190       233
54.200       227
54.210       260
54.220       247
54.230       320
54.240       300
54.250       333
54.260       253
54.270       173
54.280       360
54.290       273
54.300       260
54.310       267
54.320       287
54.330       207
54.340       240
54.350       280
54.360       313
54.370       247
54.380       253
54.390       333
54.400       253
54.410       287
54.420       220
54.430       327
54.440       360
54.450       247
54.460       293
54.470       233
54.480       247
54.490       213
54.500       233
54.510       333
54.520       353
54.530       233
54.540       253
54.550       220
54.560       220
54.570       307
54.580       260
54.590       240
54.600       180
54.610       253
54.620       240
54.630       227
54.640       313
54.650       293
54.660       240
54.670       173
54.680       273
54.690       267
54.700       207
54.710       207
54.720       307
54.730       280
54.740       240
54.750       307
54.760       227
54.770       253
54.780       227
54.790       227
54.800       260
54.810       287
54.820       220
54.830       220
54.840       207
54.850       253
54.860       253
54.870       233
54.880       173
54.890       253
54.900       253
54.910       307
54.920       187
54.930       240
54.940       180
54.950       267
54.960       180
54.970       260
54.980       280
54.990       153
55.000       193
55.010       247
55.020       260
55.030       240
55.040       220
55.050       227
55.060       160
55.070       213
55.080       207
55.090       207
55.100       173
55.110       267
55.120       227
55.130       193
55.140       220
55.150       287
55.160       233
55.170       180
55.180       200
55.190       193
55.200       200
55.210       227
55.220       173
55.230       293
55.240       220
55.250       247
55.260       213
55.270       253
55.280       173
55.290       247
55.300       207
55.310       173
55.320       293
55.330       227
55.340       240
55.350       187
55.360       153
55.370       160
55.380       187
55.390       267
55.400       193
55.410       153
55.420       167
55.430       180
55.440       260
55.450       227
55.460       333
55.470       207
55.480       160
55.490       233
55.500       200
55.510       227
55.520       160
55.530       240
55.540       227
55.550       207
55.560       233
55.570       207
55.580       173
55.590       207
55.600       247
55.610       193
55.620       127
55.630       220
55.640       173
55.650       160
55.660       227
55.670       207
55.680       187
55.690       167
55.700       260
55.710       147
55.720       193
55.730       227
55.740       213
55.750       160
55.760       200
55.770       160
55.780       193
55.790       173
55.800       253
55.810       220
55.820       220
55.830       213
55.840       247
55.850       227
55.860       227
55.870       180
55.880       140
55.890       147
55.900       207
55.910       227
55.920       167
55.930       193
55.940       193
55.950       167
55.960       213
55.970       160
55.980       220
55.990       220
56.000       193
56.010       153
56.020       253
56.030       200
56.040       120
56.050       167
56.060       133
56.070       180
56.080       153
56.090       200
56.100       173
56.110       213
56.120       180
56.130       160
56.140       147
56.150       173
56.160       133
56.170       200
56.180       167
56.190       200
56.200       240
56.210       167
56.220       167
56.230       207
56.240       233
56.250       180
56.260       220
56.270       227
56.280       153
56.290       207
56.300       180
56.310       200
56.320       173
56.330       133
56.340       207
56.350       220
56.360       193
56.370       153
56.380       167
56.390       187
56.400       200
56.410       193
56.420       253
56.430       227
56.440        87
56.450       140
56.460       140
56.470       240
56.480       100
56.490       180
56.500       207
56.510       233
56.520       200
56.530       200
56.540       220
56.550       220
56.560       140
56.570       173
56.580       133
56.590       193
56.600       153
56.610       127
56.620       187
56.630       160
56.640       167
56.650       127
56.660       120
56.670       147
56.680       127
56.690       187
56.700       160
56.710       173
56.720       113
56.730       200
56.740       140
56.750       193
56.760       147
56.770       140
56.780       173
56.790       127
56.800       160
56.810       187
56.820       180
56.830       140
56.840       180
56.850       173
56.860       220
56.870       173
56.880       167
56.890       147
56.900       213
56.910       227
56.920       193
56.930       173
56.940       140
56.950       187
56.960       140
56.970       193
56.980       220
56.990       233
57.000        93
57.010       127
57.020       153
57.030       147
57.040       107
57.050       193
57.060       147
57.070       127
57.080       160
57.090       127
57.100       133
57.110       140
57.120       140
57.130       147
57.140       227
57.150       200
57.160       200
57.170       147
57.180       180
57.190       187
57.200       160
57.210       187
57.220       140
57.230       147
57.240       113
57.250       160
57.260       120
57.270       180
57.280       233
57.290       187
57.300       127
57.310       160
57.320       200
57.330       153
57.340       180
57.350       133
57.360       127
57.370       113
57.380       193
57.390       147
57.400       147
57.410       133
57.420       193
57.430       133
57.440       173
57.450       200
57.460       167
57.470       120
57.480       100
57.490       127
57.500       180
57.510        87
57.520       133
57.530       200
57.540       107
57.550       180
57.560        87
57.570       160
57.580       187
57.590       227
57.600       173
57.610       107
57.620       113
57.630       127
57.640       167
57.650       193
57.660       160
57.670       127
57.680       200
57.690       120
57.700       153
57.710        87
57.720       133
57.730       120
57.740       200
57.750       100
57.760       193
57.770       147
57.780       133
57.790       173
57.800       147
57.810       160
57.820       153
57.830       140
57.840       147
57.850       147
57.860       167
57.870        93
57.880       180
57.890       113
57.900       120
57.910       207
57.920       180
57.930       147
57.940       120
57.950       133
57.960       153
57.970        93
57.980       133
57.990       147
58.000       167
58.010       187
58.020       147
58.030       113
58.040       120
58.050       127
58.060       180
58.070       187
58.080       140
58.090       153
58.100       107
58.110       133
58.120       140
58.130       140
58.140       100
58.150        73
58.160       127
58.170       193
58.180       153
58.190       120
58.200       187
58.210       180
58.220       147
58.230       140
58.240       160
58.250       187
58.260       147
58.270       167
58.280       213
58.290       173
58.300       107
58.310       153
58.320       173
58.330       187
58.340       153
58.350       107
58.360       160
58.370       147
58.380       167
58.390       120
58.400       153
58.410       100
58.420       140
58.430        87
58.440       153
58.450       140
58.460       120
58.470       167
58.480       120
58.490       113
58.500       133
58.510       113
58.520       107
58.530       160
58.540       167
58.550       120
58.560       200
58.570       120
58.580       140
58.590       127
58.600       187
58.610       147
58.620       140
58.630       100
58.640       120
58.650       140
58.660       187
58.670       207
58.680       167
58.690       107
58.700       107
58.710        93
58.720       140
58.730       147
58.740       140
58.750       167
58.760       147
58.770       187
58.780       127
58.790       127
58.800       140
58.810        87
58.820       140
58.830       153
58.840       113
58.850       180
58.860       140
58.870       107
58.880       120
58.890       107
58.900       107
58.910       153
58.920       107
58.930       227
58.940       133
58.950       113
58.960       113
58.970       113
58.980       113
58.990        87
59.000       153
59.010       113
59.020        93
59.030       140
59.040       153
59.050       120
59.060        93
59.070       133
59.080       147
59.090       133
59.100       120
59.110       180
59.120        93
59.130       160
59.140       147
59.150        93
59.160       140
59.170        93
59.180        87
59.190        93
59.200       120
59.210       120
59.220       193
59.230       113
59.240       133
59.250       133
59.260        93
59.270       113
59.280        73
59.290       100
59.300       133
59.310       140
59.320       180
59.330       153
59.340       147
59.350       107
59.360       120
59.370       147
59.380        93
59.390       113
59.400       127
59.410       140
59.420        80
59.430        93
59.440       100
59.450       147
59.460       100
59.470       153
59.480       113
59.490       107
59.500        87
59.510        47
59.520       147
59.530       133
59.540       127
59.550       100
59.560       113
59.570        80
59.580       153
59.590       127
59.600       160
59.610       113
59.620       153
59.630       160
59.640       113
59.650       127
59.660       100
59.670       113
59.680       127
59.690       167
59.700       113
59.710       107
59.720       160
59.730       180
59.740       153
59.750       167
59.760       107
59.770       133
59.780       107
59.790        87
59.800       133
59.810        80
59.820       160
59.830        73
59.840       140
59.850       113
59.860        93
59.870       153
59.880       113
59.890       107
59.900       140
59.910       140
59.920       113
59.930        93
59.940       113
59.950       100
59.960        87
59.970        93
59.980       127
59.990       120
60.000        87
