20.000        40
20.010        53
20.020        53
20.030        60
20.040        60
20.050        27
20.060        20
20.070        60
20.080        53
20.090        67
20.100        73
20.110        53
20.120        27
20.130        53
20.140        40
20.150        73
20.160        47
20.170        87
20.180        80
20.190        40
20.200        80
20.210        40
20.220        53
20.230        20
20.240        40
20.250        40
20.260        13
20.270        27
20.280        47
20.290        27
20.300        53
20.310        27
20.320        33
20.330        73
20.340        27
20.350        33
20.360        73
20.370        40
20.380        40
20.390        20
20.400        20
20.410        33
20.420        27
20.430        47
20.440        40
20.450        73
20.460        60
20.470        27
20.480        87
20.490        40
20.500        47
20.510        53
20.520        33
20.530        60
20.540        40
20.550        53
20.560        60
20.570        47
20.580        80
20.590        67
20.600        60
20.610        53
20.620        27
20.630        47
20.640        60
20.650        40
20.660        47
20.670        40
20.680        33
20.690        40
20.700        40
20.710        40
20.720        40
20.730        27
20.740        40
20.750        60
20.760        60
20.770        27
20.780        53
20.790        47
20.800        53
20.810        27
20.820        33
20.830        20
20.840        60
20.850        60
20.860        60
20.870        47
20.880        27
20.890        60
20.900        60
20.910        27
20.920        40
20.930        20
20.940        13
20.950        33
20.960        33
20.970        40
20.980        33
20.990        47
21.000        20
21.010        53
21.020        33
21.030        67
21.040        27
21.050        47
21.060        40
21.070        47
21.080        67
21.090        47
21.100        47
21.110        20
21.120        47
21.130        27
21.140        40
21.150        20
21.160        53
21.170        60
21.180        53
21.190        47
21.200        60
21.210        80
21.220        60
21.230        27
21.240        73
21.250        47
21.260        20
21.270        33
21.280        53
21.290        40
21.300        40
21.310        60
21.320        33
21.330        33
21.340        33
21.350        20
21.360        47
21.370        73
21.380        20
21.390        40
21.400        40
21.410        47
21.420        60
21.430        13
21.440         7
21.450        40
21.460        40
21.470        67
21.480        27
21.490        33
21.500        20
21.510        53
21.520        53
21.530        27
21.540        13
21.550        47
21.560        40
21.570        33
21.580        33
21.590        47
21.600        53
21.610        20
21.620        20
21.630        67
21.640        13
21.650        33
21.660        53
21.670        40
21.680        13
21.690        13
21.700        60
21.710        40
21.720        27
21.730        27
21.740        33
21.750        33
21.760        67
21.770        60
21.780        60
21.790        47
21.800        53
21.810        47
21.820        33
21.830        33
21.840        67
21.850        33
21.860        67
21.870        20
21.880        40
21.890        53
21.900        13
21.910        40
21.920        60
21.930        33
21.940        20
21.950        13
21.960        33
21.970        53
21.980        47
21.990        73
22.000        20
22.010        33
22.020        53
22.030        40
22.040        40
22.050        33
22.060         7
22.070        47
22.080        20
22.090        40
22.100        60
22.110        47
22.120        13
22.130        20
22.140        20
22.150        60
22.160        33
22.170        33
22.180        47
22.190        47
22.200        60
22.210        53
22.220        60
22.230        20
22.240        53
22.250        53
22.260        80
22.270        20
22.280        33
22.290        47
22.300        53
22.310        47
22.320         7
22.330        33
22.340        73
22.350        87
22.360        67
22.370        40
22.380        67
22.390        53
22.400        40
22.410        60
22.420        33
22.430        33
22.440        47
22.450        67
22.460        33
22.470        33
22.480        53
22.490        53
22.500        40
22.510        40
22.520        47
22.530       100
22.540        73
22.550        33
22.560        73
22.570        73
22.580        87
22.590       113
22.600        67
22.610        53
22.620        67
22.630        73
22.640       133
22.650        53
22.660       120
22.670        80
22.680        53
22.690       120
22.700        80
22.710        60
22.720        60
22.730        80
22.740        73
22.750        73
22.760        60
22.770        87
22.780        93
22.790        60
22.800        40
22.810        47
22.820        53
22.830        73
22.840        47
22.850        67
22.860        13
22.870        20
22.880        53
22.890        67
22.900        67
22.910        20
22.920        67
22.930        47
22.940        40
22.950        60
22.960        33
22.970        33
22.980         7
22.990        47
23.000        67
23.010        27
23.020        47
23.030        40
23.040        47
23.050        20
23.060        80
23.070        53
23.080        33
23.090        47
23.100        33
23.110        40
23.120        33
23.130        67
23.140        47
23.150        13
23.160        47
23.170        40
23.180        13
23.190        33
23.200        67
23.210        53
23.220        73
23.230        40
23.240        33
23.250        53
23.260        27
23.270        33
23.280        40
23.290        33
23.300        27
23.310        67
23.320        60
23.330        40
23.340        47
23.350        40
23.360        27
23.370        27
23.380        33
23.390        53
23.400        27
23.410        80
23.420        47
23.430        20
23.440        27
23.450        27
23.460        33
23.470        80
23.480        40
23.490        13
23.500        40
23.510        33
23.520        47
23.530        33
23.540        80
23.550        40
23.560        47
23.570        60
23.580        47
23.590        73
23.600        60
23.610        53
23.620        20
23.630        47
23.640        13
23.650        27
23.660         7
23.670        67
23.680        27
23.690        40
23.700         7
23.710        20
23.720        47
23.730        20
23.740        60
23.750        40
23.760        27
23.770        33
23.780        33
23.790        40
23.800        20
23.810        20
23.820        33
23.830        53
23.840        40
23.850        33
23.860        27
23.870        13
23.880        27
23.890        40
23.900        27
23.910        40
23.920        33
23.930        20
23.940        33
23.950        33
23.960        47
23.970        33
23.980        47
23.990        27
24.000        33
24.010        47
24.020        27
24.030        40
24.040        33
24.050        33
24.060        33
24.070        40
24.080        40
24.090        33
24.100        60
24.110         7
24.120        20
24.130        20
24.140        27
24.150        13
24.160        27
24.170        40
24.180        33
24.190        20
24.200        33
24.210        53
24.220        33
24.230        67
24.240         7
24.250        27
24.260        27
24.270        40
24.280         7
24.290        20
24.300        13
24.310        27
24.320        40
24.330        47
24.340        47
24.350        53
24.360        20
24.370        20
24.380        33
24.390        33
24.400        20
24.410        47
24.420        20
24.430        40
24.440        53
24.450        27
24.460        60
24.470        47
24.480        20
24.490        47
24.500        27
24.510        40
24.520        33
24.530        27
24.540        13
24.550        53
24.560        47
24.570        53
24.580        53
24.590        53
24.600        40
24.610        20
24.620        33
24.630        20
24.640        20
24.650        47
24.660         7
24.670         7
24.680        27
24.690        33
24.700        27
24.710        33
24.720        27
24.730        33
24.740        40
24.750        27
24.760        27
24.770        60
24.780        13
24.790        33
24.800        53
24.810        53
24.820        87
24.830        27
24.840        40
24.850        33
24.860        20
24.870        47
24.880        40
24.890        47
24.900        20
24.910        40
24.920        67
24.930        47
24.940        40
24.950        27
24.960        47
24.970        53
24.980        33
24.990        20
25.000        40
25.010        13
25.020        13
25.030        53
25.040        20
25.050        13
25.060        40
25.070        67
25.080        53
25.090        40
25.100        33
25.110        40
25.120        33
25.130        60
25.140        47
25.150        47
25.160        27
25.170        67
25.180        27
25.190        47
25.200        20
25.210        47
25.220        47
25.230        47
25.240        80
25.250        33
25.260        13
25.270        47
25.280        27
25.290        53
25.300        53
25.310        47
25.320        40
25.330        47
25.340        20
25.350        33
25.360        33
25.370        13
25.380        27
25.390        53
25.400        20
25.410        73
25.420        73
25.430        47
25.440        80
25.450        20
25.460        47
25.470        33
25.480        33
25.490        60
25.500       100
25.510        53
25.520       107
25.530        87
25.540       127
25.550       207
25.560       160
25.570       153
25.580       253
25.590       173
25.600       300
25.610       240
25.620       200
25.630       160
25.640       160
25.650       100
25.660       140
25.670        87
25.680        87
25.690        87
25.700        80
25.710        27
25.720        20
25.730        27
25.740        53
25.750        27
25.760        27
25.770         7
25.780        40
25.790        40
25.800        33
25.810         7
25.820        13
25.830        20
25.840        27
25.850        20
25.860        13
25.870        20
25.880        20
25.890        53
25.900        40
25.910        40
25.920        40
25.930        13
25.940        60
25.950        33
25.960        47
25.970        47
25.980        33
25.990        20
26.000        47
26.010        33
26.020        13
26.030        20
26.040        33
26.050        27
26.060        27
26.070        40
26.080        27
26.090        33
26.100        60
26.110        53
26.120        33
26.130        33
26.140        20
26.150        27
26.160        53
26.170        40
26.180        40
26.190        20
26.200        47
26.210        27
26.220        40
26.230        67
26.240        33
26.250        40
26.260        33
26.270        27
26.280        53
26.290        67
26.300        73
26.310        13
26.320         7
26.330        40
26.340        33
26.350        40
26.360        33
26.370        27
26.380        40
26.390        47
26.400        27
26.410        27
26.420        47
26.430        27
26.440        27
26.450        60
26.460        20
26.470        47
26.480        40
26.490        33
26.500        53
26.510        40
26.520        27
26.530        27
26.540        20
26.550        33
26.560        47
26.570        47
26.580        67
26.590        20
26.600        33
26.610        33
26.620        47
26.630        47
26.640        40
26.650        27
26.660        13
26.670        27
26.680        13
26.690        40
26.700        53
26.710        33
26.720        27
26.730        47
26.740        67
26.750         7
26.760        27
26.770        27
26.780        60
26.790        27
26.800        20
26.810        47
26.820        33
26.830        33
26.840        27
26.850        20
26.860        27
26.870        33
26.880        33
26.890        20
26.900        27
26.910        27
26.920        20
26.930        47
26.940        13
26.950        47
26.960        20
26.970        20
26.980        47
26.990        53
27.000        33
27.010        13
27.020        33
27.030        27
27.040         7
27.050        33
27.060        47
27.070        13
27.080        20
27.090        33
27.100        33
27.110        33
27.120        67
27.130        33
27.140        20
27.150        20
27.160        60
27.170         7
27.180        20
27.190        53
27.200        53
27.210        33
27.220        20
27.230        20
27.240        40
27.250        33
27.260        40
27.270        40
27.280        47
27.290        33
27.300        60
27.310        53
27.320        20
27.330        40
27.340        20
27.350        13
27.360        47
27.370        20
27.380         0
27.390        20
27.400        47
27.410        47
27.420        13
27.430        20
27.440        20
27.450        40
27.460        27
27.470        33
27.480        33
27.490        40
27.500        20
27.510        20
27.520        33
27.530         7
27.540        33
27.550        33
27.560        47
27.570        40
27.580        20
27.590        47
27.600        40
27.610        20
27.620        33
27.630        33
27.640         7
27.650        40
27.660        27
27.670        40
27.680        33
27.690        33
27.700         7
27.710        13
27.720        27
27.730        20
27.740        40
27.750        13
27.760        40
27.770        40
27.780         7
27.790        33
27.800         7
27.810        47
27.820        47
27.830        27
27.840        27
27.850        13
27.860        13
27.870        47
27.880        40
27.890         7
27.900        67
27.910        53
27.920        40
27.930        13
27.940        27
27.950        47
27.960        47
27.970        13
27.980        33
27.990        33
28.000        27
28.010        13
28.020        20
28.030        27
28.040        20
28.050        27
28.060        40
28.070        20
28.080        33
28.090        27
28.100        40
28.110        47
28.120        33
28.130        47
28.140        47
28.150        13
28.160        53
28.170        20
28.180        20
28.190         7
28.200        40
28.210        20
28.220        40
28.230        33
28.240        47
28.250         7
28.260        47
28.270        33
28.280        27
28.290        40
28.300        27
28.310        53
28.320        33
28.330        53
28.340         7
28.350        13
28.360        33
28.370        27
28.380        20
28.390        40
28.400        73
28.410        33
28.420        13
28.430        33
28.440        20
28.450        20
28.460        13
28.470        27
28.480        27
28.490        13
28.500        27
28.510        20
28.520        13
28.530        33
28.540        20
28.550        53
28.560        27
28.570        40
28.580        20
28.590        20
28.600        13
28.610        13
28.620        33
28.630        20
28.640        13
28.650         7
28.660        20
28.670        33
28.680        47
28.690        20
28.700        53
28.710        33
28.720        40
28.730        33
28.740        27
28.750        27
28.760        27
28.770        20
28.780         0
28.790        20
28.800        33
28.810        33
28.820         7
28.830        20
28.840        27
28.850        27
28.860        13
28.870        33
28.880        13
28.890        33
28.900        20
28.910        27
28.920        27
28.930        27
28.940        33
28.950        33
28.960        40
28.970        13
28.980        20
28.990        13
29.000        27
29.010        20
29.020        13
29.030        40
29.040        53
29.050        13
29.060        27
29.070        13
29.080        33
29.090        13
29.100        20
29.110        33
29.120        20
29.130        47
29.140         7
29.150        27
29.160        13
29.170        33
29.180        27
29.190        33
29.200        20
29.210        33
29.220        47
29.230        40
29.240        20
29.250        27
29.260        53
29.270        67
29.280        20
29.290        53
29.300        13
29.310        33
29.320        60
29.330        27
29.340        33
29.350        53
29.360        27
29.370        27
29.380        40
29.390        20
29.400        47
29.410        40
29.420        47
29.430        33
29.440        27
29.450        40
29.460        27
29.470        27
29.480        27
29.490        27
29.500        20
29.510        27
29.520        13
29.530        47
29.540        33
29.550        40
29.560        27
29.570        27
29.580        27
29.590        20
29.600        27
29.610        47
29.620        40
29.630        33
29.640        20
29.650         7
29.660        13
29.670        47
29.680        33
29.690        53
29.700         7
29.710        27
29.720        33
29.730        60
29.740        20
29.750        47
29.760        53
29.770        47
29.780        20
29.790        47
29.800         7
29.810        27
29.820         7
29.830        13
29.840        27
29.850         7
29.860        33
29.870        47
29.880        27
29.890        33
29.900        47
29.910        67
29.920        13
29.930        27
29.940        13
29.950        27
29.960        27
29.970        33
29.980        13
29.990        20
30.000        47
30.010        27
30.020        20
30.030        40
30.040        33
30.050        20
30.060        27
30.070        47
30.080         7
30.090        40
30.100         7
30.110        20
30.120        40
30.130        13
30.140        33
30.150        27
30.160        13
30.170        13
30.180        27
30.190        13
30.200        33
30.210        33
30.220        33
30.230        13
30.240        27
30.250        33
30.260        53
30.270         7
30.280        53
30.290        33
30.300        20
30.310        40
30.320        40
30.330        53
30.340        20
30.350        27
30.360        33
30.370         7
30.380        33
30.390        53
30.400        13
30.410        20
30.420        20
30.430        40
30.440        33
30.450        20
30.460        33
30.470        20
30.480        33
30.490        13
30.500        33
30.510        33
30.520        40
30.530        13
30.540        47
30.550        27
30.560        27
30.570        33
30.580        20
30.590        13
30.600        27
30.610        27
30.620         7
30.630        20
30.640        80
30.650        27
30.660        53
30.670        40
30.680        20
30.690        40
30.700        40
30.710        27
30.720         0
30.730        13
30.740        40
30.750        47
30.760        47
30.770        27
30.780        27
30.790        33
30.800        13
30.810        13
30.820        20
30.830        33
30.840        40
30.850        27
30.860        47
30.870         7
30.880        13
30.890        27
30.900        33
30.910        27
30.920        27
30.930        27
30.940        27
30.950        27
30.960        20
30.970        13
30.980        27
30.990        13
31.000        20
31.010        13
31.020        33
31.030        27
31.040        33
31.050        20
31.060        33
31.070        13
31.080        33
31.090        20
31.100        27
31.110        13
31.120        47
31.130        13
31.140        33
31.150        20
31.160        13
31.170         7
31.180        40
31.190        40
31.200        27
31.210        33
31.220        40
31.230        33
31.240        20
31.250        27
31.260        53
31.270        47
31.280        13
31.290        13
31.300         7
31.310        27
31.320        33
31.330        33
31.340        47
31.350        27
31.360         0
31.370        20
31.380        27
31.390        53
31.400        27
31.410        13
31.420        40
31.430        33
31.440        33
31.450        27
31.460        33
31.470        27
31.480        53
31.490        60
31.500        20
31.510        20
31.520        27
31.530        53
31.540        20
31.550        27
31.560        20
31.570        40
31.580        33
31.590        53
31.600        20
31.610        33
31.620        47
31.630         7
31.640        13
31.650        20
31.660        33
31.670        33
31.680        53
31.690        20
31.700        33
31.710        33
31.720        20
31.730        20
31.740        40
31.750        33
31.760        20
31.770        40
31.780        27
31.790        40
31.800        40
31.810        27
31.820        27
31.830         7
31.840        60
31.850        20
31.860        27
31.870        47
31.880        20
31.890        53
31.900        27
31.910        27
31.920        20
31.930        33
31.940        40
31.950        60
31.960        40
31.970        40
31.980        60
31.990        40
32.000        67
32.010        93
32.020        47
32.030        33
32.040        27
32.050        60
32.060        73
32.070        80
32.080        60
32.090        87
32.100        53
32.110        87
32.120        67
32.130        40
32.140        67
32.150        73
32.160       127
32.170        60
32.180        87
32.190        80
32.200       147
32.210        67
32.220        67
32.230       127
32.240       140
32.250       147
32.260       227
32.270       147
32.280       173
32.290       147
32.300       253
32.310       140
32.320       193
32.330       240
32.340       227
32.350       200
32.360       200
32.370       233
32.380       173
32.390       140
32.400       160
32.410       187
32.420       260
32.430       233
32.440       140
32.450       140
32.460       193
32.470       113
32.480        93
32.490       147
32.500       100
32.510       167
32.520       120
32.530       100
32.540       140
32.550       113
32.560        60
32.570       147
32.580        67
32.590        33
32.600        67
32.610        60
32.620        53
32.630        73
32.640        73
32.650        53
32.660        40
32.670         0
32.680        27
32.690        53
32.700        53
32.710        53
32.720        60
32.730        40
32.740        33
32.750        20
32.760        40
32.770        40
32.780        73
32.790        27
32.800         7
32.810        13
32.820        53
32.830        13
32.840        20
32.850        40
32.860        33
32.870        20
32.880        40
32.890         7
32.900        60
32.910        33
32.920        33
32.930         7
32.940        20
32.950        40
32.960        67
32.970        27
32.980        20
32.990        20
33.000        27
33.010        40
33.020        33
33.030        53
33.040        47
33.050        33
33.060        33
33.070        27
33.080        33
33.090        33
33.100        33
33.110        20
33.120        20
33.130        27
33.140        20
33.150        33
33.160        47
33.170        53
33.180         7
33.190        20
33.200        27
33.210        47
33.220        60
33.230        53
33.240        40
33.250        20
33.260        33
33.270        13
33.280        33
33.290        27
33.300        13
33.310         7
33.320        20
33.330        20
33.340        20
33.350        27
33.360        20
33.370        33
33.380        20
33.390        60
33.400        27
33.410        27
33.420         7
33.430        20
33.440         7
33.450        27
33.460        27
33.470        47
33.480        33
33.490         7
33.500        33
33.510        20
33.520        20
33.530        40
33.540        27
33.550        13
33.560        47
33.570        33
33.580        20
33.590        20
33.600         7
33.610        33
33.620        33
33.630        13
33.640        20
33.650        53
33.660        27
33.670        13
33.680        33
33.690        47
33.700        33
33.710        20
33.720         7
33.730        40
33.740        33
33.750        47
33.760        20
33.770        33
33.780        13
33.790         7
33.800        33
33.810        33
33.820        33
33.830        47
33.840        20
33.850        20
33.860        20
33.870        20
33.880        33
33.890        20
33.900        53
33.910        27
33.920        20
33.930         7
33.940        33
33.950        20
33.960        20
33.970        20
33.980        33
33.990        13
34.000        40
34.010        33
34.020        33
34.030        40
34.040        40
34.050         7
34.060        20
34.070         7
34.080        13
34.090         0
34.100        20
34.110         7
34.120        60
34.130        53
34.140        47
34.150        13
34.160        27
34.170        27
34.180        13
34.190        27
34.200        27
34.210        33
34.220        40
34.230        13
34.240        13
34.250        40
34.260         7
34.270        27
34.280        33
34.290        13
34.300        13
34.310        20
34.320        27
34.330        20
34.340        27
34.350        40
34.360        27
34.370        40
34.380        20
34.390        27
34.400        40
34.410        27
34.420        47
34.430        40
34.440        40
34.450        40
34.460        27
34.470        20
34.480        27
34.490        47
34.500         7
34.510         0
34.520         7
34.530        33
34.540        27
34.550        47
34.560        20
34.570        53
34.580        53
34.590        20
34.600         7
34.610        40
34.620        53
34.630        13
34.640        47
34.650        20
34.660        13
34.670        27
34.680        27
34.690        20
34.700        13
34.710        27
34.720        20
34.730        20
34.740        33
34.750        20
34.760        33
34.770        47
34.780        27
34.790        33
34.800        13
34.810        27
34.820        47
34.830        33
34.840        40
34.850        33
34.860        40
34.870        53
34.880        47
34.890        33
34.900        33
34.910        67
34.920        60
34.930        80
34.940        60
34.950        60
34.960        80
34.970        80
34.980        40
34.990        87
35.000       113
35.010        80
35.020        73
35.030       173
35.040       160
35.050       193
35.060       133
35.070       140
35.080       240
35.090       287
35.100       287
35.110       340
35.120       426
35.130       420
35.140       580
35.150       693
35.160       720
35.170       733
35.180       640
35.190       553
35.200       446
35.210       420
35.220       373
35.230       380
35.240       333
35.250       373
35.260       227
35.270       247
35.280       220
35.290       187
35.300       193
35.310       113
35.320        53
35.330        47
35.340        47
35.350        47
35.360        40
35.370        47
35.380        27
35.390        20
35.400        40
35.410        40
35.420        40
35.430        27
35.440        33
35.450        67
35.460        40
35.470        13
35.480        27
35.490        20
35.500        27
35.510        40
35.520        13
35.530        13
35.540        53
35.550        20
35.560        20
35.570        40
35.580        13
35.590        20
35.600        33
35.610        13
35.620        27
35.630        40
35.640        33
35.650        40
35.660        20
35.670        20
35.680        20
35.690        40
35.700        27
35.710        27
35.720        33
35.730        33
35.740        40
35.750         7
35.760         7
35.770        27
35.780        47
35.790        40
35.800        27
35.810         7
35.820        33
35.830        20
35.840        13
35.850        27
35.860        27
35.870        47
35.880        47
35.890        47
35.900        20
35.910        33
35.920        20
35.930        20
35.940        13
35.950         7
35.960        27
35.970        13
35.980         7
35.990        40
36.000         7
36.010         7
36.020        13
36.030        20
36.040        20
36.050        20
36.060        33
36.070        20
36.080        13
36.090         7
36.100        27
36.110        13
36.120        40
36.130        53
36.140        47
36.150        20
36.160        13
36.170         7
36.180         7
36.190        20
36.200        20
36.210         7
36.220        33
36.230        20
36.240         7
36.250        20
36.260        20
36.270        33
36.280        27
36.290        13
36.300        40
36.310        40
36.320        20
36.330         0
36.340        33
36.350         7
36.360        33
36.370         7
36.380        13
36.390        20
36.400         7
36.410        13
36.420        20
36.430        27
36.440        13
36.450        13
36.460        20
36.470         7
36.480        13
36.490        20
36.500         7
36.510        13
36.520        60
36.530        20
36.540         7
36.550        33
36.560        27
36.570         7
36.580         7
36.590         7
36.600        33
36.610        33
36.620         7
36.630        27
36.640        13
36.650         7
36.660        40
36.670        27
36.680         7
36.690         7
36.700         7
36.710        53
36.720         0
36.730        27
36.740        33
36.750        27
36.760        13
36.770        20
36.780        13
36.790        20
36.800        20
36.810        20
36.820        33
36.830        20
36.840        20
36.850         7
36.860        27
36.870        13
36.880        20
36.890        33
36.900        20
36.910        13
36.920        20
36.930        33
36.940         7
36.950        27
36.960        27
36.970        20
36.980        20
36.990        40
37.000        27
37.010        20
37.020        33
37.030        13
37.040        27
37.050         7
37.060         7
37.070        27
37.080        33
37.090        20
37.100         0
37.110        27
37.120        47
37.130        27
37.140        13
37.150        20
37.160        33
37.170         0
37.180        20
37.190        27
37.200        20
37.210        47
37.220        20
37.230        33
37.240        40
37.250        13
37.260         7
37.270        13
37.280        40
37.290        13
37.300         7
37.310        20
37.320        20
37.330        33
37.340         0
37.350        40
37.360        13
37.370        13
37.380        40
37.390        47
37.400         0
37.410        20
37.420        27
37.430        27
37.440        33
37.450        33
37.460        20
37.470        13
37.480        47
37.490        33
37.500        33
37.510        27
37.520        13
37.530        27
37.540         7
37.550        20
37.560        27
37.570        27
37.580        47
37.590        27
37.600        13
37.610        20
37.620        27
37.630        40
37.640         7
37.650        67
37.660        73
37.670        40
37.680        40
37.690        53
37.700        67
37.710       107
37.720       120
37.730        73
37.740        87
37.750        73
37.760       133
37.770       120
37.780       187
37.790       267
37.800       300
37.810       320
37.820       407
37.830       373
37.840       253
37.850       280
37.860       173
37.870       127
37.880       133
37.890        93
37.900       180
37.910       200
37.920       293
37.930       213
37.940       160
37.950       127
37.960       100
37.970        40
37.980        47
37.990        13
38.000        40
38.010        20
38.020        33
38.030        53
38.040         7
38.050         0
38.060        60
38.070         0
38.080        47
38.090        33
38.100        27
38.110        27
38.120        40
38.130        27
38.140        40
38.150        60
38.160        27
38.170        60
38.180        20
38.190        33
38.200         7
38.210        20
38.220        40
38.230        13
38.240        20
38.250        67
38.260        20
38.270        13
38.280        13
38.290        13
38.300         0
38.310         7
38.320        13
38.330        20
38.340         7
38.350        20
38.360        40
38.370         7
38.380        13
38.390        27
38.400         7
38.410        40
38.420        13
38.430        13
38.440        20
38.450        13
38.460        20
38.470         7
38.480        27
38.490        33
38.500        40
38.510        13
38.520        13
38.530        13
38.540         7
38.550         0
38.560        47
38.570        13
38.580        27
38.590        33
38.600        27
38.610        20
38.620        33
38.630        20
38.640        20
38.650        20
38.660        20
38.670        27
38.680        20
38.690        20
38.700         0
38.710        40
38.720        20
38.730        60
38.740        20
38.750        40
38.760         7
38.770         7
38.780         7
38.790        27
38.800        27
38.810        47
38.820        13
38.830        40
38.840        20
38.850        20
38.860        13
38.870        40
38.880        13
38.890        40
38.900        27
38.910         7
38.920        20
38.930        13
38.940        20
38.950        33
38.960        27
38.970        20
38.980        67
38.990        20
39.000        33
39.010        20
39.020        13
39.030        27
39.040        13
39.050        20
39.060        20
39.070        20
39.080        13
39.090         7
39.100         7
39.110        20
39.120        33
39.130        53
39.140        20
39.150         0
39.160        13
39.170        27
39.180        20
39.190         0
39.200        20
39.210        20
39.220        20
39.230        20
39.240        33
39.250        27
39.260        40
39.270        20
39.280        13
39.290        20
39.300         0
39.310         7
39.320        27
39.330        27
39.340        27
39.350        47
39.360        13
39.370        47
39.380        20
39.390         7
39.400        20
39.410         7
39.420         0
39.430        47
39.440         7
39.450        27
39.460        13
39.470        27
39.480        13
39.490        20
39.500        13
39.510         0
39.520        27
39.530        13
39.540        33
39.550        20
39.560        40
39.570         7
39.580        33
39.590        27
39.600        33
39.610        13
39.620        20
39.630        13
39.640        13
39.650        27
39.660        27
39.670        53
39.680        33
39.690        13
39.700        13
39.710        27
39.720        40
39.730        20
39.740        20
39.750        33
39.760        13
39.770        27
39.780        47
39.790        27
39.800        20
39.810        33
39.820        40
39.830        60
39.840        33
39.850        80
39.860        33
39.870        13
39.880        20
39.890        33
39.900        47
39.910        47
39.920        40
39.930        20
39.940        47
39.950        47
39.960        47
39.970        27
39.980        53
39.990        47
40.000        47
40.010        33
40.020        33
40.030        60
40.040        33
40.050        47
40.060        47
40.070        27
40.080        40
40.090        73
40.100        13
40.110        53
40.120        33
40.130        20
40.140        13
40.150        13
40.160        33
40.170        20
40.180        27
40.190        13
40.200        33
40.210        33
40.220        13
40.230        13
40.240        20
40.250        27
40.260        33
40.270        13
40.280        27
40.290         0
40.300        27
40.310        13
40.320        27
40.330        20
40.340        27
40.350         0
40.360        20
40.370        47
40.380        27
40.390         7
40.400         0
40.410        27
40.420        33
40.430        33
40.440        27
40.450        20
40.460        13
40.470        13
40.480        20
40.490        40
40.500        20
40.510        27
40.520        33
40.530        13
40.540        20
40.550        27
40.560        13
40.570        27
40.580        27
40.590        27
40.600        20
40.610        27
40.620        33
40.630        33
40.640        20
40.650        20
40.660        33
40.670        27
40.680        13
40.690        20
40.700        20
40.710         7
40.720        20
40.730        27
40.740        20
40.750        20
40.760        13
40.770         0
40.780         7
40.790        13
40.800        40
40.810        53
40.820        27
40.830        27
40.840        20
40.850         7
40.860        27
40.870        13
40.880        20
40.890        33
40.900        20
40.910         7
40.920        20
40.930         7
40.940        47
40.950        13
40.960         7
40.970        20
40.980        27
40.990         7
41.000         7
41.010        27
41.020        13
41.030        20
41.040         7
41.050        27
41.060        20
41.070        27
41.080        27
41.090        27
41.100        47
41.110         7
41.120        27
41.130        13
41.140        20
41.150         7
41.160        20
41.170        13
41.180        13
41.190        13
41.200        27
41.210        40
41.220        47
41.230         7
41.240        27
41.250         7
41.260        13
41.270        20
41.280         0
41.290         7
41.300        20
41.310        13
41.320        20
41.330        20
41.340        33
41.350        20
41.360        40
41.370        20
41.380        13
41.390        27
41.400        13
41.410        40
41.420        20
41.430        33
41.440        27
41.450        27
41.460        20
41.470        20
41.480        27
41.490        33
41.500         7
41.510        40
41.520        27
41.530        27
41.540        27
41.550         7
41.560        53
41.570        40
41.580        47
41.590        27
41.600        73
41.610        67
41.620        73
41.630        53
41.640        93
41.650        93
41.660        73
41.670       120
41.680       100
41.690       147
41.700       140
41.710       127
41.720       113
41.730        93
41.740       120
41.750        67
41.760        93
41.770       120
41.780        60
41.790        53
41.800        47
41.810       100
41.820        53
41.830        60
41.840        73
41.850        33
41.860        27
41.870        27
41.880        33
41.890        27
41.900         7
41.910        33
41.920        13
41.930        33
41.940         7
41.950        20
41.960        20
41.970        27
41.980        20
41.990        20
42.000        60
42.010        33
42.020        13
42.030        20
42.040        20
42.050        40
42.060        20
42.070        20
42.080        20
42.090        40
42.100        33
42.110        33
42.120        27
42.130        13
42.140        27
42.150        13
42.160        20
42.170        27
42.180        33
42.190        20
42.200         7
42.210        20
42.220        20
42.230        27
42.240        40
42.250        13
42.260        27
42.270        13
42.280        27
42.290        20
42.300        33
42.310        27
42.320        33
42.330         7
42.340        27
42.350        20
42.360        20
42.370        27
42.380        13
42.390         7
42.400         0
42.410        20
42.420         7
42.430        13
42.440         7
42.450        27
42.460         7
42.470        27
42.480        33
42.490        20
42.500        27
42.510        13
42.520        33
42.530         7
42.540        13
42.550        20
42.560        27
42.570        33
42.580        13
42.590        40
42.600        13
42.610        20
42.620        20
42.630         7
42.640         7
42.650        53
42.660        27
42.670        20
42.680        27
42.690        27
42.700        27
42.710        47
42.720        13
42.730        20
42.740        33
42.750        20
42.760        20
42.770        47
42.780         7
42.790        20
42.800        40
42.810        13
42.820        13
42.830        13
42.840        13
42.850        20
42.860         0
42.870        20
42.880        13
42.890        33
42.900        33
42.910        40
42.920         7
42.930         7
42.940         7
42.950        13
42.960        13
42.970        33
42.980        20
42.990        33
43.000         7
43.010        20
43.020        33
43.030        33
43.040        27
43.050        40
43.060        13
43.070        27
43.080        27
43.090        33
43.100        53
43.110        47
43.120        27
43.130        27
43.140        13
43.150        53
43.160        60
43.170        40
43.180        53
43.190        93
43.200        53
43.210        93
43.220        47
43.230        60
43.240        47
43.250        73
43.260        53
43.270       147
43.280       140
43.290        60
43.300       140
43.310       167
43.320       200
43.330       200
43.340       220
43.350       367
43.360       546
43.370       520
43.380       680
43.390       606
43.400       726
43.410       540
43.420       473
43.430       347
43.440       280
43.450       247
43.460       227
43.470       233
43.480       333
43.490       267
43.500       287
43.510       293
43.520       260
43.530       187
43.540       167
43.550       167
43.560       100
43.570        40
43.580        40
43.590        13
43.600        53
43.610        33
43.620        27
43.630        27
43.640        47
43.650        27
43.660        40
43.670        13
43.680        13
43.690        13
43.700        27
43.710        13
43.720         0
43.730        13
43.740        13
43.750        20
43.760        27
43.770        27
43.780        27
43.790        27
43.800         7
43.810        20
43.820        20
43.830        27
43.840        40
43.850         0
43.860        27
43.870        40
43.880        13
43.890        13
43.900        20
43.910        13
43.920        33
43.930        33
43.940        27
43.950        33
43.960        13
43.970        13
43.980        13
43.990        40
44.000        40
44.010        13
44.020        40
44.030        40
44.040        20
44.050        13
44.060        33
44.070         0
44.080        20
44.090        13
44.100        13
44.110        33
44.120        27
44.130         7
44.140        20
44.150         7
44.160        13
44.170        13
44.180        13
44.190        33
44.200        27
44.210        13
44.220        20
44.230        27
44.240        13
44.250        13
44.260        27
44.270        33
44.280        27
44.290        13
44.300        13
44.310         7
44.320        27
44.330        27
44.340        13
44.350        13
44.360        33
44.370        13
44.380        33
44.390         7
44.400        13
44.410        27
44.420        20
44.430        13
44.440         7
44.450         7
44.460         7
44.470         0
44.480        40
44.490        20
44.500        20
44.510        20
44.520        27
44.530        20
44.540        33
44.550        27
44.560        20
44.570        27
44.580        13
44.590        13
44.600        20
44.610        20
44.620        20
44.630         7
44.640        20
44.650        33
44.660         7
44.670        27
44.680        47
44.690        27
44.700        20
44.710        47
44.720        13
44.730        20
44.740        13
44.750         7
44.760        27
44.770        13
44.780        47
44.790        33
44.800        13
44.810        33
44.820        27
44.830        33
44.840        13
44.850        33
44.860        27
44.870        13
44.880         7
44.890        13
44.900        20
44.910        20
44.920        33
44.930        40
44.940        47
44.950        47
44.960        13
44.970         7
44.980        20
44.990        20
45.000        33
45.010        13
45.020        40
45.030        33
45.040        27
45.050        27
45.060        47
45.070        53
45.080        20
45.090        27
45.100        20
45.110        47
45.120        33
45.130        53
45.140        27
45.150        40
45.160        20
45.170        13
45.180        20
45.190        33
45.200        20
45.210        33
45.220        33
45.230        27
45.240        13
45.250        20
45.260         7
45.270        33
45.280        33
45.290        33
45.300        27
45.310        27
45.320        27
45.330        27
45.340        13
45.350        27
45.360        13
45.370        27
45.380        20
45.390        27
45.400        20
45.410         7
45.420        27
45.430        27
45.440        33
45.450        40
45.460        47
45.470        33
45.480        20
45.490        13
45.500        33
45.510        27
45.520        33
45.530        53
45.540        13
45.550        47
45.560        33
45.570        53
45.580        27
45.590        27
45.600        33
45.610        47
45.620        27
45.630        47
45.640        13
45.650        33
45.660        53
45.670        87
45.680        80
45.690        67
45.700        33
45.710        67
45.720        73
45.730        33
45.740        20
45.750        40
45.760        40
45.770        53
45.780        53
45.790        40
45.800        40
45.810        20
45.820        47
45.830        60
45.840        60
45.850        53
45.860        73
45.870        60
45.880        80
45.890        73
45.900       107
45.910       100
45.920        60
45.930        87
45.940        60
45.950        87
45.960        87
45.970       140
45.980        60
45.990       100
46.000        73
46.010       100
46.020        80
46.030       127
46.040        60
46.050       153
46.060       113
46.070       140
46.080       167
46.090       147
46.100        93
46.110       180
46.120       187
46.130       220
46.140       207
46.150       213
46.160       127
46.170       267
46.180       220
46.190       273
46.200       160
46.210       240
46.220       233
46.230       227
46.240       247
46.250       273
46.260       373
46.270       273
46.280       387
46.290       380
46.300       407
46.310       440
46.320       373
46.330       347
46.340       367
46.350       380
46.360       407
46.370       340
46.380       273
46.390       380
46.400       300
46.410       287
46.420       273
46.430       347
46.440       327
46.450       273
46.460       367
46.470       307
46.480       340
46.490       293
46.500       213
46.510       373
46.520       213
46.530       280
46.540       313
46.550       240
46.560       220
46.570       213
46.580       240
46.590       200
46.600       247
46.610       153
46.620       160
46.630       233
46.640       120
46.650       193
46.660       160
46.670       153
46.680       167
46.690       127
46.700       107
46.710       120
46.720       100
46.730        93
46.740        87
46.750       107
46.760       127
46.770       127
46.780        73
46.790        53
46.800        93
46.810        87
46.820       107
46.830        47
46.840       107
46.850        67
46.860        93
46.870        60
46.880        60
46.890        40
46.900        20
46.910        47
46.920        67
46.930        47
46.940        67
46.950        47
46.960        20
46.970        40
46.980        47
46.990        40
47.000        53
47.010        53
47.020        53
47.030        20
47.040        27
47.050        40
47.060        20
47.070        60
47.080        13
47.090        40
47.100        33
47.110        13
47.120        53
47.130        20
47.140        40
47.150        27
47.160        40
47.170        47
47.180        40
47.190        27
47.200        47
47.210        20
47.220        27
47.230        13
47.240        20
47.250        47
47.260        27
47.270        33
47.280        13
47.290        33
47.300        40
47.310         0
47.320         7
47.330        13
47.340        27
47.350        27
47.360        40
47.370        13
47.380        33
47.390        27
47.400        40
47.410        27
47.420        33
47.430        27
47.440        13
47.450        47
47.460        27
47.470        13
47.480        20
47.490        13
47.500         7
47.510         7
47.520        40
47.530        27
47.540        13
47.550        20
47.560         0
47.570        27
47.580        27
47.590        13
47.600        33
47.610         7
47.620        27
47.630        13
47.640        13
47.650         7
47.660        33
47.670        13
47.680        27
47.690         7
47.700        13
47.710        20
47.720        13
47.730         7
47.740        13
47.750        13
47.760        13
47.770        40
47.780         0
47.790        27
47.800        27
47.810        13
47.820        20
47.830        13
47.840        33
47.850        40
47.860        40
47.870        20
47.880        20
47.890        13
47.900        33
47.910        40
47.920        47
47.930        13
47.940        20
47.950        27
47.960        13
47.970        20
47.980        20
47.990        40
48.000         7
48.010        27
48.020        20
48.030        27
48.040        20
48.050        13
48.060        20
48.070        33
48.080        20
48.090        33
48.100         7
48.110        40
48.120         7
48.130        13
48.140        27
48.150        13
48.160        20
48.170        27
48.180        27
48.190        27
48.200        20
48.210        13
48.220        27
48.230        27
48.240         0
48.250        20
48.260        20
48.270        33
48.280        13
48.290        13
48.300         7
48.310        33
48.320         7
48.330        13
48.340        13
48.350        20
48.360        13
48.370        13
48.380         7
48.390        20
48.400        13
48.410        13
48.420        13
48.430        27
48.440        20
48.450        33
48.460         7
48.470        20
48.480        20
48.490        27
48.500        27
48.510        13
48.520        20
48.530        20
48.540         7
48.550        13
48.560         7
48.570        33
48.580        13
48.590        13
48.600        33
48.610        47
48.620        13
48.630        20
48.640        20
48.650        40
48.660         7
48.670        27
48.680         7
48.690        27
48.700        20
48.710        20
48.720        40
48.730        33
48.740         0
48.750         7
48.760        20
48.770        27
48.780         0
48.790        20
48.800        33
48.810         7
48.820        27
48.830        27
48.840        13
48.850         7
48.860         7
48.870         7
48.880        20
48.890         7
48.900         7
48.910        13
48.920        13
48.930        13
48.940        20
48.950         7
48.960        13
48.970         7
48.980        20
48.990        13
49.000         7
49.010        13
49.020         7
49.030        13
49.040         7
49.050         7
49.060         0
49.070         0
49.080        20
49.090        33
49.100        13
49.110         0
49.120        27
49.130        33
49.140        13
49.150         0
49.160        13
49.170         7
49.180        27
49.190         7
49.200        33
49.210        20
49.220         7
49.230         0
49.240         7
49.250        13
49.260        13
49.270        20
49.280         7
49.290        13
49.300         7
49.310        13
49.320        33
49.330        13
49.340         7
49.350         7
49.360         7
49.370         7
49.380         0
49.390        33
49.400        27
49.410        20
49.420         0
49.430        20
49.440        13
49.450        20
49.460        33
49.470         7
49.480        27
49.490        40
49.500        13
49.510         7
49.520        20
49.530         7
49.540        20
49.550        27
49.560         7
49.570        27
49.580        40
49.590        20
49.600        20
49.610         0
49.620        13
49.630        13
49.640        40
49.650        13
49.660        20
49.670         0
49.680        33
49.690        20
49.700        27
49.710         7
49.720         7
49.730        33
49.740        13
49.750        13
49.760        20
49.770         7
49.780        20
49.790        13
49.800        33
49.810        13
49.820         7
49.830        20
49.840        20
49.850         7
49.860        13
49.870        40
49.880        20
49.890        20
49.900        13
49.910         7
49.920        27
49.930         7
49.940         0
49.950        13
49.960        27
49.970         7
49.980        20
49.990        40
50.000         0
50.010        13
50.020        27
50.030        33
50.040        27
50.050        20
50.060        13
50.070        33
50.080         7
50.090        20
50.100        13
50.110        27
50.120        33
50.130         0
50.140        13
50.150         7
50.160        27
50.170         7
50.180        20
50.190        27
50.200        13
50.210         7
50.220        20
50.230        33
50.240        13
50.250        33
50.260        20
50.270        13
50.280         7
50.290        20
50.300        20
50.310        13
50.320         7
50.330        27
50.340         7
50.350        27
50.360        53
50.370         7
50.380        20
50.390        13
50.400        13
50.410        13
50.420        33
50.430         7
50.440        20
50.450         7
50.460        13
50.470         7
50.480        27
50.490        20
50.500        40
50.510        13
50.520        27
50.530         7
50.540        33
50.550        27
50.560        20
50.570        27
50.580         7
50.590        20
50.600        13
50.610        33
50.620        13
50.630        27
50.640        33
50.650        13
50.660        20
50.670        33
50.680        27
50.690        20
50.700        33
50.710        20
50.720        20
50.730        13
50.740         7
50.750        13
50.760        20
50.770         7
50.780         0
50.790        13
50.800         7
50.810        20
50.820        20
50.830         7
50.840        13
50.850        20
50.860         7
50.870        13
50.880        27
50.890        20
50.900        13
50.910        13
50.920        20
50.930        27
50.940         0
50.950        27
50.960         7
50.970        33
50.980         0
50.990        20
51.000        20
51.010        13
51.020        13
51.030         0
51.040         7
51.050        13
51.060        20
51.070        13
51.080        13
51.090        27
51.100        20
51.110        13
51.120         7
51.130         7
51.140        13
51.150         7
51.160         7
51.170        27
51.180        13
51.190        13
51.200        33
51.210        13
51.220        20
51.230        20
51.240        13
51.250        20
51.260         7
51.270        33
51.280        20
51.290        20
51.300        20
51.310        33
51.320         7
51.330         7
51.340         7
51.350        27
51.360        27
51.370        13
51.380        40
51.390         7
51.400        27
51.410         7
51.420         0
51.430        13
51.440        27
51.450        27
51.460        27
51.470        20
51.480        33
51.490        33
51.500         0
51.510        40
51.520        20
51.530        27
51.540        33
51.550        20
51.560        20
51.570        33
51.580        27
51.590         7
51.600        20
51.610         0
51.620        20
51.630        13
51.640        13
51.650         7
51.660        13
51.670        20
51.680        33
51.690        47
51.700         7
51.710        40
51.720         0
51.730         7
51.740        13
51.750         7
51.760        20
51.770         0
51.780        13
51.790        20
51.800        20
51.810        47
51.820         7
51.830        20
51.840        13
51.850        13
51.860         7
51.870        33
51.880        13
51.890         0
51.900        13
51.910        33
51.920        20
51.930        33
51.940        33
51.950        20
51.960        20
51.970         0
51.980        20
51.990        13
52.000         0
52.010        27
52.020         0
52.030        20
52.040        20
52.050         7
52.060        13
52.070         7
52.080         7
52.090        13
52.100        13
52.110         7
52.120         0
52.130         7
52.140         7
52.150        20
52.160        13
52.170        27
52.180         0
52.190        20
52.200         7
52.210        33
52.220        27
52.230         7
52.240         7
52.250        20
52.260         0
52.270        27
52.280        20
52.290        20
52.300        33
52.310        20
52.320        33
52.330        20
52.340         7
52.350        20
52.360        33
52.370        33
52.380        20
52.390        27
52.400        40
52.410        47
52.420        27
52.430        27
52.440        33
52.450        40
52.460        47
52.470        73
52.480        93
52.490        60
52.500        80
52.510        87
52.520       120
52.530       147
52.540       207
52.550       200
52.560       227
52.570       287
52.580       247
52.590       300
52.600       367
52.610       273
52.620       333
52.630       267
52.640       120
52.650       133
52.660       133
52.670        87
52.680       107
52.690        67
52.700       147
52.710       153
52.720       127
52.730       120
52.740       147
52.750       127
52.760       113
52.770       107
52.780       120
52.790        87
52.800        33
52.810        33
52.820        27
52.830        27
52.840        33
52.850        20
52.860        40
52.870        27
52.880         7
52.890        13
52.900        13
52.910         7
52.920         0
52.930         0
52.940        20
52.950         7
52.960        13
52.970        13
52.980         7
52.990        13
53.000        20
53.010        13
53.020        13
53.030        13
53.040        40
53.050        20
53.060         7
53.070        13
53.080        20
53.090        40
53.100        13
53.110        27
53.120        27
53.130        13
53.140        27
53.150        13
53.160        20
53.170        33
53.180        13
53.190        33
53.200         7
53.210         0
53.220        20
53.230         7
53.240        13
53.250        27
53.260        13
53.270        20
53.280        27
53.290        13
53.300        27
53.310        20
53.320        13
53.330         7
53.340        13
53.350         7
53.360        20
53.370        13
53.380        20
53.390        33
53.400         7
53.410        27
53.420        13
53.430         7
53.440        20
53.450        13
53.460        20
53.470        20
53.480        13
53.490        20
53.500        13
53.510        13
53.520         7
53.530        13
53.540         0
53.550        20
53.560        20
53.570        20
53.580         0
53.590         7
53.600        20
53.610        27
53.620        13
53.630        13
53.640        13
53.650        27
53.660         7
53.670         0
53.680        27
53.690         7
53.700        13
53.710         7
53.720        13
53.730        20
53.740        20
53.750         7
53.760        13
53.770         7
53.780        20
53.790        20
53.800         7
53.810         7
53.820        13
53.830        13
53.840        13
53.850         0
53.860         7
53.870        13
53.880        27
53.890        13
53.900        13
53.910         0
53.920         7
53.930         7
53.940         7
53.950        20
53.960         7
53.970        13
53.980        27
53.990         0
54.000        13
54.010        20
54.020         7
54.030        13
54.040         7
54.050         0
54.060        13
54.070        20
54.080         7
54.090        27
54.100        20
54.110         0
54.120         0
54.130         7
54.140         7
54.150        13
54.160         0
54.170        13
54.180         7
54.190         7
54.200        13
54.210         7
54.220         7
54.230         7
54.240         7
54.250         0
54.260        13
54.270         7
54.280        27
54.290         0
54.300         7
54.310         7
54.320        13
54.330         7
54.340        20
54.350        27
54.360        13
54.370         7
54.380         7
54.390        20
54.400         7
54.410        40
54.420        13
54.430        20
54.440        33
54.450        20
54.460         7
54.470        13
54.480         0
54.490        13
54.500         7
54.510        13
54.520        27
54.530        13
54.540         7
54.550        13
54.560        27
54.570         7
54.580         7
54.590         7
54.600         7
54.610        13
54.620         7
54.630        27
54.640         7
54.650         7
54.660        13
54.670        20
54.680        20
54.690         7
54.700        20
54.710        13
54.720        13
54.730        13
54.740        20
54.750        13
54.760        20
54.770         0
54.780         0
54.790        13
54.800        13
54.810        20
54.820         7
54.830        13
54.840        27
54.850        33
54.860         7
54.870        20
54.880        40
54.890        27
54.900         7
54.910        13
54.920        27
54.930        13
54.940         7
54.950        13
54.960        27
54.970        13
54.980        20
54.990         7
55.000         7
55.010        13
55.020        13
55.030        20
55.040        13
55.050         7
55.060         7
55.070        13
55.080        27
55.090        20
55.100        20
55.110         7
55.120         0
55.130        27
55.140        27
55.150        13
55.160        13
55.170        27
55.180        13
55.190         7
55.200         0
55.210        13
55.220        13
55.230        13
55.240         7
55.250        20
55.260        33
55.270        27
55.280         0
55.290         7
55.300        27
55.310         7
55.320        33
55.330         7
55.340         0
55.350        27
55.360         7
55.370        27
55.380        20
55.390        20
55.400        13
55.410         7
55.420         7
55.430        13
55.440        27
55.450        13
55.460        27
55.470        20
55.480        13
55.490        20
55.500        40
55.510        27
55.520        13
55.530        13
55.540         7
55.550        13
55.560         7
55.570        13
55.580         7
55.590         7
55.600         7
55.610         7
55.620        20
55.630        60
55.640        27
55.650        27
55.660         7
55.670        13
55.680         0
55.690        13
55.700         0
55.710        20
55.720        33
55.730        20
55.740        20
55.750        13
55.760        20
55.770        20
55.780        40
55.790        27
55.800         7
55.810        27
55.820        13
55.830        13
55.840         7
55.850        20
55.860         0
55.870         7
55.880        20
55.890         7
55.900         0
55.910         7
55.920        33
55.930         0
55.940        33
55.950        13
55.960         0
55.970        13
55.980         7
55.990        13
56.000        27
56.010        20
56.020        20
56.030        33
56.040         7
56.050         7
56.060        13
56.070        13
56.080        20
56.090         0
56.100         0
56.110         7
56.120        33
56.130        13
56.140        27
56.150         7
56.160        13
56.170         0
56.180        27
56.190         7
56.200        40
56.210         7
56.220         7
56.230        13
56.240        13
56.250         7
56.260        40
56.270        20
56.280        13
56.290        13
56.300         0
56.310         0
56.320         0
56.330         0
56.340        27
56.350        20
56.360         7
56.370         0
56.380        13
56.390         7
56.400        27
56.410        33
56.420        40
56.430        13
56.440        13
56.450        27
56.460         7
56.470        20
56.480        13
56.490         7
56.500        13
56.510        40
56.520        13
56.530         7
56.540        27
56.550        20
56.560        13
56.570        40
56.580         0
56.590        13
56.600        13
56.610         7
56.620        13
56.630         7
56.640        20
56.650         7
56.660        20
56.670         7
56.680        27
56.690        13
56.700         7
56.710        33
56.720        27
56.730        20
56.740        13
56.750        20
56.760        13
56.770        27
56.780        27
56.790        13
56.800         7
56.810        13
56.820        20
56.830        13
56.840        13
56.850        13
56.860         7
56.870        20
56.880         7
56.890        13
56.900         7
56.910         7
56.920        13
56.930         7
56.940        27
56.950         7
56.960         7
56.970        20
56.980        13
56.990        20
57.000        13
57.010         0
57.020        13
57.030        20
57.040        27
57.050         0
57.060        33
57.070         0
57.080        13
57.090         0
57.100        27
57.110        13
57.120        20
57.130         7
57.140        20
57.150        13
57.160        20
57.170        20
57.180        13
57.190         7
57.200        20
57.210        53
57.220        13
57.230        40
57.240        33
57.250        27
57.260        60
57.270        27
57.280        53
57.290        33
57.300        53
57.310        27
57.320        73
57.330        20
57.340        40
57.350        40
57.360        53
57.370        53
57.380        87
57.390        93
57.400        87
57.410       127
57.420        93
57.430       200
57.440       213
57.450       320
57.460       287
57.470       320
57.480       407
57.490       526
57.500       493
57.510       646
57.520       780
57.530       720
57.540       813
57.550       840
57.560       733
57.570       573
57.580       480
57.590       400
57.600       280
57.610       260
57.620       213
57.630       240
57.640       253
57.650       273
57.660       293
57.670       387
57.680       453
57.690       387
57.700       440
57.710       367
57.720       313
57.730       287
57.740       173
57.750       167
57.760       100
57.770       100
57.780        73
57.790        67
57.800        33
57.810        60
57.820        40
57.830        53
57.840        47
57.850        33
57.860        33
57.870        40
57.880        20
57.890        33
57.900         7
57.910        33
57.920        33
57.930        40
57.940        13
57.950        27
57.960        33
57.970        13
57.980        47
57.990        13
58.000        40
58.010        27
58.020        13
58.030        27
58.040        20
58.050        20
58.060        40
58.070        13
58.080         7
58.090        27
58.100        13
58.110         0
58.120         0
58.130        20
58.140         0
58.150        13
58.160        13
58.170        20
58.180        13
58.190         7
58.200        20
58.210        13
58.220         0
58.230        20
58.240        20
58.250         0
58.260        20
58.270        20
58.280         0
58.290        20
58.300        40
58.310        20
58.320         7
58.330         0
58.340        13
58.350        27
58.360        13
58.370         7
58.380        27
58.390         7
58.400         7
58.410        20
58.420        13
58.430         7
58.440        20
58.450        20
58.460        13
58.470         7
58.480        13
58.490        13
58.500        27
58.510        33
58.520        27
58.530         7
58.540         0
58.550        13
58.560         7
58.570         7
58.580        20
58.590         7
58.600         0
58.610        27
58.620        20
58.630        13
58.640        47
58.650        13
58.660         7
58.670        13
58.680        27
58.690         7
58.700         7
58.710         7
58.720        13
58.730        20
58.740        20
58.750        13
58.760        20
58.770         0
58.780        33
58.790         7
58.800         7
58.810        20
58.820        27
58.830        13
58.840        13
58.850         7
58.860        27
58.870         0
58.880        13
58.890        20
58.900         7
58.910        13
58.920         7
58.930        13
58.940         7
58.950         7
58.960        27
58.970         0
58.980        20
58.990        20
59.000        13
59.010        40
59.020         7
59.030        40
59.040         7
59.050        13
59.060        20
59.070         0
59.080         7
59.090         7
59.100        27
59.110        40
59.120         7
59.130        27
59.140        13
59.150         0
59.160        20
59.170         7
59.180        33
59.190         7
59.200        13
59.210        13
59.220        33
59.230         7
59.240         7
59.250         7
59.260         7
59.270        27
59.280        20
59.290        13
59.300         7
59.310         7
59.320        27
59.330         0
59.340        20
59.350         0
59.360         7
59.370        20
59.380        13
59.390         7
59.400         0
59.410         7
59.420        20
59.430        27
59.440        13
59.450        20
59.460         7
59.470        13
59.480        20
59.490         0
59.500         0
59.510         7
59.520        20
59.530        40
59.540        20
59.550        13
59.560        13
59.570         7
59.580         7
59.590        20
59.600         0
59.610         7
59.620        13
59.630        27
59.640        40
59.650        27
59.660        27
59.670        13
59.680        13
59.690         7
59.700        13
59.710        33
59.720        40
59.730        27
59.740        13
59.750        33
59.760        27
59.770        33
59.780        47
59.790        20
59.800         0
59.810        33
59.820        13
59.830        20
59.840        20
59.850        20
59.860        33
59.870        27
59.880         0
59.890        20
59.900        27
59.910        20
59.920        20
59.930        20
59.940        20
59.950        33
59.960         7
59.970         7
59.980        47
59.990         7
60.000         7
