20.000        20
20.010        73
20.020        20
20.030        60
20.040        27
20.050        73
20.060        40
20.070        67
20.080        27
20.090        47
20.100        73
20.110        13
20.120        53
20.130        47
20.140        67
20.150        33
20.160        33
20.170        53
20.180        53
20.190        40
20.200        40
20.210        53
20.220        73
20.230        53
20.240        60
20.250        20
20.260        27
20.270        20
20.280        67
20.290        47
20.300        40
20.310        53
20.320        53
20.330        27
20.340        20
20.350        40
20.360        27
20.370        13
20.380        27
20.390        53
20.400        20
20.410        67
20.420        73
20.430        47
20.440        40
20.450         7
20.460        47
20.470        27
20.480        33
20.490        20
20.500        47
20.510        60
20.520        47
20.530        13
20.540        33
20.550        47
20.560         7
20.570        40
20.580        33
20.590        33
20.600        13
20.610        53
20.620        40
20.630        53
20.640        27
20.650        40
20.660        47
20.670        27
20.680        47
20.690        27
20.700        33
20.710        33
20.720        53
20.730        60
20.740        53
20.750        27
20.760        47
20.770        47
20.780        40
20.790        27
20.800        27
20.810        27
20.820        27
20.830        67
20.840        33
20.850        33
20.860        53
20.870        13
20.880        47
20.890        13
20.900        40
20.910        60
20.920        27
20.930        33
20.940        67
20.950        67
20.960        60
20.970        33
20.980        33
20.990        53
21.000        20
21.010        33
21.020        33
21.030        67
21.040        20
21.050        73
21.060        33
21.070        20
21.080        20
21.090        33
21.100        27
21.110        53
21.120        40
21.130        67
21.140        33
21.150        40
21.160        53
21.170        53
21.180        40
21.190        40
21.200        87
21.210        47
21.220        47
21.230        33
21.240        33
21.250        33
21.260        80
21.270        33
21.280        47
21.290        33
21.300        13
21.310        27
21.320        60
21.330        93
21.340        27
21.350        33
21.360         7
21.370        47
21.380        33
21.390        53
21.400        20
21.410        47
21.420        53
21.430        33
21.440        20
21.450        47
21.460        20
21.470        33
21.480        13
21.490        40
21.500        33
21.510        33
21.520        60
21.530        40
21.540        27
21.550        47
21.560        27
21.570        53
21.580        47
21.590        40
21.600        53
21.610        27
21.620        47
21.630        20
21.640        33
21.650        47
21.660        47
21.670        67
21.680        27
21.690        47
21.700        60
21.710        47
21.720        47
21.730        33
21.740        27
21.750        40
21.760        13
21.770        47
21.780        33
21.790         7
21.800        47
21.810        60
21.820        47
21.830         0
21.840        33
21.850        27
21.860        53
21.870        27
21.880        47
21.890        60
21.900        33
21.910        47
21.920        40
21.930        40
21.940        53
21.950        20
21.960        40
21.970        27
21.980        13
21.990        47
22.000        27
22.010        13
22.020        53
22.030        27
22.040        33
22.050        13
22.060        13
22.070        40
22.080        47
22.090        40
22.100        53
22.110        33
22.120        33
22.130        27
22.140        53
22.150        27
22.160        20
22.170        40
22.180        20
22.190        27
22.200        20
22.210        47
22.220        40
22.230        47
22.240        27
22.250        47
22.260        33
22.270        47
22.280        20
22.290        20
22.300        67
22.310        67
22.320        40
22.330        47
22.340        40
22.350        20
22.360        20
22.370        47
22.380        80
22.390        47
22.400        53
22.410        33
22.420        40
22.430        93
22.440        33
22.450        40
22.460        53
22.470        53
22.480        13
22.490        20
22.500        13
22.510        40
22.520        27
22.530        47
22.540        60
22.550        80
22.560        40
22.570        67
22.580         7
22.590        53
22.600        33
22.610        33
22.620        80
22.630        27
22.640        53
22.650        40
22.660        33
22.670        20
22.680        40
22.690        33
22.700        27
22.710        20
22.720        47
22.730        20
22.740        40
22.750        53
22.760        20
22.770        40
22.780        40
22.790        67
22.800        27
22.810         7
22.820        27
22.830        40
22.840        33
22.850        20
22.860        40
22.870        53
22.880        33
22.890        33
22.900        40
22.910        27
22.920        47
22.930        60
22.940        27
22.950        33
22.960        67
22.970        33
22.980        20
22.990        53
23.000        33
23.010        47
23.020        40
23.030        13
23.040        20
23.050        47
23.060        33
23.070        33
23.080        53
23.090        40
23.100        47
23.110        13
23.120        20
23.130        33
23.140        40
23.150        13
23.160        40
23.170        53
23.180        33
23.190        67
23.200        40
23.210        33
23.220        27
23.230        27
23.240        47
23.250        60
23.260        20
23.270        47
23.280        60
23.290        33
23.300        40
23.310        13
23.320        33
23.330        33
23.340        20
23.350        33
23.360        40
23.370        60
23.380         7
23.390        13
23.400        27
23.410        33
23.420        40
23.430        33
23.440        13
23.450        27
23.460        13
23.470        47
23.480        40
23.490        27
23.500        20
23.510        20
23.520        33
23.530        47
23.540        40
23.550        33
23.560        53
23.570        27
23.580        33
23.590        60
23.600        40
23.610        27
23.620        40
23.630        47
23.640        27
23.650        27
23.660        27
23.670        40
23.680         7
23.690        27
23.700        33
23.710         7
23.720        67
23.730         0
23.740        40
23.750        20
23.760         7
23.770        20
23.780        20
23.790        27
23.800        20
23.810        40
23.820        33
23.830        20
23.840        20
23.850        13
23.860        33
23.870        47
23.880        53
23.890        60
23.900        27
23.910         7
23.920        13
23.930        20
23.940        40
23.950        47
23.960        40
23.970        40
23.980        40
23.990        40
24.000        20
24.010        27
24.020        33
24.030        40
24.040        60
24.050        47
24.060        33
24.070        40
24.080        27
24.090        67
24.100        13
24.110        40
24.120        40
24.130        13
24.140        40
24.150         7
24.160        47
24.170        33
24.180        33
24.190        20
24.200        47
24.210        40
24.220        20
24.230        20
24.240        33
24.250        13
24.260        13
24.270        33
24.280        40
24.290        33
24.300        13
24.310        13
24.320        40
24.330        47
24.340        27
24.350        40
24.360        40
24.370        53
24.380        27
24.390        47
24.400        40
24.410        40
24.420        40
24.430        33
24.440        33
24.450        33
24.460        40
24.470        53
24.480        33
24.490        20
24.500        33
24.510        53
24.520        27
24.530        47
24.540        40
24.550        20
24.560        53
24.570        27
24.580        27
24.590        20
24.600        20
24.610        27
24.620        20
24.630        47
24.640        20
24.650        20
24.660        33
24.670        27
24.680        47
24.690        40
24.700        20
24.710        47
24.720        27
24.730        27
24.740        20
24.750        47
24.760        13
24.770        40
24.780        27
24.790        20
24.800        33
24.810        33
24.820        33
24.830        53
24.840        33
24.850        53
24.860        13
24.870        60
24.880        27
24.890        27
24.900        40
24.910        40
24.920        47
24.930        47
24.940        27
24.950        20
24.960        40
24.970        33
24.980        33
24.990        33
25.000        20
25.010        20
25.020        13
25.030        33
25.040        40
25.050        27
25.060        33
25.070        40
25.080        40
25.090        13
25.100        13
25.110        47
25.120        13
25.130        27
25.140        60
25.150        60
25.160        47
25.170        27
25.180        27
25.190        20
25.200         7
25.210        67
25.220        27
25.230        13
25.240        20
25.250        20
25.260        87
25.270        47
25.280        20
25.290        13
25.300        47
25.310        13
25.320        60
25.330        60
25.340        33
25.350        53
25.360        47
25.370        60
25.380        80
25.390        87
25.400        87
25.410        73
25.420       100
25.430       113
25.440       120
25.450        80
25.460        67
25.470       167
25.480       240
25.490       220
25.500       287
25.510       240
25.520       180
25.530       200
25.540       187
25.550       180
25.560       193
25.570       140
25.580       120
25.590        80
25.600        33
25.610        47
25.620        33
25.630        53
25.640        33
25.650        33
25.660        80
25.670        33
25.680        20
25.690        33
25.700        40
25.710        53
25.720        20
25.730        13
25.740        53
25.750        47
25.760        40
25.770        47
25.780        53
25.790        47
25.800        27
25.810        47
25.820        40
25.830        40
25.840        47
25.850        20
25.860        13
25.870        53
25.880        33
25.890        20
25.900        33
25.910         0
25.920        67
25.930        27
25.940        47
25.950        13
25.960        20
25.970        47
25.980        40
25.990        27
26.000        13
26.010        20
26.020        13
26.030        40
26.040        27
26.050        27
26.060        13
26.070        27
26.080        67
26.090        20
26.100        20
26.110         7
26.120        27
26.130        20
26.140        60
26.150        53
26.160        20
26.170         7
26.180        47
26.190        40
26.200        27
26.210        40
26.220        20
26.230        27
26.240         0
26.250        27
26.260        33
26.270        40
26.280        33
26.290        60
26.300        13
26.310        13
26.320         0
26.330        33
26.340        33
26.350        33
26.360        33
26.370         7
26.380        40
26.390        13
26.400        20
26.410        20
26.420        40
26.430        73
26.440        40
26.450        13
26.460        27
26.470        27
26.480        60
26.490        33
26.500        13
26.510        13
26.520        40
26.530         7
26.540        33
26.550        27
26.560        33
26.570        33
26.580        20
26.590        33
26.600        33
26.610        53
26.620         7
26.630        47
26.640        20
26.650        27
26.660        33
26.670        27
26.680        47
26.690        33
26.700        13
26.710        33
26.720        20
26.730        40
26.740        33
26.750        27
26.760        47
26.770        13
26.780        20
26.790        47
26.800        13
26.810        27
26.820        40
26.830        33
26.840        27
26.850        13
26.860        27
26.870        20
26.880        20
26.890        13
26.900        27
26.910        40
26.920        13
26.930        40
26.940         7
26.950        27
26.960        27
26.970        27
26.980        27
26.990        33
27.000        33
27.010        13
27.020        47
27.030        20
27.040        20
27.050        40
27.060        27
27.070        47
27.080        27
27.090        20
27.100        40
27.110        33
27.120        27
27.130        13
27.140        13
27.150        27
27.160        27
27.170        33
27.180        20
27.190         7
27.200        33
27.210        40
27.220        53
27.230        27
27.240        27
27.250         0
27.260        33
27.270        20
27.280        33
27.290        20
27.300        20
27.310        67
27.320        40
27.330        13
27.340        47
27.350        20
27.360        13
27.370         0
27.380        20
27.390        40
27.400        47
27.410        40
27.420        20
27.430        33
27.440        20
27.450        27
27.460        20
27.470        60
27.480        13
27.490        13
27.500        13
27.510        40
27.520        27
27.530        20
27.540        53
27.550        40
27.560        27
27.570        27
27.580        47
27.590        20
27.600        33
27.610        33
27.620        27
27.630        27
27.640        13
27.650        33
27.660        20
27.670        60
27.680        33
27.690        47
27.700        40
27.710        20
27.720        13
27.730        27
27.740        20
27.750        27
27.760        20
27.770        47
27.780        33
27.790         7
27.800        27
27.810        47
27.820        33
27.830        40
27.840        60
27.850        33
27.860        13
27.870        40
27.880        33
27.890        27
27.900        33
27.910        20
27.920        33
27.930        20
27.940        27
27.950        40
27.960        20
27.970        47
27.980        67
27.990        13
28.000        40
28.010        20
28.020        27
28.030        33
28.040         7
28.050        40
28.060        47
28.070        27
28.080         0
28.090        27
28.100        20
28.110         0
28.120        47
28.130        20
28.140        27
28.150        27
28.160        20
28.170        40
28.180        20
28.190        27
28.200        27
28.210        47
28.220        13
28.230        33
28.240        13
28.250        53
28.260         0
28.270        47
28.280        27
28.290        27
28.300        47
28.310        33
28.320        33
28.330        27
28.340        27
28.350        13
28.360        33
28.370         7
28.380        33
28.390        53
28.400        20
28.410        47
28.420        20
28.430        40
28.440         7
28.450        20
28.460        33
28.470        20
28.480        13
28.490         0
28.500        13
28.510        13
28.520        40
28.530        47
28.540        20
28.550        47
28.560        13
28.570        13
28.580        27
28.590        33
28.600        53
28.610        53
28.620        20
28.630        33
28.640        13
28.650         7
28.660        27
28.670        33
28.680        27
28.690        20
28.700        27
28.710        20
28.720        27
28.730        33
28.740        13
28.750        47
28.760        13
28.770        13
28.780        20
28.790        27
28.800        33
28.810        20
28.820        20
28.830        40
28.840        33
28.850        20
28.860         7
28.870        27
28.880        13
28.890        27
28.900        40
28.910         0
28.920        20
28.930         7
28.940        27
28.950        47
28.960        33
28.970        20
28.980        20
28.990        33
29.000        20
29.010        13
29.020        20
29.030        20
29.040         7
29.050        47
29.060        27
29.070        27
29.080        27
29.090        47
29.100        33
29.110        40
29.120        47
29.130        27
29.140        27
29.150        20
29.160        27
29.170        33
29.180        40
29.190        20
29.200        33
29.210        20
29.220        13
29.230        40
29.240        20
29.250        33
29.260        33
29.270        13
29.280         0
29.290        13
29.300        40
29.310        40
29.320        27
29.330        27
29.340        20
29.350        13
29.360        27
29.370        47
29.380        27
29.390        40
29.400        20
29.410         7
29.420        33
29.430        27
29.440        20
29.450         7
29.460        13
29.470        33
29.480        20
29.490        33
29.500         7
29.510        20
29.520        40
29.530        20
29.540        27
29.550        33
29.560        33
29.570        47
29.580        33
29.590        27
29.600        27
29.610        27
29.620        20
29.630        40
29.640        20
29.650        13
29.660        20
29.670         7
29.680        20
29.690        33
29.700        33
29.710        20
29.720        47
29.730        27
29.740         7
29.750         7
29.760        20
29.770        13
29.780        27
29.790        40
29.800        33
29.810        47
29.820        13
29.830        27
29.840        33
29.850        20
29.860        40
29.870        47
29.880        13
29.890        33
29.900        20
29.910        20
29.920        27
29.930        20
29.940        33
29.950        20
29.960        27
29.970        20
29.980        27
29.990        20
30.000        33
30.010        40
30.020        40
30.030        20
30.040        20
30.050        27
30.060         0
30.070        13
30.080        47
30.090        27
30.100        33
30.110        33
30.120        33
30.130        33
30.140        40
30.150        13
30.160        20
30.170        27
30.180        53
30.190        20
30.200        33
30.210        27
30.220        20
30.230         0
30.240        13
30.250        20
30.260        33
30.270        20
30.280        27
30.290        40
30.300        53
30.310        20
30.320        33
30.330         7
30.340        20
30.350        27
30.360        33
30.370        13
30.380         7
30.390        27
30.400        33
30.410        27
30.420        40
30.430        33
30.440        20
30.450        40
30.460         7
30.470        20
30.480        13
30.490        40
30.500        13
30.510        20
30.520        33
30.530        27
30.540        33
30.550        47
30.560        27
30.570        13
30.580         7
30.590        27
30.600        33
30.610        27
30.620        33
30.630        27
30.640        27
30.650        13
30.660        20
30.670        27
30.680        13
30.690        47
30.700        47
30.710        40
30.720        13
30.730        20
30.740         7
30.750        13
30.760        27
30.770        27
30.780        33
30.790        27
30.800        27
30.810        40
30.820        33
30.830        20
30.840        33
30.850        60
30.860        27
30.870        27
30.880         0
30.890        13
30.900        47
30.910        27
30.920        20
30.930        20
30.940        27
30.950        27
30.960        13
30.970        13
30.980        33
30.990         7
31.000        67
31.010        60
31.020        13
31.030        20
31.040        13
31.050        20
31.060        20
31.070        47
31.080        47
31.090         7
31.100         7
31.110        47
31.120        27
31.130        40
31.140        47
31.150        40
31.160        20
31.170        27
31.180        27
31.190        27
31.200        33
31.210        20
31.220         7
31.230        20
31.240        13
31.250        20
31.260        20
31.270        20
31.280        27
31.290        47
31.300        20
31.310        13
31.320        53
31.330         7
31.340        13
31.350        27
31.360        47
31.370        27
31.380        27
31.390        53
31.400        33
31.410        40
31.420        13
31.430        47
31.440        13
31.450        33
31.460        33
31.470        20
31.480        27
31.490        33
31.500        73
31.510        40
31.520        53
31.530        33
31.540        33
31.550        40
31.560        67
31.570        73
31.580        40
31.590        33
31.600        33
31.610        73
31.620        27
31.630        33
31.640        20
31.650        20
31.660        27
31.670        27
31.680        27
31.690        47
31.700        20
31.710        60
31.720        20
31.730        20
31.740        27
31.750        20
31.760        13
31.770        20
31.780        27
31.790        20
31.800        33
31.810        13
31.820        60
31.830        20
31.840         7
31.850        27
31.860        20
31.870        67
31.880        53
31.890        20
31.900        27
31.910        40
31.920        80
31.930        40
31.940        40
31.950        27
31.960        27
31.970        47
31.980        33
31.990        27
32.000        60
32.010        67
32.020        67
32.030        47
32.040        80
32.050        67
32.060        33
32.070        33
32.080       107
32.090        47
32.100       113
32.110       120
32.120        53
32.130       153
32.140       127
32.150       113
32.160       147
32.170       173
32.180       167
32.190       167
32.200       213
32.210       227
32.220       320
32.230       193
32.240       280
32.250       340
32.260       320
32.270       433
32.280       280
32.290       380
32.300       400
32.310       407
32.320       493
32.330       393
32.340       540
32.350       506
32.360       506
32.370       493
32.380       433
32.390       413
32.400       480
32.410       426
32.420       280
32.430       446
32.440       367
32.450       320
32.460       213
32.470       220
32.480       227
32.490       200
32.500       253
32.510       227
32.520       127
32.530       113
32.540        93
32.550       147
32.560       133
32.570        80
32.580        93
32.590        67
32.600        60
32.610       100
32.620        47
32.630        80
32.640        33
32.650        47
32.660        47
32.670        67
32.680        67
32.690        40
32.700        53
32.710        47
32.720        40
32.730        53
32.740        73
32.750        40
32.760        93
32.770        33
32.780        47
32.790        40
32.800        40
32.810        27
32.820        33
32.830        33
32.840        40
32.850         7
32.860        60
32.870        13
32.880        47
32.890        27
32.900        53
32.910        47
32.920        33
32.930        60
32.940        47
32.950        53
32.960        53
32.970        33
32.980        33
32.990        33
33.000        13
33.010        40
33.020        40
33.030        53
33.040        40
33.050         7
33.060        33
33.070        40
33.080        33
33.090        33
33.100        47
33.110         7
33.120        47
33.130        67
33.140        33
33.150        20
33.160        20
33.170        40
33.180        33
33.190        20
33.200        27
33.210        40
33.220        13
33.230        27
33.240        33
33.250        40
33.260         7
33.270        33
33.280        13
33.290        60
33.300        27
33.310        20
33.320        47
33.330        27
33.340        13
33.350        20
33.360        27
33.370         7
33.380        33
33.390        33
33.400        33
33.410        27
33.420        20
33.430        13
33.440        33
33.450        67
33.460        20
33.470        40
33.480        33
33.490        27
33.500        40
33.510        40
33.520        13
33.530        27
33.540        33
33.550        20
33.560        33
33.570        33
33.580        27
33.590        13
33.600        27
33.610        27
33.620        60
33.630        47
33.640        47
33.650        13
33.660        13
33.670        40
33.680        27
33.690        47
33.700        33
33.710        20
33.720        13
33.730        47
33.740        33
33.750        20
33.760        20
33.770        27
33.780        47
33.790        13
33.800        47
33.810        47
33.820        33
33.830        47
33.840        13
33.850        20
33.860        20
33.870         7
33.880        13
33.890        20
33.900        47
33.910        40
33.920        20
33.930        33
33.940        33
33.950        53
33.960        20
33.970        33
33.980        13
33.990        20
34.000        20
34.010        20
34.020        27
34.030        20
34.040        47
34.050        33
34.060         7
34.070        47
34.080        20
34.090         0
34.100        20
34.110        40
34.120        27
34.130         7
34.140        20
34.150        47
34.160         0
34.170        47
34.180        20
34.190        27
34.200         7
34.210        20
34.220        40
34.230        13
34.240        47
34.250        13
34.260        40
34.270        53
34.280        20
34.290        13
34.300        27
34.310        33
34.320         7
34.330        13
34.340        33
34.350        20
34.360        53
34.370        33
34.380        53
34.390        27
34.400        13
34.410        33
34.420        33
34.430        33
34.440        40
34.450        53
34.460        27
34.470        20
34.480        13
34.490         7
34.500        33
34.510        13
34.520        13
34.530        20
34.540        13
34.550        13
34.560        27
34.570        13
34.580        33
34.590        27
34.600        53
34.610        27
34.620        20
34.630        53
34.640        47
34.650        33
34.660        40
34.670        20
34.680         7
34.690         0
34.700        33
34.710        20
34.720        33
34.730        13
34.740        13
34.750        27
34.760        20
34.770        27
34.780        20
34.790        40
34.800        20
34.810        27
34.820        60
34.830        40
34.840        40
34.850        60
34.860        47
34.870        33
34.880        60
34.890        60
34.900        67
34.910        73
34.920        53
34.930        53
34.940        80
34.950        93
34.960        87
34.970        93
34.980       140
34.990       127
35.000       167
35.010       147
35.020       193
35.030       193
35.040       293
35.050       333
35.060       293
35.070       460
35.080       553
35.090       613
35.100       620
35.110       566
35.120       453
35.130       566
35.140       433
35.150       307
35.160       287
35.170       293
35.180       300
35.190       240
35.200       327
35.210       260
35.220       220
35.230       180
35.240       133
35.250        73
35.260        87
35.270       107
35.280        33
35.290        40
35.300        67
35.310        27
35.320        73
35.330        47
35.340        47
35.350        27
35.360        20
35.370        60
35.380        33
35.390        20
35.400        27
35.410        20
35.420        40
35.430        47
35.440        27
35.450        40
35.460        27
35.470        13
35.480        20
35.490        67
35.500        27
35.510        33
35.520        27
35.530         7
35.540        33
35.550        20
35.560        33
35.570        20
35.580        20
35.590        20
35.600        20
35.610        33
35.620        33
35.630        20
35.640        27
35.650        20
35.660        33
35.670        27
35.680        20
35.690        13
35.700        27
35.710        40
35.720        13
35.730        33
35.740        20
35.750         7
35.760        27
35.770        33
35.780        27
35.790        27
35.800        53
35.810        33
35.820        20
35.830        20
35.840        20
35.850        13
35.860        33
35.870        27
35.880        40
35.890        20
35.900        27
35.910        40
35.920        27
35.930         7
35.940         7
35.950        53
35.960         7
35.970        33
35.980        20
35.990        53
36.000        47
36.010        47
36.020        47
36.030        27
36.040        13
36.050        13
36.060        20
36.070        20
36.080        20
36.090        13
36.100        47
36.110        33
36.120        13
36.130        33
36.140        47
36.150        13
36.160        27
36.170        20
36.180        33
36.190        27
36.200        40
36.210        33
36.220        20
36.230        20
36.240         7
36.250         7
36.260        33
36.270        33
36.280        13
36.290         7
36.300        33
36.310        27
36.320        27
36.330        20
36.340        33
36.350        13
36.360        27
36.370        20
36.380        27
36.390        13
36.400         0
36.410        13
36.420         7
36.430        13
36.440        20
36.450        13
36.460        33
36.470        33
36.480         7
36.490         7
36.500        27
36.510        20
36.520        33
36.530        13
36.540        13
36.550        20
36.560        53
36.570        27
36.580         7
36.590        27
36.600        20
36.610        20
36.620        33
36.630        20
36.640        13
36.650        27
36.660         7
36.670        20
36.680        27
36.690        20
36.700        27
36.710        33
36.720        33
36.730        27
36.740        33
36.750        47
36.760        40
36.770         7
36.780        27
36.790        47
36.800        33
36.810        33
36.820        33
36.830         7
36.840        27
36.850        20
36.860        13
36.870        33
36.880        20
36.890        20
36.900        27
36.910        13
36.920        60
36.930        40
36.940        33
36.950        20
36.960        47
36.970        13
36.980        20
36.990        40
37.000        40
37.010        20
37.020        20
37.030        47
37.040        40
37.050        33
37.060        27
37.070        20
37.080        20
37.090        40
37.100         7
37.110        20
37.120        27
37.130        27
37.140         7
37.150        13
37.160        13
37.170        13
37.180        13
37.190        27
37.200        33
37.210         0
37.220        27
37.230        13
37.240        20
37.250        20
37.260        33
37.270        13
37.280        13
37.290        40
37.300        27
37.310        33
37.320         0
37.330        33
37.340        27
37.350        13
37.360        27
37.370        27
37.380        13
37.390        47
37.400        20
37.410        20
37.420        53
37.430        13
37.440        27
37.450        13
37.460        40
37.470        13
37.480        20
37.490        67
37.500        27
37.510        33
37.520        60
37.530        33
37.540        27
37.550        27
37.560        40
37.570         7
37.580        13
37.590        20
37.600        47
37.610        60
37.620        40
37.630        47
37.640        60
37.650        53
37.660        67
37.670        87
37.680        93
37.690       113
37.700        93
37.710        67
37.720       147
37.730       200
37.740       213
37.750       153
37.760       180
37.770       233
37.780       140
37.790       147
37.800       120
37.810        87
37.820       113
37.830        27
37.840        93
37.850       107
37.860       127
37.870       127
37.880        87
37.890        80
37.900        47
37.910        47
37.920        60
37.930        20
37.940        20
37.950        40
37.960        53
37.970        20
37.980        20
37.990        47
38.000        20
38.010        20
38.020        13
38.030        40
38.040        20
38.050        27
38.060         0
38.070         0
38.080        13
38.090         7
38.100        33
38.110        20
38.120        27
38.130        27
38.140        13
38.150        20
38.160         7
38.170        27
38.180        47
38.190        20
38.200        27
38.210         0
38.220        33
38.230         7
38.240        20
38.250        20
38.260        27
38.270        33
38.280        20
38.290        13
38.300        20
38.310        13
38.320        27
38.330        27
38.340         7
38.350        13
38.360        27
38.370        27
38.380        27
38.390        27
38.400        13
38.410        40
38.420         7
38.430        20
38.440        20
38.450        13
38.460        80
38.470        20
38.480        33
38.490        27
38.500        20
38.510        13
38.520        13
38.530         7
38.540        20
38.550        13
38.560        27
38.570        27
38.580         0
38.590        53
38.600        13
38.610        20
38.620        27
38.630        27
38.640        40
38.650        33
38.660        27
38.670         7
38.680         7
38.690        20
38.700        20
38.710        27
38.720        40
38.730         7
38.740        20
38.750        13
38.760        33
38.770        27
38.780        20
38.790        27
38.800        27
38.810         7
38.820        20
38.830        13
38.840        13
38.850        20
38.860        13
38.870        20
38.880        27
38.890         7
38.900        33
38.910        20
38.920         7
38.930         7
38.940        33
38.950        13
38.960        20
38.970        20
38.980        20
38.990        20
39.000        27
39.010        20
39.020        13
39.030        13
39.040        40
39.050        20
39.060        13
39.070        27
39.080        20
39.090        13
39.100        40
39.110        27
39.120        27
39.130        33
39.140         7
39.150        20
39.160        40
39.170        20
39.180        40
39.190        27
39.200        20
39.210        13
39.220        27
39.230        13
39.240        33
39.250        13
39.260         7
39.270        20
39.280         7
39.290        27
39.300        13
39.310        20
39.320        33
39.330        40
39.340        27
39.350        13
39.360         7
39.370        27
39.380        33
39.390        20
39.400         0
39.410         7
39.420         7
39.430        13
39.440         7
39.450        27
39.460        27
39.470        53
39.480        13
39.490         7
39.500        40
39.510         0
39.520        27
39.530        20
39.540        13
39.550        20
39.560        20
39.570        20
39.580         0
39.590        20
39.600        20
39.610        27
39.620        27
39.630        27
39.640        13
39.650        40
39.660        33
39.670        20
39.680        27
39.690        27
39.700        20
39.710        20
39.720        20
39.730        13
39.740        33
39.750         0
39.760        13
39.770        53
39.780        33
39.790        53
39.800        33
39.810        20
39.820        33
39.830        40
39.840        20
39.850        20
39.860        33
39.870        80
39.880        67
39.890        60
39.900        73
39.910        53
39.920        80
39.930        93
39.940        93
39.950        87
39.960        67
39.970       100
39.980        67
39.990        53
40.000        60
40.010        73
40.020        53
40.030        60
40.040        93
40.050        40
40.060        33
40.070        53
40.080        33
40.090        53
40.100        33
40.110        47
40.120        33
40.130        40
40.140        27
40.150        47
40.160        20
40.170        27
40.180        20
40.190        33
40.200        27
40.210        33
40.220        33
40.230        13
40.240        33
40.250         0
40.260        27
40.270        13
40.280        27
40.290         7
40.300        27
40.310        20
40.320        13
40.330        13
40.340        40
40.350        20
40.360        27
40.370        27
40.380        33
40.390        13
40.400        13
40.410        13
40.420        13
40.430        27
40.440         7
40.450        47
40.460        20
40.470        27
40.480        27
40.490        20
40.500        27
40.510        33
40.520        20
40.530        13
40.540        27
40.550         0
40.560        20
40.570        33
40.580        20
40.590        13
40.600        13
40.610        20
40.620         0
40.630         7
40.640        40
40.650         7
40.660        27
40.670        13
40.680        13
40.690        27
40.700        53
40.710        27
40.720        20
40.730        20
40.740        13
40.750         7
40.760         7
40.770        33
40.780        13
40.790         0
40.800        27
40.810        13
40.820        13
40.830        13
40.840        13
40.850        20
40.860        33
40.870        13
40.880        13
40.890        33
40.900        13
40.910         7
40.920         0
40.930        27
40.940        13
40.950         7
40.960        13
40.970         7
40.980        33
40.990        13
41.000        13
41.010        27
41.020        33
41.030         0
41.040        13
41.050        13
41.060        20
41.070        20
41.080        20
41.090        20
41.100        20
41.110        47
41.120        13
41.130        13
41.140         7
41.150        20
41.160        13
41.170        27
41.180        20
41.190        13
41.200         7
41.210        33
41.220         7
41.230        20
41.240        13
41.250        27
41.260         0
41.270        13
41.280        20
41.290        13
41.300         0
41.310         0
41.320        20
41.330        20
41.340        13
41.350        13
41.360         7
41.370         0
41.380        13
41.390        13
41.400        20
41.410        13
41.420        33
41.430        13
41.440        27
41.450        33
41.460         0
41.470        67
41.480        20
41.490        60
41.500        20
41.510        40
41.520        13
41.530        27
41.540        33
41.550        47
41.560         7
41.570        47
41.580        33
41.590        73
41.600        47
41.610       120
41.620       107
41.630       113
41.640       140
41.650       100
41.660       100
41.670        93
41.680        80
41.690        60
41.700        93
41.710       100
41.720        67
41.730        93
41.740        87
41.750        27
41.760        80
41.770        47
41.780        67
41.790        40
41.800        47
41.810        47
41.820        60
41.830        20
41.840        20
41.850        13
41.860        20
41.870        33
41.880        27
41.890        20
41.900        47
41.910        13
41.920        40
41.930        20
41.940         7
41.950         7
41.960        47
41.970         7
41.980         7
41.990        13
42.000        27
42.010        33
42.020         0
42.030         7
42.040         7
42.050         7
42.060        27
42.070        13
42.080        13
42.090        40
42.100        13
42.110        13
42.120        13
42.130        13
42.140        20
42.150        27
42.160        13
42.170        13
42.180         7
42.190        13
42.200        13
42.210        20
42.220        27
42.230         7
42.240        13
42.250        13
42.260         7
42.270         7
42.280        13
42.290        13
42.300        33
42.310        33
42.320         7
42.330        13
42.340        13
42.350        27
42.360        27
42.370         0
42.380        20
42.390        27
42.400        20
42.410        13
42.420        20
42.430        27
42.440         7
42.450        20
42.460         7
42.470        13
42.480         0
42.490        13
42.500         7
42.510        20
42.520         0
42.530         7
42.540        20
42.550         7
42.560        33
42.570        27
42.580         7
42.590        13
42.600        27
42.610         7
42.620        20
42.630        27
42.640        13
42.650        13
42.660         7
42.670        20
42.680        13
42.690        33
42.700        13
42.710         0
42.720        20
42.730        20
42.740        13
42.750         0
42.760        20
42.770        20
42.780        20
42.790        27
42.800        20
42.810        27
42.820        27
42.830         7
42.840        20
42.850        13
42.860         0
42.870        20
42.880        33
42.890        13
42.900        20
42.910        40
42.920        27
42.930        33
42.940        33
42.950        13
42.960        27
42.970        20
42.980        27
42.990         0
43.000        27
43.010         7
43.020        33
43.030        27
43.040         7
43.050        20
43.060         0
43.070        13
43.080        53
43.090        13
43.100        13
43.110        20
43.120        47
43.130        33
43.140        33
43.150        20
43.160        40
43.170        40
43.180        47
43.190        40
43.200        47
43.210       120
43.220        67
43.230       107
43.240       153
43.250       120
43.260       120
43.270       127
43.280       200
43.290       160
43.300       247
43.310       307
43.320       400
43.330       327
43.340       400
43.350       513
43.360       440
43.370       460
43.380       387
43.390       320
43.400       293
43.410       313
43.420       253
43.430       233
43.440       187
43.450       260
43.460       193
43.470       227
43.480       220
43.490       200
43.500       187
43.510        73
43.520       100
43.530        73
43.540        80
43.550        60
43.560        40
43.570        33
43.580        40
43.590         7
43.600         7
43.610        27
43.620        33
43.630         7
43.640        33
43.650        20
43.660        13
43.670        13
43.680         7
43.690        20
43.700        27
43.710        27
43.720        20
43.730        13
43.740         0
43.750        20
43.760        20
43.770        13
43.780        13
43.790        13
43.800         7
43.810        13
43.820         7
43.830        33
43.840        13
43.850        20
43.860         7
43.870         7
43.880        20
43.890        13
43.900        20
43.910         0
43.920        33
43.930        47
43.940        13
43.950        40
43.960        13
43.970        20
43.980        13
43.990        13
44.000        13
44.010        20
44.020        33
44.030        20
44.040        20
44.050         0
44.060        33
44.070         0
44.080         7
44.090         0
44.100        27
44.110         0
44.120         7
44.130         7
44.140        27
44.150         7
44.160        47
44.170        13
44.180         7
44.190        27
44.200        27
44.210         7
44.220        20
44.230        27
44.240        20
44.250         7
44.260        27
44.270        13
44.280        27
44.290        27
44.300        20
44.310        20
44.320        27
44.330        13
44.340        27
44.350        33
44.360        13
44.370        40
44.380        33
44.390        20
44.400        13
44.410         7
44.420        27
44.430        27
44.440        13
44.450        20
44.460        47
44.470        20
44.480        27
44.490        20
44.500        13
44.510         0
44.520        20
44.530        33
44.540         7
44.550        33
44.560         0
44.570        20
44.580         7
44.590         7
44.600        27
44.610        40
44.620        13
44.630        27
44.640        20
44.650        27
44.660        20
44.670        27
44.680        27
44.690        20
44.700        20
44.710        20
44.720        13
44.730        33
44.740        13
44.750        33
44.760         0
44.770         0
44.780        27
44.790        13
44.800         7
44.810        27
44.820         7
44.830        13
44.840        13
44.850         0
44.860        47
44.870         7
44.880        13
44.890         7
44.900        40
44.910         7
44.920        13
44.930        13
44.940        13
44.950        20
44.960        13
44.970         7
44.980         0
44.990        27
45.000        20
45.010        13
45.020        20
45.030        13
45.040        13
45.050        13
45.060        27
45.070        40
45.080         7
45.090        13
45.100        20
45.110        20
45.120        33
45.130        20
45.140        20
45.150         7
45.160        33
45.170        40
45.180        27
45.190        13
45.200        33
45.210        20
45.220        33
45.230         7
45.240        13
45.250        27
45.260         7
45.270        13
45.280         7
45.290         0
45.300        20
45.310         7
45.320        53
45.330         7
45.340        13
45.350        20
45.360        20
45.370        40
45.380        13
45.390         7
45.400        20
45.410        20
45.420        13
45.430        27
45.440         7
45.450        33
45.460         7
45.470        20
45.480         7
45.490        20
45.500         7
45.510         7
45.520         0
45.530         0
45.540        27
45.550         7
45.560        20
45.570        33
45.580        20
45.590        13
45.600        13
45.610         7
45.620        27
45.630        27
45.640        20
45.650        20
45.660        47
45.670         7
45.680        13
45.690         7
45.700        20
45.710        20
45.720        20
45.730         7
45.740         7
45.750         7
45.760        20
45.770        20
45.780        27
45.790        13
45.800         7
45.810        13
45.820         7
45.830        20
45.840        20
45.850        20
45.860        13
45.870         7
45.880        27
45.890         0
45.900        27
45.910        13
45.920        20
45.930        20
45.940        33
45.950        13
45.960         7
45.970         7
45.980        27
45.990         7
46.000        13
46.010         7
46.020         7
46.030         7
46.040        27
46.050         7
46.060         7
46.070        20
46.080        27
46.090        13
46.100        47
46.110        40
46.120         7
46.130         7
46.140         0
46.150         0
46.160        13
46.170        33
46.180        13
46.190         0
46.200        20
46.210        20
46.220        27
46.230         7
46.240        13
46.250         0
46.260        13
46.270        13
46.280        13
46.290        33
46.300        27
46.310         0
46.320        20
46.330        20
46.340         7
46.350        40
46.360         7
46.370        13
46.380        20
46.390        27
46.400        40
46.410        13
46.420        33
46.430         7
46.440         0
46.450        27
46.460        27
46.470         7
46.480        13
46.490        20
46.500        13
46.510        27
46.520        27
46.530        27
46.540        20
46.550        13
46.560        20
46.570        27
46.580         0
46.590         7
46.600        20
46.610        20
46.620        13
46.630        20
46.640         7
46.650        20
46.660        13
46.670        20
46.680        47
46.690        33
46.700        20
46.710        20
46.720        27
46.730         0
46.740        13
46.750         7
46.760        27
46.770        13
46.780        13
46.790        40
46.800        20
46.810         7
46.820        13
46.830        13
46.840         7
46.850        13
46.860        13
46.870        13
46.880        33
46.890        13
46.900         7
46.910         7
46.920        20
46.930        13
46.940         7
46.950        20
46.960        13
46.970        13
46.980         0
46.990        13
47.000        13
47.010         7
47.020        20
47.030        20
47.040        33
47.050        13
47.060        13
47.070        20
47.080         0
47.090        13
47.100        20
47.110        20
47.120        13
47.130        20
47.140        20
47.150        33
47.160        47
47.170        13
47.180        40
47.190        27
47.200         0
47.210        13
47.220        33
47.230        20
47.240        27
47.250        13
47.260        20
47.270        27
47.280         7
47.290        13
47.300        20
47.310        40
47.320        20
47.330        13
47.340        13
47.350        13
47.360         7
47.370         7
47.380        20
47.390        27
47.400        13
47.410        13
47.420        13
47.430        33
47.440         7
47.450         0
47.460        13
47.470        27
47.480        27
47.490         7
47.500        20
47.510         0
47.520        20
47.530        13
47.540        13
47.550        13
47.560        13
47.570        33
47.580         0
47.590        27
47.600        13
47.610        20
47.620         0
47.630        20
47.640         7
47.650         7
47.660        20
47.670        33
47.680        13
47.690        27
47.700         7
47.710        13
47.720         7
47.730         7
47.740        20
47.750         7
47.760         7
47.770        13
47.780        40
47.790        20
47.800        40
47.810        13
47.820        20
47.830         0
47.840         7
47.850         7
47.860         7
47.870        33
47.880        13
47.890        20
47.900        33
47.910         7
47.920         7
47.930        13
47.940         7
47.950         0
47.960        13
47.970        13
47.980         7
47.990         7
48.000        13
48.010        13
48.020        27
48.030        20
48.040        13
48.050        13
48.060        33
48.070         7
48.080        20
48.090        13
48.100        20
48.110        20
48.120         7
48.130         7
48.140         0
48.150        13
48.160        20
48.170         7
48.180        13
48.190        20
48.200         7
48.210        20
48.220        20
48.230        13
48.240        13
48.250         0
48.260         7
48.270         0
48.280         7
48.290         7
48.300        13
48.310        20
48.320        13
48.330        13
48.340        13
48.350        13
48.360         7
48.370         0
48.380         0
48.390        13
48.400        27
48.410        20
48.420        13
48.430        27
48.440        20
48.450        20
48.460         7
48.470         7
48.480        20
48.490         0
48.500         0
48.510        27
48.520        13
48.530        33
48.540         0
48.550        13
48.560        27
48.570         7
48.580        13
48.590        27
48.600        27
48.610        13
48.620         7
48.630        13
48.640        13
48.650        20
48.660         7
48.670        13
48.680        20
48.690        20
48.700         7
48.710        13
48.720        13
48.730        27
48.740        27
48.750         7
48.760         0
48.770        13
48.780         0
48.790         7
48.800        40
48.810         0
48.820        27
48.830        13
48.840         0
48.850         7
48.860        13
48.870        13
48.880        40
48.890         0
48.900        20
48.910         7
48.920         0
48.930        20
48.940         7
48.950         7
48.960         0
48.970        47
48.980        27
48.990        33
49.000         7
49.010        27
49.020        13
49.030         7
49.040        13
49.050         0
49.060         7
49.070        13
49.080        20
49.090        20
49.100         0
49.110        13
49.120        20
49.130        13
49.140         0
49.150        27
49.160        27
49.170        20
49.180         0
49.190         0
49.200         0
49.210        13
49.220        13
49.230        13
49.240        27
49.250        20
49.260         0
49.270         7
49.280         7
49.290        13
49.300        20
49.310        20
49.320        13
49.330        20
49.340        20
49.350         7
49.360         0
49.370        33
49.380        13
49.390         7
49.400        20
49.410        33
49.420         7
49.430         7
49.440        47
49.450         0
49.460         0
49.470        20
49.480        27
49.490         7
49.500         7
49.510        13
49.520        27
49.530        13
49.540        27
49.550         7
49.560         7
49.570         7
49.580        20
49.590        27
49.600        13
49.610         0
49.620        13
49.630        20
49.640        13
49.650        20
49.660        20
49.670         7
49.680        20
49.690        13
49.700        13
49.710         7
49.720         7
49.730        40
49.740         0
49.750         0
49.760        13
49.770         0
49.780        13
49.790        20
49.800        20
49.810        20
49.820        20
49.830        27
49.840        13
49.850        13
49.860         7
49.870         7
49.880         0
49.890         7
49.900         0
49.910        27
49.920        13
49.930         7
49.940         0
49.950        20
49.960        20
49.970        13
49.980        13
49.990         7
50.000        27
50.010        33
50.020         0
50.030        20
50.040         0
50.050        20
50.060        13
50.070         7
50.080         0
50.090         7
50.100         7
50.110         7
50.120        13
50.130        20
50.140        13
50.150        13
50.160         7
50.170         7
50.180         7
50.190        20
50.200         0
50.210        20
50.220        13
50.230        13
50.240        20
50.250         0
50.260         0
50.270        13
50.280        20
50.290        27
50.300         0
50.310         0
50.320         7
50.330        33
50.340         0
50.350         7
50.360        20
50.370        13
50.380        27
50.390        20
50.400        20
50.410         7
50.420         7
50.430        13
50.440         7
50.450        13
50.460         0
50.470        13
50.480        33
50.490         7
50.500        27
50.510        13
50.520        13
50.530        47
50.540        27
50.550         7
50.560        20
50.570        13
50.580         0
50.590        33
50.600        33
50.610        13
50.620         0
50.630         7
50.640         0
50.650        20
50.660        13
50.670        20
50.680        27
50.690         7
50.700        33
50.710        13
50.720         7
50.730         7
50.740         7
50.750        13
50.760         0
50.770         7
50.780         7
50.790         7
50.800         7
50.810        13
50.820        40
50.830         0
50.840        13
50.850        20
50.860         0
50.870         7
50.880         0
50.890        20
50.900        20
50.910        13
50.920         7
50.930         7
50.940         7
50.950         7
50.960         0
50.970        20
50.980        13
50.990        27
51.000        13
51.010        13
51.020        13
51.030         0
51.040         7
51.050        27
51.060        27
51.070        33
51.080         0
51.090         7
51.100        33
51.110        13
51.120        20
51.130        20
51.140         7
51.150        13
51.160        13
51.170        13
51.180         0
51.190        13
51.200        13
51.210         0
51.220         0
51.230         7
51.240         7
51.250        20
51.260        13
51.270        13
51.280        13
51.290         7
51.300         0
51.310        20
51.320        13
51.330        20
51.340        13
51.350         7
51.360        27
51.370        27
51.380         7
51.390         7
51.400        33
51.410        13
51.420        20
51.430        27
51.440        13
51.450         7
51.460        13
51.470        13
51.480         7
51.490        13
51.500         7
51.510        13
51.520         7
51.530         0
51.540        20
51.550        13
51.560         7
51.570        13
51.580         7
51.590        13
51.600        20
51.610         7
51.620        27
51.630         0
51.640        13
51.650        13
51.660        13
51.670        20
51.680        20
51.690        20
51.700        13
51.710         7
51.720        20
51.730         7
51.740         7
51.750        27
51.760        13
51.770        13
51.780        20
51.790        13
51.800        20
51.810         7
51.820        20
51.830        33
51.840         7
51.850         0
51.860        27
51.870         7
51.880        20
51.890         7
51.900        20
51.910         7
51.920        13
51.930        13
51.940        20
51.950        27
51.960        27
51.970        13
51.980        20
51.990         7
52.000        33
52.010        20
52.020         7
52.030        13
52.040        20
52.050        40
52.060         7
52.070         7
52.080         7
52.090        20
52.100        20
52.110         0
52.120         0
52.130        20
52.140        20
52.150        27
52.160        20
52.170        20
52.180        20
52.190        13
52.200        13
52.210        27
52.220         7
52.230        20
52.240        20
52.250        13
52.260         7
52.270        13
52.280         0
52.290        20
52.300         7
52.310        13
52.320         7
52.330        27
52.340        20
52.350        20
52.360        13
52.370        27
52.380        33
52.390        20
52.400        33
52.410        40
52.420        40
52.430        13
52.440        13
52.450        60
52.460        53
52.470        40
52.480        47
52.490        93
52.500        20
52.510        93
52.520       120
52.530        87
52.540       160
52.550       187
52.560       207
52.570       173
52.580       200
52.590       167
52.600       160
52.610        80
52.620        60
52.630        67
52.640        60
52.650        80
52.660        67
52.670        73
52.680        87
52.690       133
52.700        93
52.710       133
52.720        53
52.730        40
52.740        73
52.750        67
52.760        27
52.770        27
52.780        20
52.790        53
52.800        40
52.810        33
52.820        13
52.830        33
52.840         7
52.850        27
52.860        13
52.870         7
52.880        20
52.890         7
52.900        13
52.910        13
52.920         7
52.930         0
52.940        20
52.950        20
52.960        13
52.970        20
52.980        13
52.990        33
53.000         7
53.010        13
53.020        13
53.030        27
53.040        13
53.050         7
53.060        33
53.070        13
53.080        20
53.090         0
53.100        13
53.110         7
53.120        13
53.130         0
53.140        47
53.150         7
53.160        27
53.170         0
53.180         7
53.190         7
53.200        13
53.210        27
53.220        33
53.230        27
53.240        20
53.250        13
53.260        13
53.270         0
53.280         7
53.290        20
53.300         7
53.310        13
53.320        20
53.330        13
53.340         7
53.350        20
53.360        27
53.370        27
53.380        13
53.390         0
53.400        47
53.410        20
53.420        13
53.430        20
53.440         7
53.450         0
53.460         7
53.470        27
53.480         7
53.490        13
53.500         7
53.510         7
53.520         0
53.530         7
53.540        20
53.550        13
53.560        27
53.570        27
53.580        20
53.590         0
53.600         7
53.610        13
53.620         0
53.630         7
53.640         0
53.650         7
53.660         7
53.670         7
53.680         7
53.690        20
53.700        27
53.710        13
53.720        13
53.730        13
53.740         0
53.750        33
53.760        20
53.770        13
53.780         7
53.790         7
53.800         7
53.810         0
53.820        13
53.830         7
53.840        20
53.850         7
53.860        20
53.870        20
53.880         7
53.890        13
53.900        20
53.910        13
53.920        20
53.930        20
53.940         0
53.950         7
53.960        40
53.970         0
53.980         7
53.990        13
54.000         7
54.010        13
54.020        13
54.030        33
54.040         7
54.050        20
54.060         7
54.070        13
54.080        13
54.090         7
54.100         0
54.110        13
54.120        13
54.130        13
54.140        13
54.150        13
54.160        20
54.170         7
54.180         7
54.190         7
54.200         0
54.210         7
54.220        33
54.230        20
54.240         0
54.250         7
54.260        20
54.270         7
54.280         7
54.290        13
54.300        20
54.310        13
54.320         0
54.330        13
54.340         0
54.350         7
54.360        20
54.370         7
54.380        20
54.390         0
54.400         7
54.410         7
54.420        33
54.430        20
54.440         0
54.450        33
54.460        13
54.470        27
54.480         7
54.490        13
54.500        13
54.510        20
54.520         7
54.530         7
54.540        27
54.550         0
54.560        33
54.570         7
54.580        20
54.590        27
54.600        20
54.610        13
54.620        13
54.630        20
54.640        27
54.650        20
54.660        13
54.670        13
54.680        13
54.690        27
54.700        13
54.710        33
54.720        13
54.730        13
54.740         7
54.750        27
54.760         7
54.770         7
54.780        13
54.790        13
54.800        13
54.810        27
54.820         7
54.830         7
54.840        20
54.850        27
54.860         7
54.870        33
54.880         0
54.890        20
54.900         7
54.910         0
54.920         7
54.930        33
54.940         0
54.950        27
54.960        20
54.970         7
54.980        20
54.990        47
55.000        20
55.010         7
55.020         0
55.030         0
55.040        13
55.050        13
55.060        20
55.070         7
55.080        20
55.090        27
55.100        13
55.110        13
55.120         7
55.130         7
55.140         7
55.150         0
55.160        13
55.170        13
55.180         7
55.190        20
55.200         0
55.210         0
55.220        20
55.230         7
55.240        20
55.250         7
55.260        13
55.270        27
55.280        13
55.290         0
55.300         7
55.310         7
55.320        13
55.330         7
55.340         0
55.350        13
55.360        13
55.370         7
55.380        33
55.390        13
55.400         0
55.410         7
55.420        33
55.430         0
55.440        27
55.450        13
55.460         7
55.470         0
55.480         7
55.490         0
55.500         0
55.510        20
55.520        27
55.530        27
55.540         7
55.550        27
55.560        13
55.570         7
55.580        13
55.590        27
55.600         7
55.610        27
55.620         7
55.630        13
55.640         7
55.650        33
55.660         0
55.670        13
55.680         7
55.690        27
55.700        13
55.710        20
55.720        27
55.730         7
55.740        40
55.750        13
55.760         7
55.770        13
55.780         0
55.790        20
55.800        13
55.810         7
55.820         7
55.830        20
55.840        20
55.850        20
55.860         7
55.870        47
55.880         7
55.890         7
55.900        13
55.910         7
55.920         0
55.930        40
55.940        13
55.950        27
55.960        20
55.970         7
55.980        13
55.990         7
56.000         7
56.010        20
56.020         7
56.030        13
56.040        13
56.050        20
56.060         7
56.070        33
56.080        47
56.090         0
56.100        13
56.110         7
56.120        27
56.130         7
56.140         7
56.150        20
56.160        33
56.170        20
56.180         7
56.190         0
56.200        27
56.210        13
56.220        13
56.230        13
56.240        20
56.250        20
56.260        20
56.270         7
56.280         7
56.290         7
56.300        13
56.310         7
56.320         0
56.330         0
56.340        13
56.350        27
56.360         7
56.370        40
56.380        20
56.390        13
56.400        13
56.410        13
56.420        20
56.430         7
56.440         0
56.450        13
56.460        13
56.470         0
56.480         7
56.490         7
56.500        20
56.510        13
56.520        20
56.530         7
56.540         7
56.550        13
56.560        13
56.570        13
56.580        13
56.590         7
56.600         7
56.610         7
56.620        20
56.630         7
56.640        20
56.650        13
56.660         0
56.670         7
56.680        13
56.690         7
56.700        33
56.710         7
56.720        13
56.730        40
56.740        20
56.750        13
56.760         0
56.770        20
56.780        27
56.790        47
56.800         7
56.810        13
56.820         0
56.830        20
56.840         7
56.850        27
56.860        53
56.870        13
56.880        27
56.890         7
56.900         0
56.910        33
56.920         7
56.930        20
56.940        20
56.950        20
56.960         7
56.970        27
56.980        13
56.990        27
57.000        20
57.010         0
57.020        27
57.030        33
57.040        13
57.050        13
57.060         0
57.070        13
57.080        13
57.090        20
57.100         7
57.110        33
57.120        20
57.130        13
57.140        33
57.150        27
57.160        33
57.170         7
57.180        20
57.190        13
57.200        20
57.210        20
57.220        53
57.230        13
57.240        20
57.250        13
57.260         7
57.270        40
57.280        20
57.290        20
57.300        40
57.310        33
57.320        47
57.330        47
57.340        40
57.350        20
57.360        53
57.370        47
57.380        73
57.390        73
57.400       100
57.410        87
57.420       107
57.430       113
57.440       160
57.450       167
57.460       200
57.470       233
57.480       253
57.490       373
57.500       433
57.510       473
57.520       593
57.530       520
57.540       486
57.550       540
57.560       446
57.570       453
57.580       287
57.590       233
57.600       213
57.610       207
57.620       200
57.630       180
57.640       127
57.650       247
57.660       247
57.670       273
57.680       347
57.690       300
57.700       267
57.710       180
57.720       260
57.730       213
57.740       187
57.750       100
57.760        80
57.770        93
57.780       120
57.790        73
57.800        60
57.810        60
57.820        67
57.830        47
57.840        47
57.850        27
57.860        47
57.870        27
57.880        13
57.890        27
57.900        27
57.910        47
57.920        27
57.930        13
57.940        40
57.950        27
57.960        60
57.970        13
57.980        40
57.990        27
58.000        27
58.010        33
58.020        33
58.030        40
58.040        27
58.050        27
58.060        47
58.070        20
58.080         7
58.090        20
58.100        33
58.110        20
58.120         7
58.130        27
58.140        13
58.150        27
58.160        27
58.170         7
58.180        20
58.190        13
58.200         7
58.210         7
58.220         7
58.230        27
58.240        33
58.250        40
58.260        13
58.270        13
58.280         7
58.290        20
58.300         0
58.310        13
58.320        13
58.330        13
58.340         0
58.350        13
58.360        13
58.370        27
58.380         7
58.390        27
58.400        13
58.410        13
58.420         0
58.430         7
58.440        13
58.450         7
58.460         7
58.470         7
58.480        33
58.490         7
58.500         7
58.510         7
58.520         7
58.530         7
58.540         7
58.550        13
58.560        13
58.570        13
58.580        20
58.590         0
58.600         0
58.610        33
58.620        13
58.630         7
58.640         0
58.650        20
58.660        20
58.670         7
58.680        20
58.690         0
58.700        20
58.710        20
58.720         7
58.730        13
58.740         7
58.750        13
58.760         7
58.770         7
58.780        13
58.790         7
58.800        13
58.810        20
58.820        20
58.830        13
58.840         7
58.850        27
58.860        13
58.870        27
58.880        27
58.890        33
58.900         7
58.910         0
58.920         7
58.930        20
58.940        40
58.950         7
58.960        13
58.970         0
58.980         7
58.990         7
59.000        20
59.010        33
59.020        13
59.030         0
59.040         7
59.050         7
59.060         7
59.070         0
59.080        20
59.090        13
59.100        20
59.110         7
59.120        13
59.130        13
59.140        13
59.150        33
59.160        33
59.170        27
59.180        20
59.190        27
59.200        13
59.210        27
59.220         7
59.230        13
59.240         7
59.250         7
59.260         0
59.270         7
59.280         0
59.290         7
59.300         0
59.310        27
59.320        60
59.330         0
59.340        13
59.350         7
59.360         7
59.370        13
59.380        13
59.390        33
59.400        13
59.410         7
59.420        20
59.430        13
59.440        13
59.450        33
59.460         7
59.470        13
59.480        13
59.490         7
59.500        13
59.510        13
59.520         0
59.530        27
59.540        13
59.550        13
59.560        20
59.570        13
59.580         7
59.590        13
59.600        20
59.610        13
59.620         7
59.630        13
59.640        20
59.650         7
59.660         0
59.670        27
59.680         7
59.690        13
59.700         7
59.710        20
59.720        13
59.730        33
59.740        27
59.750        13
59.760        13
59.770         7
59.780        13
59.790        13
59.800        13
59.810        13
59.820         7
59.830         7
59.840        20
59.850        20
59.860        20
59.870        13
59.880        33
59.890        20
59.900         7
59.910         7
59.920        13
59.930         7
59.940         0
59.950         0
59.960         7
59.970        27
59.980        47
59.990        13
60.000        13
