20.000        80
20.010        53
20.020        20
20.030        47
20.040        40
20.050        87
20.060        40
20.070        33
20.080        27
20.090        47
20.100        33
20.110        40
20.120        33
20.130        40
20.140        53
20.150        20
20.160        33
20.170        60
20.180        60
20.190        27
20.200        20
20.210         7
20.220        33
20.230        40
20.240        73
20.250        27
20.260        47
20.270        27
20.280        47
20.290        53
20.300        27
20.310        33
20.320        27
20.330        67
20.340        73
20.350        73
20.360        53
20.370        40
20.380        47
20.390         7
20.400        73
20.410        53
20.420        60
20.430        47
20.440        67
20.450        60
20.460        87
20.470        73
20.480        40
20.490        73
20.500        53
20.510        47
20.520        20
20.530        53
20.540        47
20.550        33
20.560        53
20.570        27
20.580        20
20.590        13
20.600        67
20.610        20
20.620        40
20.630        67
20.640       107
20.650        53
20.660        53
20.670        27
20.680        27
20.690        20
20.700        47
20.710        60
20.720        67
20.730        40
20.740        40
20.750        27
20.760        53
20.770        33
20.780        53
20.790        40
20.800        47
20.810        73
20.820        53
20.830        27
20.840        33
20.850        40
20.860        27
20.870        47
20.880        27
20.890        27
20.900        13
20.910        67
20.920         7
20.930        40
20.940        53
20.950        47
20.960        80
20.970        47
20.980        47
20.990        33
21.000        27
21.010        67
21.020        33
21.030        60
21.040        33
21.050        47
21.060        87
21.070        47
21.080         7
21.090        53
21.100        20
21.110        13
21.120        27
21.130        40
21.140        40
21.150        53
21.160        27
21.170        60
21.180        40
21.190        60
21.200        13
21.210        40
21.220        33
21.230        20
21.240        27
21.250        87
21.260        40
21.270        60
21.280        67
21.290        47
21.300        47
21.310        47
21.320        33
21.330        33
21.340        27
21.350        33
21.360        33
21.370        80
21.380        40
21.390        20
21.400        13
21.410        40
21.420        53
21.430        80
21.440        33
21.450        40
21.460        27
21.470        33
21.480        53
21.490        67
21.500        53
21.510        27
21.520        27
21.530        47
21.540        27
21.550        53
21.560        40
21.570        13
21.580        53
21.590        27
21.600        67
21.610        47
21.620        60
21.630        67
21.640        47
21.650        47
21.660        60
21.670        73
21.680        27
21.690        20
21.700        40
21.710        20
21.720        60
21.730        33
21.740        40
21.750        20
21.760        73
21.770        27
21.780        53
21.790        13
21.800        40
21.810        53
21.820         7
21.830        53
21.840        40
21.850        53
21.860        33
21.870        27
21.880        13
21.890        40
21.900        13
21.910        60
21.920        33
21.930        47
21.940        40
21.950        40
21.960        20
21.970        40
21.980        27
21.990        47
22.000        47
22.010        47
22.020        33
22.030        40
22.040        80
22.050        20
22.060        53
22.070        53
22.080        67
22.090        60
22.100        40
22.110        47
22.120        73
22.130        40
22.140        47
22.150        47
22.160        53
22.170        67
22.180        33
22.190        33
22.200        40
22.210        67
22.220        40
22.230        33
22.240        47
22.250        47
22.260        60
22.270        27
22.280        87
22.290        60
22.300        87
22.310        40
22.320        80
22.330        93
22.340        87
22.350        73
22.360        67
22.370        80
22.380       100
22.390        80
22.400        60
22.410        73
22.420       127
22.430       113
22.440       107
22.450       113
22.460        87
22.470       200
22.480       107
22.490       140
22.500        93
22.510       153
22.520       207
22.530       220
22.540       200
22.550       180
22.560       227
22.570       207
22.580       133
22.590       213
22.600       213
22.610       227
22.620       187
22.630       200
22.640       273
22.650       187
22.660       207
22.670       187
22.680       240
22.690       193
22.700       240
22.710       227
22.720       180
22.730       120
22.740       187
22.750       100
22.760       220
22.770       160
22.780        87
22.790       113
22.800       100
22.810       173
22.820       147
22.830        67
22.840       140
22.850       113
22.860        67
22.870       140
22.880       100
22.890        73
22.900        87
22.910        47
22.920        60
22.930       127
22.940       120
22.950        73
22.960        87
22.970        80
22.980        40
22.990        53
23.000        87
23.010        53
23.020       107
23.030        67
23.040        67
23.050        40
23.060        40
23.070        67
23.080        47
23.090        60
23.100        27
23.110        53
23.120        53
23.130        67
23.140        40
23.150        47
23.160        40
23.170        93
23.180        47
23.190        33
23.200        47
23.210        33
23.220        33
23.230        73
23.240        53
23.250        47
23.260        47
23.270        47
23.280        47
23.290        33
23.300        47
23.310        67
23.320        40
23.330        60
23.340        67
23.350        27
23.360        33
23.370        27
23.380        60
23.390        33
23.400        67
23.410        60
23.420        47
23.430        53
23.440        40
23.450        60
23.460        53
23.470        27
23.480        47
23.490        33
23.500        40
23.510        20
23.520        40
23.530        87
23.540        13
23.550        80
23.560        47
23.570        47
23.580        67
23.590        27
23.600        20
23.610        20
23.620        27
23.630        47
23.640        60
23.650        20
23.660        13
23.670        40
23.680        53
23.690        60
23.700        27
23.710        33
23.720        27
23.730        33
23.740        53
23.750        80
23.760        53
23.770        20
23.780        53
23.790        27
23.800        20
23.810        67
23.820        27
23.830        87
23.840        73
23.850        27
23.860        47
23.870        67
23.880        33
23.890        40
23.900        27
23.910         7
23.920        87
23.930        27
23.940        20
23.950        33
23.960        20
23.970        40
23.980        33
23.990        27
24.000        33
24.010        40
24.020        40
24.030        33
24.040        47
24.050        40
24.060        33
24.070        40
24.080        27
24.090        47
24.100        27
24.110        47
24.120        20
24.130         7
24.140        27
24.150        27
24.160        27
24.170        20
24.180        47
24.190        27
24.200        20
24.210        33
24.220        40
24.230        53
24.240        20
24.250        33
24.260        27
24.270        67
24.280        20
24.290        33
24.300        40
24.310        20
24.320        47
24.330        67
24.340        33
24.350        40
24.360        13
24.370        33
24.380        60
24.390        20
24.400        27
24.410        27
24.420        60
24.430        53
24.440        40
24.450        27
24.460         7
24.470        60
24.480        27
24.490        33
24.500        60
24.510        47
24.520        40
24.530        27
24.540        27
24.550        40
24.560        13
24.570        53
24.580        20
24.590        40
24.600        27
24.610        33
24.620        40
24.630        20
24.640        67
24.650        53
24.660        13
24.670        53
24.680        33
24.690        47
24.700        27
24.710        47
24.720        60
24.730        40
24.740        53
24.750        20
24.760        33
24.770        47
24.780        27
24.790        53
24.800        20
24.810        60
24.820        33
24.830        20
24.840        53
24.850        27
24.860        20
24.870        40
24.880        53
24.890         7
24.900        33
24.910        67
24.920        27
24.930        27
24.940        73
24.950        40
24.960        47
24.970        47
24.980        27
24.990        53
25.000        47
25.010        27
25.020        73
25.030        33
25.040        53
25.050        20
25.060        33
25.070        40
25.080        27
25.090        33
25.100        47
25.110         7
25.120        47
25.130        27
25.140        27
25.150        20
25.160        27
25.170        20
25.180        27
25.190        47
25.200        27
25.210        47
25.220        60
25.230        47
25.240        53
25.250        33
25.260        13
25.270        20
25.280        33
25.290        40
25.300        47
25.310        47
25.320        53
25.330        27
25.340        40
25.350        47
25.360        13
25.370        27
25.380        13
25.390        47
25.400        27
25.410        53
25.420        73
25.430        93
25.440        80
25.450        53
25.460        40
25.470        67
25.480       140
25.490       107
25.500        67
25.510        73
25.520        87
25.530        87
25.540       113
25.550       207
25.560       120
25.570       160
25.580       100
25.590       127
25.600       160
25.610       167
25.620       133
25.630       133
25.640       107
25.650        87
25.660       107
25.670        53
25.680        67
25.690        40
25.700        47
25.710        60
25.720        60
25.730        27
25.740        47
25.750        40
25.760        53
25.770        20
25.780        87
25.790        27
25.800        40
25.810        27
25.820        40
25.830        47
25.840        60
25.850        40
25.860        60
25.870        47
25.880        53
25.890        33
25.900        53
25.910        20
25.920        13
25.930        13
25.940        27
25.950        40
25.960        33
25.970         0
25.980        20
25.990        47
26.000        27
26.010        53
26.020        20
26.030        40
26.040        20
26.050        20
26.060        53
26.070        40
26.080        27
26.090        27
26.100        27
26.110        13
26.120         7
26.130        33
26.140        33
26.150        40
26.160        40
26.170        53
26.180        27
26.190        33
26.200         0
26.210        60
26.220        53
26.230        33
26.240        33
26.250        47
26.260        33
26.270         0
26.280         7
26.290        53
26.300        13
26.310        40
26.320        40
26.330        20
26.340        33
26.350        47
26.360        27
26.370        20
26.380        20
26.390        40
26.400        47
26.410        20
26.420        60
26.430        53
26.440        13
26.450         0
26.460        40
26.470        27
26.480        27
26.490        40
26.500        33
26.510        47
26.520        47
26.530        33
26.540        27
26.550         7
26.560        33
26.570        13
26.580         7
26.590        33
26.600        27
26.610        40
26.620        40
26.630        33
26.640        20
26.650        73
26.660        27
26.670        40
26.680        47
26.690        60
26.700        33
26.710        47
26.720        33
26.730        47
26.740        20
26.750        27
26.760        13
26.770        40
26.780        20
26.790        40
26.800        40
26.810        33
26.820        60
26.830        40
26.840        33
26.850        20
26.860        33
26.870        47
26.880        27
26.890        33
26.900        27
26.910        47
26.920        27
26.930        40
26.940         7
26.950        13
26.960        60
26.970        27
26.980         7
26.990        47
27.000        53
27.010        53
27.020        40
27.030        27
27.040        13
27.050         7
27.060        27
27.070        53
27.080        40
27.090        20
27.100        27
27.110        27
27.120        67
27.130        33
27.140        40
27.150        40
27.160        40
27.170        40
27.180        20
27.190        27
27.200        53
27.210        20
27.220        53
27.230         7
27.240        33
27.250        47
27.260        27
27.270        53
27.280        47
27.290        27
27.300        33
27.310        13
27.320        33
27.330        27
27.340        20
27.350        20
27.360        53
27.370        20
27.380        40
27.390        27
27.400        27
27.410        27
27.420        20
27.430        53
27.440        40
27.450        40
27.460        60
27.470        40
27.480        33
27.490        73
27.500        27
27.510        40
27.520        40
27.530        40
27.540        47
27.550        13
27.560        47
27.570        47
27.580        33
27.590        13
27.600        60
27.610        47
27.620        40
27.630        47
27.640         7
27.650         7
27.660        13
27.670        27
27.680        40
27.690        73
27.700        27
27.710        27
27.720        40
27.730        20
27.740        67
27.750        40
27.760        13
27.770        33
27.780        27
27.790        27
27.800        33
27.810        33
27.820        40
27.830        53
27.840        20
27.850        40
27.860        27
27.870        33
27.880        27
27.890         7
27.900        20
27.910        47
27.920        20
27.930        40
27.940        33
27.950        40
27.960        53
27.970        47
27.980        33
27.990        27
28.000        33
28.010        20
28.020        40
28.030        13
28.040        40
28.050        20
28.060        13
28.070        33
28.080        27
28.090        40
28.100        20
28.110        20
28.120        40
28.130        13
28.140        27
28.150        53
28.160        33
28.170        47
28.180        27
28.190        40
28.200        47
28.210        33
28.220        33
28.230        60
28.240        13
28.250        13
28.260        40
28.270        33
28.280        27
28.290        27
28.300        60
28.310        40
28.320        27
28.330        20
28.340        20
28.350        13
28.360        40
28.370        33
28.380        20
28.390        60
28.400        40
28.410        20
28.420        27
28.430        20
28.440        13
28.450        47
28.460        20
28.470        47
28.480        47
28.490        27
28.500        20
28.510        47
28.520        33
28.530        33
28.540        47
28.550        33
28.560         7
28.570        20
28.580        13
28.590         7
28.600        40
28.610        13
28.620        33
28.630        27
28.640        33
28.650        27
28.660        27
28.670        33
28.680        27
28.690        27
28.700        40
28.710        13
28.720        33
28.730        20
28.740        47
28.750        40
28.760        40
28.770        47
28.780        20
28.790         7
28.800        27
28.810        20
28.820        27
28.830        33
28.840        60
28.850        27
28.860        27
28.870        27
28.880        27
28.890        27
28.900        27
28.910        27
28.920        53
28.930        73
28.940        27
28.950        40
28.960        40
28.970        33
28.980        47
28.990        20
29.000        33
29.010        27
29.020        40
29.030        20
29.040        47
29.050        60
29.060        20
29.070         7
29.080        33
29.090        40
29.100        53
29.110        33
29.120        13
29.130        33
29.140        27
29.150        13
29.160        33
29.170         7
29.180        47
29.190        20
29.200        13
29.210        20
29.220        27
29.230        27
29.240        47
29.250        47
29.260        40
29.270        60
29.280        27
29.290        27
29.300        53
29.310        33
29.320        20
29.330        27
29.340        33
29.350        33
29.360        40
29.370        27
29.380        13
29.390        27
29.400        67
29.410        73
29.420        13
29.430        47
29.440         7
29.450        20
29.460        53
29.470        53
29.480        27
29.490        13
29.500        20
29.510        40
29.520        33
29.530        53
29.540        27
29.550        47
29.560        27
29.570        20
29.580         7
29.590        20
29.600        40
29.610        20
29.620        13
29.630        20
29.640        33
29.650        53
29.660        27
29.670        13
29.680        47
29.690        20
29.700        47
29.710        27
29.720        27
29.730        20
29.740        27
29.750        27
29.760        20
29.770        27
29.780        27
29.790        53
29.800        27
29.810        13
29.820        13
29.830        20
29.840        27
29.850        33
29.860        20
29.870        20
29.880        27
29.890        20
29.900        20
29.910        13
29.920        27
29.930        40
29.940        27
29.950        33
29.960         7
29.970        40
29.980        33
29.990        40
30.000        13
30.010        40
30.020        33
30.030        20
30.040        40
30.050        13
30.060        33
30.070         0
30.080         0
30.090        27
30.100        33
30.110        27
30.120       153
30.130        47
30.140        53
30.150        33
30.160        27
30.170         0
30.180        40
30.190        27
30.200        40
30.210         7
30.220        53
30.230        40
30.240        20
30.250        47
30.260        27
30.270        40
30.280        47
30.290        40
30.300        33
30.310        20
30.320        33
30.330        47
30.340        20
30.350        47
30.360        20
30.370        13
30.380        40
30.390        27
30.400        20
30.410        47
30.420         7
30.430        20
30.440        13
30.450        27
30.460        27
30.470         0
30.480        40
30.490        53
30.500        53
30.510        13
30.520        27
30.530        53
30.540        20
30.550        13
30.560        13
30.570        33
30.580        20
30.590        60
30.600        20
30.610        33
30.620        27
30.630        60
30.640        27
30.650        33
30.660        13
30.670        27
30.680        40
30.690        33
30.700        40
30.710        27
30.720        20
30.730        33
30.740        13
30.750        53
30.760        47
30.770        20
30.780        27
30.790        27
30.800        47
30.810        47
30.820        33
30.830        33
30.840        27
30.850        20
30.860        33
30.870        13
30.880         7
30.890        33
30.900        27
30.910        53
30.920        40
30.930        13
30.940        27
30.950        27
30.960        13
30.970        13
30.980        20
30.990        33
31.000        47
31.010        67
31.020        33
31.030        40
31.040        40
31.050        40
31.060        53
31.070        40
31.080        33
31.090        33
31.100        33
31.110        47
31.120        40
31.130        13
31.140        27
31.150        40
31.160        27
31.170        33
31.180        20
31.190        60
31.200        47
31.210        27
31.220        40
31.230        20
31.240        13
31.250        27
31.260        60
31.270        27
31.280        13
31.290        27
31.300        33
31.310        40
31.320        20
31.330        20
31.340        47
31.350        60
31.360        20
31.370        20
31.380        27
31.390        27
31.400        33
31.410        20
31.420        13
31.430        40
31.440        47
31.450        40
31.460        33
31.470        13
31.480        13
31.490        53
31.500        67
31.510        27
31.520        27
31.530        40
31.540        13
31.550        27
31.560        33
31.570        13
31.580        33
31.590        40
31.600        20
31.610        33
31.620        40
31.630        27
31.640        60
31.650        40
31.660        47
31.670        33
31.680        67
31.690         7
31.700         7
31.710        47
31.720        20
31.730        80
31.740        40
31.750        73
31.760        53
31.770        27
31.780        27
31.790        53
31.800        33
31.810        33
31.820        20
31.830        60
31.840        33
31.850        60
31.860        20
31.870        60
31.880        60
31.890        73
31.900        33
31.910        33
31.920        33
31.930        33
31.940        33
31.950        67
31.960        40
31.970        67
31.980        53
31.990        53
32.000        20
32.010        33
32.020        93
32.030        73
32.040        33
32.050        40
32.060        80
32.070        33
32.080        80
32.090        80
32.100        67
32.110        87
32.120        73
32.130       147
32.140       140
32.150       100
32.160        87
32.170        87
32.180       180
32.190        73
32.200        87
32.210       133
32.220       140
32.230       160
32.240       200
32.250       133
32.260       187
32.270       153
32.280       127
32.290       187
32.300       220
32.310       173
32.320       160
32.330       260
32.340       253
32.350       207
32.360       273
32.370       187
32.380       240
32.390       207
32.400       247
32.410       173
32.420       180
32.430       133
32.440       180
32.450       260
32.460       220
32.470       140
32.480       227
32.490       173
32.500       193
32.510       153
32.520       167
32.530       147
32.540       147
32.550        87
32.560       140
32.570        87
32.580       120
32.590       120
32.600       107
32.610       107
32.620        67
32.630        93
32.640        53
32.650       133
32.660        73
32.670        47
32.680        93
32.690        60
32.700        53
32.710        53
32.720        40
32.730        40
32.740        47
32.750        33
32.760        60
32.770        47
32.780        53
32.790        33
32.800        53
32.810        67
32.820        53
32.830        53
32.840        33
32.850        27
32.860        40
32.870        67
32.880        20
32.890        20
32.900        40
32.910         0
32.920        40
32.930        53
32.940        27
32.950        60
32.960        13
32.970        33
32.980        60
32.990        60
33.000        27
33.010        47
33.020        47
33.030        33
33.040         0
33.050        33
33.060        20
33.070        40
33.080        53
33.090        20
33.100        33
33.110        33
33.120        33
33.130        20
33.140        47
33.150        40
33.160        40
33.170        47
33.180        53
33.190        33
33.200        27
33.210        13
33.220        47
33.230        13
33.240        33
33.250        13
33.260        20
33.270        13
33.280        13
33.290        33
33.300        20
33.310        20
33.320        33
33.330        33
33.340        20
33.350        20
33.360        53
33.370         7
33.380        33
33.390        20
33.400        33
33.410        33
33.420        27
33.430        53
33.440        40
33.450        20
33.460        27
33.470        40
33.480        33
33.490        20
33.500        33
33.510        27
33.520        13
33.530        20
33.540        13
33.550        27
33.560        33
33.570        27
33.580        40
33.590        33
33.600        20
33.610         7
33.620        27
33.630        40
33.640        33
33.650        60
33.660        27
33.670        20
33.680        20
33.690        33
33.700        13
33.710        27
33.720        13
33.730        27
33.740        47
33.750        33
33.760        20
33.770        27
33.780        27
33.790        40
33.800        13
33.810        53
33.820        20
33.830        27
33.840        53
33.850        33
33.860        20
33.870        13
33.880        20
33.890        40
33.900        47
33.910        47
33.920         7
33.930        20
33.940        13
33.950         7
33.960        47
33.970        33
33.980        40
33.990        27
34.000        40
34.010        33
34.020        27
34.030        27
34.040        27
34.050        27
34.060        40
34.070        27
34.080        13
34.090        33
34.100        13
34.110        47
34.120        13
34.130        13
34.140        27
34.150        20
34.160        20
34.170        53
34.180        20
34.190        33
34.200        13
34.210        33
34.220        40
34.230        53
34.240         0
34.250        20
34.260        40
34.270        47
34.280        47
34.290        27
34.300        33
34.310        40
34.320        40
34.330        40
34.340        20
34.350        40
34.360         7
34.370        20
34.380        47
34.390        40
34.400        20
34.410        20
34.420        53
34.430        13
34.440        27
34.450        60
34.460        20
34.470        20
34.480        27
34.490        13
34.500        47
34.510        27
34.520        20
34.530        40
34.540        27
34.550        20
34.560        13
34.570        27
34.580        33
34.590        40
34.600        20
34.610        27
34.620        20
34.630        20
34.640         7
34.650        53
34.660        33
34.670        13
34.680        13
34.690        13
34.700        60
34.710        20
34.720        20
34.730        27
34.740        40
34.750        33
34.760        27
34.770        33
34.780        20
34.790        47
34.800        33
34.810        27
34.820        47
34.830        33
34.840        60
34.850        13
34.860        27
34.870        27
34.880        33
34.890        53
34.900        33
34.910        40
34.920        67
34.930        60
34.940        67
34.950        40
34.960        33
34.970        60
34.980       120
34.990        80
35.000       120
35.010       167
35.020       133
35.030       133
35.040       147
35.050       167
35.060       200
35.070       173
35.080       213
35.090       313
35.100       300
35.110       433
35.120       486
35.130       493
35.140       693
35.150       713
35.160       706
35.170       806
35.180       700
35.190       586
35.200       673
35.210       566
35.220       506
35.230       367
35.240       240
35.250       260
35.260       433
35.270       380
35.280       380
35.290       253
35.300       247
35.310        93
35.320       100
35.330        47
35.340        80
35.350        33
35.360        33
35.370        47
35.380        53
35.390        27
35.400        47
35.410        27
35.420        27
35.430        27
35.440        40
35.450        33
35.460        20
35.470         0
35.480        33
35.490        20
35.500        33
35.510        47
35.520        53
35.530        60
35.540        47
35.550        20
35.560        20
35.570        60
35.580        33
35.590        47
35.600        40
35.610        20
35.620        67
35.630        33
35.640        33
35.650        27
35.660        20
35.670        40
35.680         7
35.690        13
35.700        20
35.710        20
35.720        13
35.730        27
35.740        27
35.750         0
35.760        13
35.770        33
35.780        20
35.790        27
35.800        27
35.810        13
35.820        27
35.830        27
35.840        13
35.850        33
35.860        53
35.870        27
35.880        20
35.890         0
35.900         7
35.910        20
35.920        40
35.930        13
35.940        27
35.950        13
35.960        33
35.970         7
35.980        20
35.990        33
36.000        27
36.010        27
36.020        33
36.030         7
36.040         7
36.050        27
36.060         7
36.070        13
36.080        53
36.090        13
36.100        13
36.110        20
36.120        33
36.130        20
36.140        47
36.150         7
36.160        27
36.170        47
36.180        33
36.190        27
36.200         7
36.210        13
36.220        40
36.230        40
36.240         7
36.250        20
36.260        20
36.270        27
36.280        27
36.290         0
36.300        40
36.310        33
36.320        47
36.330        33
36.340        27
36.350        20
36.360         7
36.370        33
36.380        13
36.390        13
36.400        47
36.410        13
36.420        27
36.430        33
36.440        33
36.450         7
36.460        33
36.470        27
36.480        33
36.490        27
36.500         7
36.510        33
36.520        13
36.530        13
36.540        27
36.550        47
36.560        47
36.570        33
36.580        27
36.590        13
36.600        33
36.610        13
36.620        47
36.630        20
36.640        27
36.650        33
36.660        27
36.670        13
36.680        27
36.690        40
36.700        27
36.710        13
36.720         7
36.730        33
36.740        20
36.750        13
36.760        27
36.770        27
36.780         7
36.790        20
36.800        20
36.810        33
36.820        20
36.830        27
36.840        60
36.850        13
36.860        27
36.870        27
36.880        47
36.890         7
36.900        40
36.910        33
36.920         7
36.930        27
36.940        27
36.950        27
36.960        33
36.970         7
36.980        13
36.990        27
37.000        47
37.010         7
37.020        60
37.030        33
37.040        27
37.050        27
37.060        20
37.070        20
37.080         7
37.090        20
37.100        67
37.110        33
37.120        47
37.130         0
37.140        20
37.150        40
37.160        33
37.170        33
37.180        20
37.190        33
37.200        33
37.210        33
37.220        20
37.230        27
37.240        20
37.250        27
37.260        20
37.270        20
37.280        20
37.290        27
37.300        13
37.310        27
37.320        33
37.330         0
37.340         7
37.350        40
37.360        33
37.370        13
37.380         7
37.390        27
37.400         7
37.410        13
37.420        20
37.430        40
37.440        27
37.450        13
37.460        13
37.470        27
37.480        33
37.490        27
37.500        20
37.510        40
37.520        20
37.530        40
37.540        13
37.550        20
37.560        13
37.570        40
37.580        40
37.590        27
37.600        67
37.610        40
37.620        60
37.630        47
37.640        40
37.650        53
37.660        40
37.670        33
37.680        13
37.690        40
37.700        40
37.710        80
37.720        93
37.730        73
37.740       147
37.750       207
37.760       133
37.770       167
37.780       107
37.790       253
37.800       213
37.810       173
37.820       187
37.830       240
37.840       153
37.850       160
37.860        87
37.870       133
37.880       107
37.890       113
37.900       100
37.910       147
37.920       100
37.930       113
37.940        60
37.950        47
37.960        67
37.970        33
37.980         0
37.990        27
38.000        40
38.010        13
38.020        40
38.030        33
38.040         7
38.050        20
38.060        13
38.070        33
38.080        40
38.090        27
38.100        27
38.110         7
38.120        20
38.130        53
38.140        40
38.150        13
38.160        13
38.170        20
38.180        27
38.190        20
38.200         7
38.210        20
38.220         0
38.230        47
38.240        13
38.250         7
38.260        27
38.270        13
38.280        13
38.290        13
38.300        20
38.310        27
38.320         0
38.330        27
38.340        13
38.350        20
38.360         0
38.370        13
38.380        33
38.390        13
38.400         7
38.410        13
38.420        20
38.430         7
38.440        33
38.450        27
38.460        27
38.470        27
38.480        40
38.490        27
38.500        33
38.510        27
38.520        33
38.530        13
38.540        40
38.550        27
38.560         7
38.570        27
38.580         7
38.590        20
38.600        13
38.610        33
38.620         7
38.630        20
38.640         0
38.650        13
38.660        20
38.670        20
38.680        13
38.690        27
38.700        27
38.710        20
38.720        33
38.730        27
38.740        20
38.750        53
38.760        20
38.770        20
38.780         7
38.790         0
38.800        53
38.810        27
38.820        27
38.830        47
38.840        20
38.850        33
38.860        13
38.870        27
38.880        20
38.890        20
38.900        27
38.910        27
38.920        33
38.930        20
38.940        40
38.950        40
38.960        13
38.970        40
38.980        33
38.990        20
39.000        20
39.010         7
39.020         7
39.030         7
39.040        20
39.050        20
39.060        20
39.070        60
39.080         7
39.090        20
39.100        27
39.110        20
39.120         7
39.130        33
39.140        27
39.150        20
39.160        13
39.170         7
39.180        20
39.190        20
39.200        53
39.210        13
39.220        27
39.230        20
39.240         0
39.250        40
39.260         0
39.270        40
39.280        27
39.290        27
39.300        27
39.310        27
39.320        20
39.330        33
39.340        13
39.350        20
39.360        13
39.370        20
39.380        27
39.390         0
39.400        13
39.410        13
39.420        27
39.430        20
39.440        20
39.450        13
39.460        13
39.470        20
39.480        13
39.490        13
39.500        53
39.510        27
39.520        33
39.530        13
39.540        20
39.550        20
39.560         7
39.570         7
39.580         0
39.590        53
39.600        20
39.610        40
39.620        13
39.630        20
39.640        27
39.650        20
39.660        33
39.670        67
39.680        20
39.690        40
39.700        27
39.710        20
39.720        20
39.730        27
39.740        47
39.750        27
39.760        60
39.770        20
39.780        60
39.790        40
39.800        67
39.810        73
39.820        47
39.830        33
39.840        73
39.850        60
39.860        60
39.870        67
39.880        60
39.890        60
39.900        60
39.910        53
39.920        40
39.930        67
39.940        80
39.950        60
39.960        87
39.970        73
39.980       107
39.990        60
40.000        80
40.010        87
40.020        73
40.030        53
40.040        67
40.050        27
40.060        60
40.070        47
40.080        67
40.090        47
40.100        40
40.110        80
40.120        67
40.130        47
40.140        53
40.150        40
40.160        40
40.170        33
40.180        27
40.190        47
40.200        13
40.210        53
40.220        40
40.230        40
40.240        27
40.250        20
40.260        27
40.270        27
40.280        27
40.290        20
40.300        20
40.310        33
40.320        60
40.330        27
40.340         7
40.350        20
40.360        20
40.370        60
40.380        27
40.390        33
40.400        27
40.410        27
40.420        73
40.430        20
40.440        27
40.450        27
40.460         0
40.470        13
40.480        20
40.490        27
40.500        13
40.510         7
40.520        20
40.530        27
40.540         0
40.550        20
40.560        20
40.570        60
40.580        40
40.590        33
40.600        13
40.610        47
40.620        13
40.630         7
40.640        20
40.650         7
40.660        20
40.670        13
40.680        27
40.690         7
40.700        40
40.710        13
40.720        20
40.730         7
40.740        20
40.750        20
40.760        13
40.770        20
40.780        13
40.790        33
40.800        27
40.810        27
40.820        20
40.830        27
40.840        20
40.850        33
40.860        20
40.870        27
40.880         0
40.890        40
40.900         7
40.910         7
40.920        27
40.930        20
40.940         7
40.950        27
40.960        27
40.970        60
40.980        33
40.990        20
41.000        20
41.010        13
41.020         7
41.030        33
41.040        47
41.050        27
41.060        13
41.070        20
41.080        13
41.090         7
41.100        20
41.110        27
41.120        27
41.130        20
41.140        20
41.150        33
41.160        47
41.170        33
41.180        20
41.190        33
41.200        13
41.210         0
41.220        13
41.230         7
41.240        13
41.250        33
41.260        27
41.270        40
41.280        33
41.290        20
41.300        33
41.310        27
41.320         7
41.330        13
41.340        20
41.350        40
41.360        13
41.370        33
41.380         0
41.390        27
41.400        27
41.410        33
41.420        40
41.430        20
41.440        27
41.450        27
41.460        13
41.470        13
41.480        27
41.490        20
41.500        40
41.510        33
41.520        40
41.530        53
41.540        20
41.550        20
41.560        33
41.570        13
41.580        53
41.590        67
41.600        47
41.610        67
41.620        73
41.630        60
41.640       100
41.650        47
41.660       173
41.670       113
41.680       113
41.690       133
41.700       113
41.710        87
41.720        53
41.730        80
41.740        80
41.750        87
41.760        87
41.770        87
41.780        60
41.790        60
41.800        73
41.810        33
41.820        53
41.830        67
41.840        33
41.850        40
41.860        53
41.870        40
41.880        13
41.890        33
41.900        20
41.910        20
41.920        13
41.930        53
41.940        20
41.950        13
41.960        20
41.970        20
41.980        47
41.990         7
42.000        40
42.010        13
42.020        13
42.030        20
42.040        47
42.050        27
42.060        13
42.070        27
42.080        13
42.090        13
42.100        20
42.110        27
42.120         7
42.130        27
42.140        27
42.150        13
42.160        20
42.170        13
42.180        27
42.190        27
42.200        20
42.210        20
42.220        20
42.230        20
42.240        27
42.250        20
42.260        20
42.270        13
42.280        40
42.290        20
42.300         0
42.310         7
42.320        20
42.330        13
42.340        20
42.350        13
42.360        13
42.370        27
42.380        20
42.390         7
42.400        27
42.410        13
42.420         7
42.430        33
42.440        53
42.450        20
42.460        13
42.470        27
42.480        13
42.490        33
42.500        40
42.510        27
42.520        20
42.530         0
42.540        13
42.550        13
42.560         7
42.570         7
42.580        33
42.590        13
42.600        47
42.610        27
42.620        13
42.630        13
42.640        27
42.650        27
42.660        13
42.670        13
42.680        13
42.690        27
42.700         7
42.710        53
42.720        47
42.730        27
42.740        40
42.750        13
42.760        40
42.770        20
42.780        20
42.790        20
42.800        20
42.810         7
42.820        33
42.830        20
42.840        20
42.850        20
42.860        13
42.870        13
42.880        13
42.890        53
42.900        47
42.910        27
42.920        33
42.930        60
42.940        13
42.950        27
42.960        27
42.970        27
42.980        33
42.990         7
43.000        27
43.010        33
43.020        27
43.030        33
43.040        20
43.050        20
43.060        13
43.070        33
43.080        47
43.090        20
43.100        27
43.110        20
43.120        27
43.130        33
43.140        40
43.150         7
43.160        47
43.170        13
43.180        60
43.190        27
43.200        67
43.210        60
43.220        40
43.230        40
43.240        73
43.250        47
43.260        87
43.270       127
43.280       147
43.290       207
43.300       240
43.310       300
43.320       320
43.330       280
43.340       513
43.350       460
43.360       433
43.370       340
43.380       440
43.390       340
43.400       213
43.410       267
43.420       227
43.430       160
43.440       213
43.450       253
43.460       180
43.470       240
43.480       240
43.490       173
43.500       220
43.510       133
43.520       120
43.530        60
43.540        40
43.550        73
43.560        73
43.570        33
43.580        20
43.590        20
43.600        33
43.610        53
43.620        20
43.630        40
43.640        33
43.650        53
43.660        47
43.670        53
43.680        27
43.690        40
43.700        53
43.710        13
43.720        13
43.730         7
43.740         7
43.750         7
43.760        20
43.770        40
43.780        27
43.790        13
43.800        13
43.810        40
43.820        13
43.830        20
43.840        20
43.850        27
43.860         7
43.870        33
43.880        13
43.890         7
43.900        27
43.910        60
43.920        33
43.930        13
43.940         7
43.950        47
43.960        40
43.970        33
43.980        20
43.990        27
44.000        20
44.010        13
44.020        20
44.030        27
44.040        27
44.050        40
44.060        40
44.070        27
44.080        40
44.090        40
44.100        33
44.110        20
44.120        33
44.130        27
44.140        33
44.150        40
44.160        40
44.170        20
44.180         7
44.190        40
44.200        33
44.210         7
44.220        20
44.230        40
44.240        47
44.250         7
44.260        33
44.270        20
44.280         7
44.290        53
44.300        20
44.310        13
44.320        40
44.330        13
44.340        27
44.350        27
44.360        13
44.370        40
44.380        53
44.390        47
44.400        20
44.410        33
44.420        33
44.430        27
44.440        13
44.450        27
44.460        73
44.470        47
44.480        40
44.490        33
44.500        27
44.510        20
44.520        20
44.530        53
44.540        27
44.550        40
44.560        13
44.570        33
44.580         7
44.590         7
44.600        27
44.610        27
44.620        47
44.630        40
44.640        33
44.650        27
44.660        47
44.670        53
44.680        27
44.690        20
44.700        60
44.710        13
44.720        47
44.730        20
44.740        40
44.750        40
44.760        47
44.770        53
44.780        33
44.790        33
44.800        47
44.810        33
44.820        27
44.830        40
44.840        73
44.850        47
44.860        33
44.870        40
44.880        60
44.890        73
44.900        20
44.910        33
44.920        60
44.930        67
44.940        80
44.950        47
44.960        67
44.970        47
44.980        47
44.990        53
45.000        40
45.010        67
45.020        73
45.030        33
45.040        93
45.050        47
45.060        67
45.070       113
45.080        53
45.090        47
45.100        60
45.110        60
45.120        67
45.130        53
45.140        53
45.150        60
45.160        73
45.170        47
45.180        73
45.190        87
45.200        87
45.210        73
45.220       107
45.230        53
45.240        67
45.250        67
45.260       107
45.270        80
45.280        80
45.290        80
45.300        73
45.310        73
45.320        60
45.330        60
45.340        73
45.350       120
45.360        60
45.370        60
45.380        67
45.390        73
45.400       107
45.410       113
45.420        67
45.430       153
45.440       113
45.450        73
45.460        67
45.470       127
45.480       127
45.490       147
45.500       173
45.510       127
45.520       107
45.530       173
45.540       140
45.550       100
45.560       120
45.570       227
45.580       133
45.590       153
45.600       153
45.610       187
45.620       160
45.630       193
45.640       173
45.650       160
45.660       207
45.670       187
45.680       227
45.690       293
45.700       260
45.710       300
45.720       200
45.730       280
45.740       233
45.750       267
45.760       407
45.770       333
45.780       307
45.790       280
45.800       367
45.810       313
45.820       367
45.830       407
45.840       340
45.850       466
45.860       493
45.870       460
45.880       373
45.890       486
45.900       560
45.910       620
45.920       600
45.930       433
45.940       546
45.950       626
45.960       633
45.970       666
45.980       700
45.990       726
46.000       780
46.010       813
46.020       813
46.030       953
46.040       700
46.050       993
46.060       946
46.070      1020
46.080       933
46.090       946
46.100      1279
46.110       980
46.120      1233
46.130      1173
46.140      1273
46.150      1366
46.160      1133
46.170      1366
46.180      1293
46.190      1326
46.200      1506
46.210      1273
46.220      1379
46.230      1253
46.240      1373
46.250      1200
46.260      1479
46.270      1346
46.280      1406
46.290      1220
46.300      1286
46.310      1486
46.320      1279
46.330      1233
46.340      1306
46.350      1313
46.360      1319
46.370      1346
46.380      1353
46.390      1326
46.400      1160
46.410      1120
46.420      1319
46.430      1240
46.440      1013
46.450      1040
46.460       986
46.470      1120
46.480       920
46.490       986
46.500      1000
46.510       926
46.520       780
46.530       893
46.540       813
46.550       753
46.560       666
46.570       686
46.580       766
46.590       673
46.600       660
46.610       593
46.620       733
46.630       526
46.640       560
46.650       580
46.660       480
46.670       586
46.680       600
46.690       446
46.700       460
46.710       553
46.720       380
46.730       333
46.740       300
46.750       420
46.760       413
46.770       367
46.780       320
46.790       320
46.800       260
46.810       287
46.820       207
46.830       240
46.840       213
46.850       300
46.860       173
46.870       340
46.880       213
46.890       253
46.900       233
46.910       167
46.920       253
46.930       193
46.940       200
46.950       153
46.960       200
46.970       140
46.980       187
46.990       120
47.000       120
47.010        93
47.020        93
47.030       153
47.040       133
47.050       127
47.060       153
47.070       113
47.080       127
47.090       120
47.100       187
47.110       120
47.120        80
47.130        53
47.140        60
47.150       120
47.160        47
47.170        80
47.180        73
47.190        67
47.200        93
47.210        80
47.220       107
47.230       107
47.240       140
47.250        60
47.260        87
47.270        67
47.280        93
47.290       153
47.300        87
47.310        60
47.320        87
47.330        67
47.340       100
47.350        73
47.360       100
47.370        67
47.380        73
47.390        47
47.400        40
47.410        80
47.420        73
47.430        60
47.440        60
47.450        80
47.460        40
47.470        60
47.480        40
47.490        67
47.500        53
47.510        47
47.520        60
47.530        20
47.540        67
47.550        60
47.560        67
47.570        47
47.580        20
47.590        27
47.600        33
47.610        47
47.620        67
47.630        53
47.640        20
47.650        47
47.660        47
47.670        73
47.680        33
47.690        60
47.700        33
47.710        60
47.720        20
47.730        60
47.740        40
47.750        33
47.760        47
47.770        53
47.780        33
47.790        40
47.800        53
47.810        33
47.820        60
47.830        40
47.840        40
47.850        27
47.860        13
47.870        47
47.880        27
47.890        67
47.900        47
47.910         7
47.920        33
47.930        53
47.940        53
47.950        20
47.960        27
47.970        47
47.980        33
47.990        47
48.000        33
48.010        60
48.020        33
48.030        33
48.040        47
48.050        27
48.060        47
48.070        27
48.080        40
48.090        40
48.100        27
48.110        47
48.120        27
48.130        20
48.140        27
48.150        33
48.160         7
48.170        13
48.180        40
48.190        20
48.200        13
48.210        27
48.220        33
48.230        13
48.240        13
48.250        53
48.260        33
48.270        47
48.280        47
48.290        20
48.300        33
48.310        33
48.320        33
48.330        20
48.340        67
48.350        33
48.360         7
48.370        40
48.380        20
48.390        60
48.400        40
48.410        20
48.420        20
48.430        47
48.440        47
48.450        27
48.460        13
48.470        27
48.480        20
48.490        13
48.500        20
48.510        40
48.520         7
48.530        40
48.540        27
48.550        40
48.560        20
48.570        27
48.580        20
48.590        13
48.600        40
48.610        13
48.620        27
48.630         7
48.640        40
48.650        33
48.660        13
48.670        47
48.680        20
48.690        13
48.700        13
48.710        33
48.720        53
48.730        20
48.740        47
48.750        33
48.760        27
48.770        53
48.780        33
48.790        20
48.800         0
48.810        33
48.820        13
48.830        27
48.840        13
48.850        33
48.860        40
48.870        27
48.880        13
48.890        13
48.900        53
48.910        27
48.920        20
48.930         7
48.940        20
48.950        33
48.960        33
48.970        20
48.980        20
48.990        27
49.000        27
49.010        20
49.020        13
49.030        20
49.040        13
49.050         0
49.060        27
49.070        40
49.080        13
49.090        33
49.100        40
49.110         7
49.120        13
49.130        27
49.140        13
49.150        33
49.160        20
49.170        13
49.180        40
49.190        20
49.200        33
49.210        20
49.220        20
49.230        13
49.240        27
49.250        33
49.260        13
49.270        13
49.280        33
49.290        27
49.300        13
49.310        13
49.320         7
49.330        33
49.340        33
49.350        33
49.360        40
49.370        27
49.380        20
49.390         0
49.400        20
49.410        20
49.420        20
49.430         0
49.440        13
49.450        33
49.460        67
49.470        47
49.480        27
49.490        40
49.500         0
49.510        13
49.520        20
49.530        20
49.540        13
49.550        20
49.560        53
49.570        40
49.580        20
49.590        13
49.600        40
49.610        27
49.620        27
49.630        33
49.640        20
49.650        27
49.660        27
49.670        13
49.680        27
49.690        53
49.700        13
49.710        13
49.720         0
49.730        20
49.740         0
49.750        27
49.760        20
49.770        27
49.780        13
49.790        13
49.800        40
49.810        40
49.820        20
49.830        33
49.840        20
49.850        20
49.860        33
49.870        20
49.880        13
49.890         7
49.900        20
49.910        13
49.920        13
49.930         0
49.940        33
49.950        13
49.960         7
49.970         7
49.980        20
49.990        20
50.000         7
50.010        40
50.020         7
50.030        27
50.040        13
50.050        40
50.060        40
50.070        27
50.080         7
50.090        13
50.100        33
50.110        13
50.120        33
50.130        40
50.140        33
50.150        33
50.160        60
50.170        40
50.180        53
50.190        67
50.200        20
50.210        20
50.220         7
50.230        20
50.240        13
50.250         7
50.260        40
50.270         0
50.280        20
50.290        13
50.300        27
50.310        13
50.320        27
50.330        13
50.340        27
50.350        13
50.360        13
50.370        33
50.380         7
50.390        20
50.400        27
50.410        13
50.420         7
50.430        20
50.440        27
50.450        20
50.460        20
50.470        33
50.480        20
50.490        20
50.500        27
50.510        33
50.520        33
50.530        40
50.540        27
50.550        40
50.560        27
50.570        40
50.580        40
50.590        13
50.600        13
50.610        27
50.620        33
50.630        20
50.640        20
50.650        20
50.660        27
50.670        20
50.680         7
50.690        13
50.700        20
50.710        13
50.720        20
50.730        27
50.740        27
50.750        27
50.760         7
50.770        53
50.780        20
50.790        13
50.800        47
50.810        33
50.820        20
50.830        13
50.840        40
50.850        20
50.860        13
50.870        33
50.880        27
50.890        20
50.900        13
50.910         7
50.920        40
50.930        40
50.940        27
50.950        20
50.960        27
50.970        20
50.980        47
50.990        27
51.000        40
51.010        27
51.020        20
51.030        53
51.040        47
51.050        13
51.060        33
51.070        27
51.080        20
51.090        33
51.100        27
51.110        27
51.120        27
51.130        13
51.140         7
51.150        27
51.160        33
51.170        20
51.180        13
51.190        40
51.200        13
51.210        20
51.220        20
51.230        13
51.240         7
51.250        20
51.260        20
51.270        13
51.280        20
51.290        33
51.300        20
51.310        13
51.320        20
51.330        27
51.340        27
51.350         0
51.360        13
51.370        20
51.380        13
51.390        47
51.400        27
51.410        13
51.420        13
51.430        13
51.440        13
51.450        33
51.460        27
51.470        13
51.480        27
51.490         0
51.500        20
51.510        13
51.520        13
51.530        27
51.540        20
51.550        27
51.560        13
51.570        27
51.580        33
51.590        27
51.600        27
51.610        33
51.620        33
51.630        20
51.640        13
51.650        33
51.660        13
51.670        27
51.680        20
51.690        33
51.700        27
51.710         7
51.720        13
51.730        13
51.740        40
51.750        20
51.760        13
51.770        20
51.780        13
51.790        20
51.800        53
51.810        20
51.820         0
51.830        13
51.840        27
51.850        33
51.860        40
51.870        13
51.880        33
51.890        20
51.900        20
51.910         7
51.920         7
51.930        20
51.940         7
51.950        13
51.960        13
51.970         7
51.980        13
51.990        27
52.000        27
52.010        20
52.020        27
52.030        20
52.040         7
52.050        40
52.060         0
52.070        27
52.080         7
52.090        20
52.100        60
52.110        33
52.120        27
52.130        20
52.140        27
52.150        20
52.160        13
52.170        27
52.180        20
52.190         0
52.200        20
52.210         7
52.220        47
52.230        20
52.240        13
52.250        33
52.260        13
52.270        13
52.280         7
52.290        13
52.300        13
52.310         7
52.320        33
52.330        33
52.340        13
52.350        13
52.360        60
52.370        13
52.380         7
52.390        40
52.400        27
52.410         7
52.420        27
52.430        33
52.440        73
52.450        13
52.460        47
52.470        67
52.480        47
52.490        60
52.500        60
52.510        47
52.520        67
52.530       107
52.540       113
52.550       160
52.560       180
52.570       167
52.580       140
52.590       147
52.600       193
52.610       113
52.620        80
52.630        87
52.640        47
52.650        27
52.660        40
52.670        80
52.680       107
52.690        73
52.700        87
52.710        67
52.720       140
52.730        67
52.740        47
52.750        53
52.760        73
52.770        33
52.780        40
52.790        20
52.800        27
52.810        13
52.820        13
52.830        47
52.840        40
52.850        27
52.860        13
52.870        13
52.880        13
52.890        20
52.900         7
52.910        20
52.920        33
52.930        20
52.940        13
52.950        20
52.960        27
52.970        27
52.980        13
52.990         7
53.000        33
53.010        13
53.020        33
53.030         7
53.040         7
53.050        13
53.060        13
53.070        27
53.080        20
53.090        40
53.100        47
53.110        27
53.120        27
53.130         0
53.140        20
53.150        27
53.160        13
53.170        13
53.180        20
53.190        20
53.200        20
53.210         7
53.220        33
53.230        27
53.240        27
53.250        27
53.260        13
53.270        20
53.280        20
53.290        20
53.300        20
53.310        13
53.320         7
53.330        20
53.340        13
53.350        13
53.360        20
53.370        33
53.380        33
53.390        13
53.400        13
53.410         7
53.420        27
53.430        13
53.440         7
53.450        33
53.460        47
53.470        13
53.480         0
53.490         0
53.500        13
53.510        13
53.520        20
53.530        13
53.540         7
53.550        40
53.560        20
53.570         0
53.580        13
53.590        20
53.600        27
53.610         7
53.620        13
53.630        20
53.640        33
53.650        27
53.660         0
53.670        27
53.680        13
53.690        27
53.700        20
53.710        13
53.720        13
53.730        13
53.740        20
53.750        20
53.760         0
53.770        33
53.780        13
53.790         0
53.800        40
53.810        13
53.820        27
53.830        33
53.840        20
53.850        27
53.860        27
53.870        13
53.880         7
53.890        33
53.900         7
53.910        20
53.920         0
53.930         0
53.940         7
53.950         7
53.960        13
53.970         7
53.980        20
53.990        20
54.000        33
54.010        40
54.020        27
54.030        13
54.040         0
54.050        20
54.060        13
54.070         0
54.080        20
54.090         0
54.100         0
54.110        33
54.120        13
54.130        13
54.140         7
54.150        20
54.160        13
54.170        33
54.180         0
54.190        27
54.200        13
54.210        27
54.220        33
54.230        20
54.240        27
54.250         0
54.260         7
54.270         7
54.280         0
54.290        13
54.300         7
54.310         7
54.320         0
54.330        20
54.340        20
54.350        13
54.360        27
54.370        13
54.380        27
54.390        20
54.400         7
54.410        13
54.420        33
54.430        13
54.440         7
54.450         7
54.460        13
54.470        13
54.480        13
54.490         7
54.500        13
54.510        13
54.520        20
54.530        40
54.540        13
54.550        20
54.560        13
54.570        13
54.580        60
54.590        20
54.600         7
54.610        13
54.620        40
54.630        20
54.640         7
54.650        27
54.660        13
54.670        20
54.680        13
54.690         7
54.700        20
54.710        13
54.720        27
54.730        20
54.740        20
54.750        27
54.760        20
54.770        13
54.780        33
54.790        33
54.800        13
54.810        20
54.820        13
54.830        13
54.840        20
54.850        20
54.860        20
54.870        13
54.880        13
54.890         7
54.900        20
54.910        13
54.920         0
54.930        13
54.940        40
54.950        13
54.960         0
54.970         7
54.980        20
54.990         7
55.000        20
55.010        20
55.020        20
55.030        20
55.040        33
55.050        20
55.060        13
55.070         7
55.080         0
55.090         0
55.100         7
55.110         0
55.120        20
55.130        13
55.140        27
55.150        13
55.160        20
55.170        27
55.180        47
55.190         7
55.200         0
55.210        13
55.220        33
55.230        13
55.240        20
55.250         7
55.260         7
55.270        13
55.280        13
55.290        13
55.300         0
55.310        33
55.320        20
55.330         0
55.340         7
55.350         7
55.360        20
55.370        13
55.380         0
55.390        13
55.400         7
55.410         0
55.420        20
55.430        13
55.440        13
55.450        13
55.460        13
55.470        13
55.480         7
55.490         0
55.500         7
55.510        20
55.520        13
55.530        13
55.540        20
55.550         0
55.560        20
55.570        20
55.580        13
55.590        13
55.600         7
55.610        13
55.620        20
55.630        27
55.640        47
55.650        13
55.660        13
55.670        27
55.680         7
55.690         0
55.700        20
55.710        20
55.720         7
55.730        40
55.740        13
55.750         0
55.760        13
55.770         7
55.780        33
55.790        27
55.800        20
55.810        20
55.820        20
55.830         7
55.840        20
55.850        13
55.860         0
55.870        33
55.880        13
55.890         0
55.900        20
55.910        13
55.920        13
55.930        33
55.940        13
55.950        20
55.960        40
55.970        20
55.980        47
55.990        20
56.000         0
56.010         7
56.020        13
56.030        47
56.040         7
56.050        20
56.060        13
56.070        60
56.080        13
56.090        20
56.100        27
56.110         0
56.120        13
56.130        20
56.140         0
56.150        33
56.160         7
56.170         7
56.180        27
56.190        20
56.200        20
56.210         7
56.220        27
56.230        47
56.240        27
56.250        27
56.260        27
56.270         7
56.280        20
56.290        13
56.300        20
56.310        20
56.320         0
56.330        27
56.340         0
56.350         7
56.360        20
56.370         7
56.380        13
56.390        13
56.400        33
56.410        27
56.420        13
56.430         0
56.440         7
56.450        20
56.460        47
56.470         7
56.480        27
56.490         7
56.500         7
56.510         7
56.520         0
56.530         7
56.540         7
56.550        13
56.560         7
56.570        13
56.580        13
56.590         0
56.600        20
56.610        33
56.620        20
56.630        27
56.640         7
56.650        27
56.660        13
56.670         7
56.680         0
56.690        20
56.700         7
56.710         7
56.720        60
56.730        20
56.740        20
56.750        33
56.760         7
56.770        27
56.780        27
56.790        20
56.800        13
56.810        13
56.820        27
56.830        40
56.840        20
56.850        33
56.860        33
56.870        13
56.880        13
56.890        13
56.900        33
56.910        20
56.920        20
56.930        20
56.940        27
56.950        33
56.960        33
56.970        27
56.980        20
56.990        33
57.000        33
57.010         7
57.020        33
57.030        27
57.040        20
57.050        20
57.060         7
57.070        27
57.080         7
57.090         7
57.100        20
57.110        27
57.120        20
57.130        13
57.140        40
57.150        27
57.160         7
57.170        40
57.180        33
57.190        20
57.200        20
57.210        20
57.220        33
57.230        33
57.240        33
57.250        27
57.260        47
57.270        33
57.280        13
57.290        47
57.300        60
57.310        33
57.320        40
57.330        33
57.340        47
57.350        67
57.360        53
57.370        80
57.380        87
57.390       113
57.400       127
57.410       147
57.420       127
57.430       127
57.440       213
57.450       293
57.460       280
57.470       380
57.480       493
57.490       586
57.500       580
57.510       613
57.520       593
57.530       600
57.540       633
57.550       540
57.560       380
57.570       387
57.580       313
57.590       280
57.600       193
57.610       173
57.620       347
57.630       253
57.640       253
57.650       313
57.660       313
57.670       320
57.680       293
57.690       227
57.700       293
57.710       273
57.720       247
57.730       107
57.740       107
57.750       100
57.760        87
57.770        53
57.780        40
57.790        60
57.800        53
57.810        40
57.820        33
57.830        40
57.840        33
57.850        27
57.860        40
57.870        40
57.880        47
57.890        53
57.900        47
57.910        27
57.920        13
57.930        20
57.940        47
57.950        33
57.960        27
57.970        27
57.980        47
57.990        20
58.000         7
58.010         7
58.020        13
58.030        53
58.040        13
58.050         7
58.060        20
58.070        33
58.080        13
58.090        40
58.100        13
58.110        40
58.120        27
58.130        13
58.140         7
58.150        13
58.160         7
58.170        13
58.180         7
58.190        40
58.200        33
58.210        20
58.220        20
58.230        20
58.240        27
58.250        20
58.260         0
58.270        20
58.280        13
58.290         7
58.300         7
58.310        13
58.320        27
58.330        13
58.340        13
58.350        27
58.360        20
58.370        27
58.380         7
58.390         7
58.400        20
58.410        27
58.420        20
58.430         7
58.440         0
58.450        13
58.460        20
58.470        13
58.480        20
58.490        27
58.500        20
58.510        47
58.520        20
58.530        27
58.540        20
58.550         0
58.560        13
58.570        13
58.580         7
58.590        20
58.600         0
58.610        13
58.620         7
58.630        13
58.640        13
58.650        27
58.660        20
58.670         7
58.680         7
58.690        20
58.700        13
58.710         7
58.720        13
58.730        13
58.740        20
58.750        20
58.760        13
58.770        27
58.780        33
58.790        13
58.800        27
58.810        20
58.820        13
58.830         7
58.840        27
58.850        20
58.860        33
58.870         7
58.880        27
58.890        27
58.900         7
58.910         7
58.920         7
58.930        33
58.940         7
58.950         7
58.960        13
58.970         0
58.980         7
58.990        20
59.000        13
59.010        20
59.020         7
59.030        20
59.040        27
59.050        13
59.060         7
59.070         7
59.080        13
59.090        40
59.100        20
59.110         7
59.120        13
59.130         7
59.140        20
59.150        40
59.160        13
59.170        27
59.180        20
59.190        13
59.200        13
59.210        33
59.220         7
59.230        20
59.240        20
59.250        20
59.260         7
59.270        20
59.280         0
59.290         0
59.300         7
59.310        27
59.320        20
59.330        20
59.340         0
59.350        13
59.360         7
59.370        27
59.380         7
59.390        27
59.400        33
59.410        13
59.420         7
59.430        13
59.440         0
59.450        20
59.460        20
59.470        20
59.480        13
59.490        33
59.500        20
59.510        27
59.520         7
59.530        13
59.540        27
59.550        20
59.560         7
59.570        40
59.580         7
59.590        20
59.600        20
59.610        13
59.620        13
59.630        20
59.640        13
59.650        20
59.660         7
59.670        13
59.680        20
59.690        13
59.700         7
59.710        20
59.720         7
59.730         0
59.740        40
59.750        13
59.760        27
59.770        27
59.780         7
59.790        33
59.800        33
59.810        20
59.820        20
59.830        13
59.840        40
59.850        33
59.860         7
59.870        20
59.880         7
59.890         0
59.900        33
59.910        13
59.920        20
59.930        27
59.940        20
59.950        13
59.960        33
59.970        33
59.980         7
59.990        13
60.000        13
