20.000        27
20.010        27
20.020         7
20.030        27
20.040        47
20.050        53
20.060        33
20.070        60
20.080        53
20.090        33
20.100        47
20.110        27
20.120        20
20.130        53
20.140        87
20.150        60
20.160        40
20.170        47
20.180        47
20.190        27
20.200        13
20.210        40
20.220        40
20.230        53
20.240        27
20.250        33
20.260        33
20.270        27
20.280        20
20.290        53
20.300        47
20.310        40
20.320        33
20.330        53
20.340        67
20.350        20
20.360        53
20.370        80
20.380        53
20.390        40
20.400        27
20.410        47
20.420        60
20.430        47
20.440        33
20.450        67
20.460        40
20.470        60
20.480        47
20.490        67
20.500        40
20.510        33
20.520        20
20.530        33
20.540        67
20.550        40
20.560        20
20.570        40
20.580        53
20.590        33
20.600        53
20.610        47
20.620        13
20.630        60
20.640        53
20.650        60
20.660        47
20.670        33
20.680        47
20.690        47
20.700        27
20.710        73
20.720        27
20.730        53
20.740        60
20.750        27
20.760        40
20.770        27
20.780        40
20.790        53
20.800        73
20.810        47
20.820        40
20.830        33
20.840        40
20.850        73
20.860        20
20.870        27
20.880        27
20.890        40
20.900        40
20.910        27
20.920        47
20.930        47
20.940        40
20.950        47
20.960        53
20.970        60
20.980        53
20.990        40
21.000        27
21.010        47
21.020        53
21.030        40
21.040        60
21.050        27
21.060        53
21.070        53
21.080        33
21.090        47
21.100        33
21.110        33
21.120        40
21.130        73
21.140        27
21.150        27
21.160        47
21.170        40
21.180        47
21.190        60
21.200        40
21.210        33
21.220        33
21.230        53
21.240        67
21.250        33
21.260        33
21.270        67
21.280        60
21.290        33
21.300        40
21.310        40
21.320        40
21.330        27
21.340        40
21.350        60
21.360        80
21.370        40
21.380        53
21.390        33
21.400        47
21.410        27
21.420        33
21.430        47
21.440        67
21.450        53
21.460        20
21.470        33
21.480        47
21.490        60
21.500        27
21.510        27
21.520        20
21.530        53
21.540        67
21.550        33
21.560        27
21.570        40
21.580        27
21.590        40
21.600        27
21.610        27
21.620        27
21.630        20
21.640        47
21.650        27
21.660        27
21.670        33
21.680        33
21.690        87
21.700        47
21.710        40
21.720        40
21.730        27
21.740        33
21.750        53
21.760        40
21.770        53
21.780        33
21.790        67
21.800        40
21.810        40
21.820        53
21.830        40
21.840        67
21.850        27
21.860        40
21.870        27
21.880        20
21.890        53
21.900        40
21.910        33
21.920        60
21.930        47
21.940        47
21.950        47
21.960        40
21.970        33
21.980        73
21.990        33
22.000        33
22.010        47
22.020        67
22.030        40
22.040        20
22.050        47
22.060        60
22.070        53
22.080        53
22.090        40
22.100        53
22.110        13
22.120        20
22.130        53
22.140        47
22.150        33
22.160        20
22.170        53
22.180        27
22.190        20
22.200        27
22.210        20
22.220        20
22.230        53
22.240        60
22.250        47
22.260        93
22.270        73
22.280        53
22.290        33
22.300        20
22.310        20
22.320        40
22.330        53
22.340        20
22.350        53
22.360        20
22.370        40
22.380        40
22.390        53
22.400        40
22.410        40
22.420        53
22.430        40
22.440        33
22.450        40
22.460        47
22.470        47
22.480        73
22.490        20
22.500        33
22.510        33
22.520       107
22.530        93
22.540        27
22.550        40
22.560        73
22.570        20
22.580       100
22.590        80
22.600        80
22.610        60
22.620        53
22.630        47
22.640        87
22.650        87
22.660       140
22.670       153
22.680       140
22.690       140
22.700       107
22.710       140
22.720       220
22.730       213
22.740       213
22.750       240
22.760       340
22.770       293
22.780       460
22.790       380
22.800       413
22.810       380
22.820       546
22.830       520
22.840       480
22.850       420
22.860       433
22.870       387
22.880       387
22.890       313
22.900       420
22.910       247
22.920       253
22.930       233
22.940       187
22.950       187
22.960        93
22.970       120
22.980       113
22.990       127
23.000        80
23.010        73
23.020        73
23.030        87
23.040        60
23.050        73
23.060        67
23.070        60
23.080        53
23.090       107
23.100        47
23.110        40
23.120        53
23.130        40
23.140        67
23.150        73
23.160        47
23.170        27
23.180        47
23.190        13
23.200        73
23.210        67
23.220        73
23.230        40
23.240        47
23.250        27
23.260        53
23.270        27
23.280        33
23.290        47
23.300        47
23.310        27
23.320        73
23.330        60
23.340        33
23.350        47
23.360        27
23.370        33
23.380        73
23.390        20
23.400        40
23.410        20
23.420        73
23.430        40
23.440        53
23.450        47
23.460        33
23.470        60
23.480        60
23.490        27
23.500        13
23.510        60
23.520        33
23.530        53
23.540        47
23.550        33
23.560        20
23.570        40
23.580        33
23.590        13
23.600        60
23.610        27
23.620        13
23.630        27
23.640        40
23.650        13
23.660        27
23.670        53
23.680        40
23.690        53
23.700        47
23.710        40
23.720        20
23.730        40
23.740        40
23.750        40
23.760        13
23.770        40
23.780        60
23.790        40
23.800        60
23.810        60
23.820        73
23.830        73
23.840        47
23.850        40
23.860        27
23.870        53
23.880        67
23.890        40
23.900        27
23.910        60
23.920        33
23.930        40
23.940        33
23.950        40
23.960        27
23.970        13
23.980        80
23.990        40
24.000        53
24.010        60
24.020        33
24.030        33
24.040        33
24.050        53
24.060        40
24.070        20
24.080        47
24.090        13
24.100        27
24.110        47
24.120        53
24.130        27
24.140        27
24.150        33
24.160        60
24.170        47
24.180        73
24.190        60
24.200        47
24.210        47
24.220        27
24.230        40
24.240        53
24.250        40
24.260        53
24.270        47
24.280        27
24.290        27
24.300        47
24.310        40
24.320        20
24.330        60
24.340        27
24.350        33
24.360        27
24.370        47
24.380        67
24.390        60
24.400        20
24.410        27
24.420        47
24.430        60
24.440        27
24.450        40
24.460        33
24.470        20
24.480        33
24.490        33
24.500        27
24.510        13
24.520        20
24.530        27
24.540        40
24.550        53
24.560        67
24.570        40
24.580        33
24.590        20
24.600        27
24.610        40
24.620        47
24.630        47
24.640        73
24.650        13
24.660        53
24.670        73
24.680        40
24.690        27
24.700        40
24.710        47
24.720        47
24.730        47
24.740        20
24.750        27
24.760        33
24.770        33
24.780        13
24.790        67
24.800        33
24.810        40
24.820        60
24.830        33
24.840        73
24.850        67
24.860         0
24.870        20
24.880        27
24.890        53
24.900        27
24.910        20
24.920        33
24.930        47
24.940        33
24.950        33
24.960        60
24.970         0
24.980        27
24.990        20
25.000        40
25.010        47
25.020        20
25.030        47
25.040        60
25.050        53
25.060        40
25.070        27
25.080        47
25.090        13
25.100        27
25.110        20
25.120        27
25.130        40
25.140        20
25.150        33
25.160        40
25.170        33
25.180        27
25.190        47
25.200         7
25.210        40
25.220        33
25.230        20
25.240        33
25.250        33
25.260        33
25.270        40
25.280        20
25.290        67
25.300        20
25.310        47
25.320        33
25.330        73
25.340        47
25.350        47
25.360        33
25.370        40
25.380        33
25.390        27
25.400        47
25.410        40
25.420        47
25.430        60
25.440        27
25.450        27
25.460        60
25.470        33
25.480        33
25.490        33
25.500        20
25.510        67
25.520        40
25.530        60
25.540        40
25.550        40
25.560        33
25.570        60
25.580        87
25.590        80
25.600       140
25.610       113
25.620        67
25.630       100
25.640       120
25.650        93
25.660        87
25.670        67
25.680        93
25.690        80
25.700        87
25.710        47
25.720        67
25.730        40
25.740        27
25.750        33
25.760        20
25.770        33
25.780        67
25.790        60
25.800        60
25.810        60
25.820        40
25.830        20
25.840        27
25.850        67
25.860        13
25.870        27
25.880        40
25.890        47
25.900        20
25.910        27
25.920        33
25.930        27
25.940        47
25.950        13
25.960        40
25.970        53
25.980        33
25.990        20
26.000        33
26.010        27
26.020        27
26.030         7
26.040        20
26.050        33
26.060        60
26.070        27
26.080        27
26.090        27
26.100        40
26.110        53
26.120        40
26.130        20
26.140        20
26.150        33
26.160        40
26.170        47
26.180        67
26.190        20
26.200        33
26.210        33
26.220        27
26.230        47
26.240        27
26.250        33
26.260        53
26.270        33
26.280         7
26.290        80
26.300        53
26.310        27
26.320        13
26.330        33
26.340        53
26.350        13
26.360        20
26.370        53
26.380        20
26.390         7
26.400        33
26.410        73
26.420        40
26.430        33
26.440        27
26.450        40
26.460        47
26.470        47
26.480        33
26.490        40
26.500         7
26.510        13
26.520        13
26.530        33
26.540        53
26.550        33
26.560        33
26.570        13
26.580        20
26.590        13
26.600        20
26.610        20
26.620        33
26.630        13
26.640        27
26.650        47
26.660        33
26.670        47
26.680        33
26.690        47
26.700        60
26.710        40
26.720        40
26.730        53
26.740        47
26.750        20
26.760        27
26.770        40
26.780        47
26.790        67
26.800        33
26.810        27
26.820        27
26.830        40
26.840        47
26.850        27
26.860        47
26.870        27
26.880        47
26.890        40
26.900         7
26.910        27
26.920        53
26.930        33
26.940        33
26.950        33
26.960        47
26.970        33
26.980        27
26.990        40
27.000        27
27.010        33
27.020        13
27.030        40
27.040        47
27.050        47
27.060         7
27.070        40
27.080        20
27.090        33
27.100        53
27.110        40
27.120        20
27.130        47
27.140        60
27.150        33
27.160         7
27.170        53
27.180         7
27.190        13
27.200        13
27.210         7
27.220        47
27.230        53
27.240        20
27.250        40
27.260        40
27.270        60
27.280        27
27.290        27
27.300        20
27.310        47
27.320        27
27.330        47
27.340        13
27.350        33
27.360        27
27.370        40
27.380        27
27.390        27
27.400        27
27.410        13
27.420        20
27.430        27
27.440        33
27.450        33
27.460        33
27.470        13
27.480        13
27.490        33
27.500        27
27.510        47
27.520        47
27.530        20
27.540        27
27.550        40
27.560        53
27.570        33
27.580        47
27.590        33
27.600        47
27.610        40
27.620        33
27.630        27
27.640        13
27.650        27
27.660        53
27.670        27
27.680        20
27.690        20
27.700        33
27.710        27
27.720        40
27.730        47
27.740        13
27.750        13
27.760        13
27.770        53
27.780        33
27.790        33
27.800        60
27.810        53
27.820        27
27.830        13
27.840        27
27.850        27
27.860        33
27.870        33
27.880        13
27.890        47
27.900        27
27.910        60
27.920        33
27.930        13
27.940        27
27.950        13
27.960        13
27.970        13
27.980        53
27.990        40
28.000        40
28.010        27
28.020        27
28.030        40
28.040        47
28.050        40
28.060        33
28.070         0
28.080        13
28.090        20
28.100        20
28.110        33
28.120        13
28.130        20
28.140        27
28.150        40
28.160        53
28.170        27
28.180        47
28.190        33
28.200        20
28.210        20
28.220        20
28.230        53
28.240        20
28.250        40
28.260        20
28.270        20
28.280        13
28.290        33
28.300        40
28.310        13
28.320        27
28.330        47
28.340        87
28.350        33
28.360        33
28.370        33
28.380        33
28.390        47
28.400        27
28.410        73
28.420        27
28.430         7
28.440        40
28.450        20
28.460        47
28.470        20
28.480        13
28.490        20
28.500        33
28.510        27
28.520        40
28.530        27
28.540        47
28.550        27
28.560        33
28.570        13
28.580        27
28.590        67
28.600        53
28.610        40
28.620        27
28.630        20
28.640        33
28.650        60
28.660        53
28.670        27
28.680        20
28.690        27
28.700        47
28.710        13
28.720        27
28.730        13
28.740        47
28.750        13
28.760        40
28.770        40
28.780        20
28.790        20
28.800        20
28.810        73
28.820        40
28.830        20
28.840        13
28.850        20
28.860        27
28.870        47
28.880        33
28.890        13
28.900        33
28.910        40
28.920        40
28.930        13
28.940        20
28.950        20
28.960        47
28.970         7
28.980        20
28.990        53
29.000        20
29.010        13
29.020        20
29.030        13
29.040        13
29.050        40
29.060        13
29.070        27
29.080        40
29.090        40
29.100        40
29.110        20
29.120        33
29.130        40
29.140        47
29.150         7
29.160        13
29.170        53
29.180        33
29.190        47
29.200        40
29.210        53
29.220        13
29.230        40
29.240        40
29.250        47
29.260        47
29.270        33
29.280        47
29.290        53
29.300        27
29.310        27
29.320        27
29.330        27
29.340        33
29.350        40
29.360        33
29.370        27
29.380        47
29.390        27
29.400        67
29.410        47
29.420        40
29.430        27
29.440        20
29.450        40
29.460        53
29.470        13
29.480        20
29.490        20
29.500         7
29.510        47
29.520        20
29.530        33
29.540        20
29.550        13
29.560        53
29.570        20
29.580        13
29.590        40
29.600        20
29.610        27
29.620        40
29.630        20
29.640        27
29.650        40
29.660        27
29.670        27
29.680        13
29.690        60
29.700        33
29.710        53
29.720        20
29.730        27
29.740        13
29.750        27
29.760        33
29.770         7
29.780        67
29.790        20
29.800        20
29.810        33
29.820        27
29.830        47
29.840        53
29.850        27
29.860        33
29.870        33
29.880        33
29.890        20
29.900        13
29.910        33
29.920        33
29.930        47
29.940        33
29.950        67
29.960        53
29.970        20
29.980         7
29.990        47
30.000        47
30.010        33
30.020        27
30.030        27
30.040         0
30.050        33
30.060         0
30.070        13
30.080        33
30.090        33
30.100        13
30.110        13
30.120        60
30.130        33
30.140        20
30.150        13
30.160        47
30.170        47
30.180        40
30.190        27
30.200        33
30.210         7
30.220        20
30.230        20
30.240        40
30.250        60
30.260        13
30.270        27
30.280        40
30.290        33
30.300        13
30.310        20
30.320        27
30.330        20
30.340        27
30.350        20
30.360        27
30.370        27
30.380        13
30.390        20
30.400        60
30.410        20
30.420        13
30.430        40
30.440        13
30.450        53
30.460        27
30.470        33
30.480        13
30.490        27
30.500        27
30.510        13
30.520        33
30.530        33
30.540         7
30.550        27
30.560        20
30.570        20
30.580        20
30.590        13
30.600        20
30.610        13
30.620        40
30.630        13
30.640        47
30.650        47
30.660        13
30.670         7
30.680        33
30.690        33
30.700        20
30.710        27
30.720        40
30.730        13
30.740        27
30.750        27
30.760        40
30.770        47
30.780        27
30.790         7
30.800        27
30.810         7
30.820        53
30.830        40
30.840        27
30.850        20
30.860        27
30.870        27
30.880         7
30.890        33
30.900        27
30.910        33
30.920        20
30.930        33
30.940        20
30.950        13
30.960        27
30.970        13
30.980        40
30.990        33
31.000        20
31.010        40
31.020        27
31.030        27
31.040        20
31.050        53
31.060        20
31.070        33
31.080        20
31.090         7
31.100        13
31.110        40
31.120        33
31.130        33
31.140        20
31.150        33
31.160        13
31.170        40
31.180        20
31.190         7
31.200        33
31.210        40
31.220        40
31.230        47
31.240        40
31.250        33
31.260        13
31.270        33
31.280        20
31.290        33
31.300        73
31.310        27
31.320        47
31.330        40
31.340        47
31.350        47
31.360        33
31.370        20
31.380        13
31.390        13
31.400        13
31.410        47
31.420        20
31.430        13
31.440        47
31.450        20
31.460        40
31.470        13
31.480        33
31.490         7
31.500        13
31.510        47
31.520        33
31.530        13
31.540        33
31.550         7
31.560         0
31.570        40
31.580        27
31.590         7
31.600        13
31.610        47
31.620        40
31.630        33
31.640        47
31.650        40
31.660        53
31.670        27
31.680        40
31.690        33
31.700        33
31.710        20
31.720        27
31.730        27
31.740        40
31.750         7
31.760         7
31.770        47
31.780         0
31.790        20
31.800        27
31.810        33
31.820        47
31.830        40
31.840        13
31.850         7
31.860        33
31.870        47
31.880        27
31.890        33
31.900        27
31.910        33
31.920        20
31.930        47
31.940        53
31.950        20
31.960        60
31.970        40
31.980        20
31.990        40
32.000        20
32.010        20
32.020        20
32.030        33
32.040        40
32.050        27
32.060        40
32.070        20
32.080        33
32.090        27
32.100        47
32.110        40
32.120        47
32.130         7
32.140        40
32.150        47
32.160        33
32.170        47
32.180        40
32.190        60
32.200        47
32.210        40
32.220        33
32.230        40
32.240        40
32.250        47
32.260        33
32.270        67
32.280        87
32.290        87
32.300        93
32.310        73
32.320        67
32.330       107
32.340        87
32.350       133
32.360       167
32.370       153
32.380       167
32.390       187
32.400       153
32.410       207
32.420       193
32.430       220
32.440       300
32.450       187
32.460       273
32.470       273
32.480       313
32.490       273
32.500       273
32.510       287
32.520       260
32.530       260
32.540       220
32.550       260
32.560       280
32.570       200
32.580       180
32.590       180
32.600       167
32.610       140
32.620       140
32.630       120
32.640       107
32.650        80
32.660        93
32.670        47
32.680        93
32.690        80
32.700        60
32.710        73
32.720        33
32.730        33
32.740        33
32.750        53
32.760        40
32.770        53
32.780        60
32.790        53
32.800        20
32.810       100
32.820        13
32.830        40
32.840        27
32.850        27
32.860        13
32.870        40
32.880        33
32.890        27
32.900         7
32.910        47
32.920        40
32.930        40
32.940        20
32.950        27
32.960        20
32.970        53
32.980        27
32.990        20
33.000         7
33.010        13
33.020        27
33.030         7
33.040        33
33.050        27
33.060        33
33.070        13
33.080        40
33.090        20
33.100        40
33.110        13
33.120        20
33.130        47
33.140        20
33.150        47
33.160        13
33.170        20
33.180        33
33.190        33
33.200        13
33.210        40
33.220        33
33.230        13
33.240        40
33.250        20
33.260        20
33.270        27
33.280        20
33.290         0
33.300        27
33.310        20
33.320        33
33.330        33
33.340        47
33.350        20
33.360        40
33.370        73
33.380        33
33.390        33
33.400        27
33.410         7
33.420         0
33.430        27
33.440        53
33.450        20
33.460         7
33.470        33
33.480         0
33.490        27
33.500        53
33.510        13
33.520        20
33.530        20
33.540        13
33.550        20
33.560        13
33.570        20
33.580        13
33.590        13
33.600        20
33.610        33
33.620        33
33.630        40
33.640        27
33.650        27
33.660        20
33.670         7
33.680        33
33.690        40
33.700        20
33.710        40
33.720        27
33.730        53
33.740        13
33.750        40
33.760        20
33.770        33
33.780        40
33.790        33
33.800        20
33.810        13
33.820        27
33.830        20
33.840        27
33.850        20
33.860        27
33.870        40
33.880        33
33.890        33
33.900        13
33.910        27
33.920        13
33.930        27
33.940        40
33.950        20
33.960        13
33.970        13
33.980        13
33.990        20
34.000        33
34.010        40
34.020        33
34.030        40
34.040        13
34.050        20
34.060        40
34.070        53
34.080        13
34.090        33
34.100        13
34.110        20
34.120        20
34.130        27
34.140        20
34.150        20
34.160        40
34.170        27
34.180        40
34.190        27
34.200        33
34.210        13
34.220        27
34.230        20
34.240        27
34.250        13
34.260        40
34.270        13
34.280        20
34.290        20
34.300        13
34.310        13
34.320        20
34.330         7
34.340        40
34.350        40
34.360        40
34.370        20
34.380        27
34.390        27
34.400        33
34.410        20
34.420        20
34.430        27
34.440        40
34.450        20
34.460         7
34.470        47
34.480        47
34.490        33
34.500        40
34.510        27
34.520        40
34.530        13
34.540        33
34.550        33
34.560        27
34.570        20
34.580        40
34.590        27
34.600        33
34.610        13
34.620        27
34.630        20
34.640        13
34.650        40
34.660         7
34.670        27
34.680        53
34.690         7
34.700        47
34.710        20
34.720        13
34.730        33
34.740        20
34.750        27
34.760         0
34.770        40
34.780        20
34.790         7
34.800        13
34.810        20
34.820        40
34.830        33
34.840        33
34.850        27
34.860        27
34.870        40
34.880         7
34.890        20
34.900        33
34.910        20
34.920        33
34.930        13
34.940        13
34.950        13
34.960        60
34.970        27
34.980        40
34.990        33
35.000        20
35.010        40
35.020       120
35.030        67
35.040        87
35.050       140
35.060        93
35.070       133
35.080       160
35.090       113
35.100       207
35.110       153
35.120        87
35.130       127
35.140       173
35.150       220
35.160       300
35.170       400
35.180       353
35.190       287
35.200       227
35.210       207
35.220       207
35.230       187
35.240       200
35.250        93
35.260       147
35.270       120
35.280       153
35.290       100
35.300       127
35.310        80
35.320        53
35.330        53
35.340        33
35.350        20
35.360        40
35.370        40
35.380        13
35.390        20
35.400        27
35.410        13
35.420        27
35.430        13
35.440        13
35.450        20
35.460        27
35.470        33
35.480        40
35.490        27
35.500        27
35.510        33
35.520        60
35.530        20
35.540        33
35.550        20
35.560        13
35.570        13
35.580        47
35.590        33
35.600        53
35.610        33
35.620        13
35.630         7
35.640        20
35.650        33
35.660        20
35.670        27
35.680        33
35.690        33
35.700        33
35.710        27
35.720        27
35.730        33
35.740        20
35.750        33
35.760        20
35.770        13
35.780         7
35.790        27
35.800        13
35.810        33
35.820        20
35.830        13
35.840        20
35.850        27
35.860        13
35.870        60
35.880        27
35.890        27
35.900        13
35.910        20
35.920        33
35.930        33
35.940        20
35.950        27
35.960        33
35.970         7
35.980        27
35.990        27
36.000        33
36.010        20
36.020        40
36.030        20
36.040         7
36.050        13
36.060        27
36.070        13
36.080        27
36.090        33
36.100        47
36.110        20
36.120        20
36.130        47
36.140        40
36.150        40
36.160        33
36.170        13
36.180        33
36.190        20
36.200        27
36.210        27
36.220         7
36.230        20
36.240         7
36.250        13
36.260        33
36.270        27
36.280        27
36.290        33
36.300         7
36.310        27
36.320        40
36.330        27
36.340        20
36.350        33
36.360        13
36.370        47
36.380        33
36.390        40
36.400        27
36.410        27
36.420        13
36.430        20
36.440        33
36.450        33
36.460        20
36.470        20
36.480        20
36.490         7
36.500        33
36.510        33
36.520        20
36.530        47
36.540        13
36.550        20
36.560        33
36.570         7
36.580        27
36.590        13
36.600        20
36.610        33
36.620        33
36.630        27
36.640        13
36.650        20
36.660        13
36.670        13
36.680         7
36.690        20
36.700        67
36.710        20
36.720        13
36.730        40
36.740        33
36.750        33
36.760        13
36.770        33
36.780        60
36.790         0
36.800        33
36.810        20
36.820        27
36.830         7
36.840        27
36.850        53
36.860        27
36.870        27
36.880        40
36.890        27
36.900        33
36.910        47
36.920        27
36.930        80
36.940        60
36.950        13
36.960        47
36.970        40
36.980         0
36.990        33
37.000        47
37.010        13
37.020        40
37.030        33
37.040        27
37.050        20
37.060         7
37.070        60
37.080        20
37.090         7
37.100        27
37.110        47
37.120        27
37.130        20
37.140        27
37.150        33
37.160        33
37.170        40
37.180        47
37.190        47
37.200        27
37.210        47
37.220        13
37.230        27
37.240        33
37.250        20
37.260         0
37.270        20
37.280         0
37.290         7
37.300        40
37.310        60
37.320        33
37.330        40
37.340        27
37.350        13
37.360         7
37.370        33
37.380        20
37.390        40
37.400        40
37.410        13
37.420        20
37.430        20
37.440        33
37.450        13
37.460        27
37.470         7
37.480        33
37.490        40
37.500        33
37.510        27
37.520        20
37.530        40
37.540        20
37.550        40
37.560        13
37.570        13
37.580        27
37.590        33
37.600        47
37.610        60
37.620        60
37.630        53
37.640        67
37.650        33
37.660        40
37.670        33
37.680        33
37.690        33
37.700        27
37.710        47
37.720         7
37.730        40
37.740        67
37.750        53
37.760        80
37.770        67
37.780        53
37.790        80
37.800        73
37.810        80
37.820        73
37.830        73
37.840        33
37.850        60
37.860        53
37.870       100
37.880       100
37.890        73
37.900        73
37.910        60
37.920        73
37.930        40
37.940        33
37.950        27
37.960        27
37.970        53
37.980        40
37.990        40
38.000        33
38.010        20
38.020        33
38.030        40
38.040        33
38.050        40
38.060        20
38.070        13
38.080        13
38.090        20
38.100        13
38.110         7
38.120        33
38.130         0
38.140        27
38.150        27
38.160        20
38.170        27
38.180        47
38.190        13
38.200         7
38.210         7
38.220        13
38.230        20
38.240        13
38.250        13
38.260        33
38.270        33
38.280         7
38.290        13
38.300        13
38.310        13
38.320         7
38.330         0
38.340        20
38.350         7
38.360         0
38.370        33
38.380        20
38.390         7
38.400        20
38.410        20
38.420        40
38.430        20
38.440        60
38.450        20
38.460        33
38.470        20
38.480        13
38.490        27
38.500        33
38.510        27
38.520         7
38.530        20
38.540        20
38.550        33
38.560        47
38.570        27
38.580        33
38.590         7
38.600         7
38.610        33
38.620        13
38.630        13
38.640        33
38.650        20
38.660        20
38.670        20
38.680        20
38.690        33
38.700         7
38.710        33
38.720        27
38.730        27
38.740        20
38.750        20
38.760        20
38.770        13
38.780        47
38.790        33
38.800         0
38.810        20
38.820        27
38.830        13
38.840        47
38.850        27
38.860        33
38.870        27
38.880        33
38.890        13
38.900        20
38.910        40
38.920        13
38.930        27
38.940        60
38.950        27
38.960        33
38.970        27
38.980        33
38.990        13
39.000        20
39.010        20
39.020        47
39.030        27
39.040        13
39.050        20
39.060        13
39.070        40
39.080        13
39.090        20
39.100        13
39.110        27
39.120        20
39.130         7
39.140        47
39.150        13
39.160        20
39.170        20
39.180        20
39.190        27
39.200        33
39.210        33
39.220        13
39.230        33
39.240        13
39.250         7
39.260        20
39.270        13
39.280        20
39.290        20
39.300        13
39.310        33
39.320        20
39.330        13
39.340        27
39.350        27
39.360        27
39.370        20
39.380        27
39.390         7
39.400         7
39.410        13
39.420        20
39.430         7
39.440        20
39.450        33
39.460        20
39.470        27
39.480        40
39.490        27
39.500        40
39.510        27
39.520        27
39.530        27
39.540        20
39.550         7
39.560        47
39.570        20
39.580        13
39.590        20
39.600        27
39.610        13
39.620        13
39.630        13
39.640        33
39.650        13
39.660        40
39.670        27
39.680        33
39.690        47
39.700        20
39.710         0
39.720        40
39.730        13
39.740        13
39.750        47
39.760         0
39.770        20
39.780        40
39.790        20
39.800        13
39.810        33
39.820         0
39.830        53
39.840        53
39.850        33
39.860        33
39.870        33
39.880        67
39.890        47
39.900        53
39.910        53
39.920        73
39.930        87
39.940        93
39.950        87
39.960       113
39.970        73
39.980       153
39.990       120
40.000       227
40.010       140
40.020       193
40.030       160
40.040       147
40.050       180
40.060       227
40.070       207
40.080       233
40.090       160
40.100       180
40.110       153
40.120       153
40.130       140
40.140       147
40.150       107
40.160       120
40.170       147
40.180       147
40.190       127
40.200        80
40.210       100
40.220        73
40.230        33
40.240        87
40.250        93
40.260        27
40.270        27
40.280        53
40.290        27
40.300        33
40.310        60
40.320        40
40.330        20
40.340        47
40.350        47
40.360        20
40.370        40
40.380        53
40.390        33
40.400        27
40.410         7
40.420        33
40.430        20
40.440        40
40.450        27
40.460        13
40.470        33
40.480        13
40.490        20
40.500        20
40.510        20
40.520        20
40.530        40
40.540        20
40.550        13
40.560         7
40.570         0
40.580        13
40.590         7
40.600        13
40.610        13
40.620        13
40.630        20
40.640        13
40.650        27
40.660        33
40.670        13
40.680        33
40.690        13
40.700        13
40.710         7
40.720        33
40.730        33
40.740        20
40.750        20
40.760        13
40.770        20
40.780        13
40.790        13
40.800        13
40.810        13
40.820        27
40.830        40
40.840        20
40.850        33
40.860        33
40.870        27
40.880        13
40.890        20
40.900        20
40.910        20
40.920        13
40.930        20
40.940        33
40.950        33
40.960        40
40.970        47
40.980        27
40.990        27
41.000        27
41.010        27
41.020        60
41.030         7
41.040        20
41.050        13
41.060         7
41.070         7
41.080        20
41.090        20
41.100        47
41.110        13
41.120        13
41.130        27
41.140        20
41.150        40
41.160        27
41.170         7
41.180        27
41.190        27
41.200         7
41.210        27
41.220        20
41.230         7
41.240        20
41.250        27
41.260        20
41.270         7
41.280        33
41.290         7
41.300        40
41.310        20
41.320        40
41.330        27
41.340        20
41.350        20
41.360        40
41.370        47
41.380        33
41.390        27
41.400        27
41.410        33
41.420        13
41.430        13
41.440        13
41.450        20
41.460        33
41.470        20
41.480        40
41.490        20
41.500        27
41.510        40
41.520        47
41.530        27
41.540        40
41.550        73
41.560        27
41.570        13
41.580        60
41.590        20
41.600        40
41.610        40
41.620        47
41.630        40
41.640        87
41.650       100
41.660        67
41.670       147
41.680       187
41.690       200
41.700       247
41.710       267
41.720       160
41.730       253
41.740       160
41.750       227
41.760       187
41.770       127
41.780       100
41.790        93
41.800        87
41.810       127
41.820       207
41.830       120
41.840        87
41.850       120
41.860       107
41.870        47
41.880        60
41.890        67
41.900        60
41.910        80
41.920        53
41.930        33
41.940        47
41.950        53
41.960        13
41.970        40
41.980        40
41.990        20
42.000        33
42.010         0
42.020        33
42.030        27
42.040        53
42.050        27
42.060        33
42.070        13
42.080        13
42.090        47
42.100         7
42.110        13
42.120        20
42.130        20
42.140        20
42.150        13
42.160        13
42.170         7
42.180         7
42.190        27
42.200        33
42.210        13
42.220        13
42.230         7
42.240        27
42.250        13
42.260        20
42.270         0
42.280        13
42.290         7
42.300        40
42.310        33
42.320        33
42.330        40
42.340        13
42.350         7
42.360        20
42.370         0
42.380        20
42.390         7
42.400        13
42.410        13
42.420        27
42.430        40
42.440        13
42.450        27
42.460        13
42.470        40
42.480        33
42.490        33
42.500         7
42.510        27
42.520         7
42.530        33
42.540         0
42.550         7
42.560        20
42.570        13
42.580         7
42.590        20
42.600        53
42.610        13
42.620        20
42.630        27
42.640        33
42.650        13
42.660         7
42.670        13
42.680        20
42.690        20
42.700         7
42.710        20
42.720        20
42.730        20
42.740        20
42.750        40
42.760        13
42.770        13
42.780        27
42.790        13
42.800        27
42.810        27
42.820        13
42.830        47
42.840        27
42.850         7
42.860         0
42.870        20
42.880        20
42.890         7
42.900        33
42.910        20
42.920        20
42.930        13
42.940        27
42.950        13
42.960        40
42.970        40
42.980        27
42.990        40
43.000        20
43.010        13
43.020        13
43.030        33
43.040        27
43.050        13
43.060        33
43.070        47
43.080        13
43.090        20
43.100        40
43.110        27
43.120        13
43.130        33
43.140        40
43.150        40
43.160        47
43.170        13
43.180        40
43.190        60
43.200        33
43.210        47
43.220        73
43.230        53
43.240        60
43.250        47
43.260        67
43.270        53
43.280        47
43.290        40
43.300       100
43.310        93
43.320       167
43.330       167
43.340       187
43.350       213
43.360       160
43.370       140
43.380       120
43.390       153
43.400        93
43.410       113
43.420        53
43.430       107
43.440       100
43.450       147
43.460       133
43.470       120
43.480        60
43.490        73
43.500        67
43.510        67
43.520        47
43.530        40
43.540        27
43.550        20
43.560        27
43.570        27
43.580        13
43.590        13
43.600        33
43.610        33
43.620        13
43.630        20
43.640        27
43.650        13
43.660        13
43.670         7
43.680        33
43.690         7
43.700        13
43.710        27
43.720        27
43.730        13
43.740        13
43.750        20
43.760        27
43.770        33
43.780         7
43.790        47
43.800         0
43.810         0
43.820        27
43.830        13
43.840        20
43.850        33
43.860        27
43.870         7
43.880        20
43.890        33
43.900         7
43.910        13
43.920        27
43.930         0
43.940        27
43.950        13
43.960        13
43.970        27
43.980        33
43.990        40
44.000        13
44.010         7
44.020         7
44.030         7
44.040         0
44.050        13
44.060         7
44.070         7
44.080        20
44.090        13
44.100        20
44.110        27
44.120        27
44.130        27
44.140        27
44.150         0
44.160        27
44.170        13
44.180         7
44.190        13
44.200        20
44.210        40
44.220        20
44.230        13
44.240        13
44.250        13
44.260         7
44.270        20
44.280        33
44.290        33
44.300         7
44.310        27
44.320        13
44.330        27
44.340        13
44.350        13
44.360        60
44.370        13
44.380         7
44.390        60
44.400        27
44.410         7
44.420        20
44.430        40
44.440        40
44.450        20
44.460        20
44.470        13
44.480        27
44.490        27
44.500        33
44.510        20
44.520        20
44.530        20
44.540        47
44.550        27
44.560        13
44.570         0
44.580        27
44.590         7
44.600        27
44.610        33
44.620        27
44.630        13
44.640        27
44.650        20
44.660        20
44.670        13
44.680        20
44.690        27
44.700        20
44.710         0
44.720        27
44.730        33
44.740        27
44.750        27
44.760         0
44.770        27
44.780         7
44.790        27
44.800        33
44.810        20
44.820        13
44.830        13
44.840        40
44.850        13
44.860        20
44.870         7
44.880        27
44.890        40
44.900         7
44.910        40
44.920        13
44.930        27
44.940        20
44.950        47
44.960        20
44.970        13
44.980        27
44.990        13
45.000        47
45.010        20
45.020        27
45.030        33
45.040        47
45.050        20
45.060        47
45.070        47
45.080        13
45.090        40
45.100        53
45.110        27
45.120        33
45.130        53
45.140        40
45.150        53
45.160        53
45.170        40
45.180        33
45.190        20
45.200        20
45.210        33
45.220        27
45.230        47
45.240        33
45.250        40
45.260        80
45.270        20
45.280        20
45.290        27
45.300        33
45.310        27
45.320        33
45.330        40
45.340        53
45.350        33
45.360        40
45.370        33
45.380        53
45.390        47
45.400        13
45.410        40
45.420        13
45.430         7
45.440        53
45.450        40
45.460        20
45.470        47
45.480        40
45.490        13
45.500        20
45.510        60
45.520        73
45.530        53
45.540        27
45.550        47
45.560        60
45.570        33
45.580        40
45.590        47
45.600        33
45.610        13
45.620        47
45.630        47
45.640        13
45.650        27
45.660        73
45.670        40
45.680        73
45.690        67
45.700        33
45.710        40
45.720        47
45.730        60
45.740        20
45.750        27
45.760        40
45.770        27
45.780        73
45.790        40
45.800        40
45.810        33
45.820        47
45.830        60
45.840        60
45.850        40
45.860       107
45.870        40
45.880       100
45.890        67
45.900        33
45.910        47
45.920       113
45.930        60
45.940        67
45.950        87
45.960       100
45.970        73
45.980        80
45.990        73
46.000        87
46.010        87
46.020       107
46.030        80
46.040        67
46.050        47
46.060       133
46.070        60
46.080        87
46.090        87
46.100        73
46.110        93
46.120       120
46.130       107
46.140       147
46.150       113
46.160       133
46.170       140
46.180       153
46.190       180
46.200       227
46.210       187
46.220       153
46.230       180
46.240       233
46.250       220
46.260       300
46.270       273
46.280       293
46.290       400
46.300       373
46.310       353
46.320       347
46.330       433
46.340       533
46.350       626
46.360       533
46.370       626
46.380       760
46.390       820
46.400       840
46.410      1066
46.420      1080
46.430      1100
46.440      1153
46.450      1266
46.460      1266
46.470      1546
46.480      1699
46.490      1799
46.500      2252
46.510      2246
46.520      2206
46.530      2432
46.540      2506
46.550      2672
46.560      2846
46.570      2779
46.580      2886
46.590      3065
46.600      2766
46.610      3005
46.620      2959
46.630      2839
46.640      2759
46.650      2959
46.660      2626
46.670      2352
46.680      2099
46.690      2299
46.700      2226
46.710      2019
46.720      1913
46.730      1873
46.740      1679
46.750      1559
46.760      1379
46.770      1299
46.780      1220
46.790      1259
46.800       826
46.810       926
46.820       926
46.830       813
46.840       680
46.850       526
46.860       680
46.870       580
46.880       367
46.890       420
46.900       353
46.910       407
46.920       347
46.930       327
46.940       260
46.950       193
46.960       160
46.970       233
46.980       207
46.990       207
47.000       140
47.010       153
47.020        93
47.030       180
47.040       173
47.050       167
47.060       160
47.070       147
47.080       113
47.090       160
47.100       100
47.110       133
47.120        93
47.130        80
47.140        87
47.150        73
47.160        87
47.170       127
47.180       120
47.190        80
47.200        87
47.210        67
47.220       113
47.230        73
47.240        40
47.250        73
47.260        87
47.270       113
47.280        47
47.290        93
47.300       127
47.310        73
47.320        40
47.330        73
47.340        60
47.350        47
47.360        33
47.370        80
47.380        47
47.390        33
47.400        47
47.410        87
47.420        60
47.430        60
47.440        33
47.450        60
47.460        67
47.470        73
47.480        40
47.490        67
47.500        20
47.510        33
47.520        13
47.530        73
47.540        33
47.550        20
47.560        40
47.570        53
47.580        53
47.590        27
47.600        47
47.610        40
47.620        47
47.630        53
47.640        47
47.650        60
47.660        40
47.670        47
47.680        40
47.690        40
47.700        27
47.710        67
47.720        40
47.730        27
47.740        53
47.750        27
47.760        27
47.770        27
47.780        33
47.790        33
47.800        27
47.810        20
47.820        13
47.830        47
47.840        33
47.850        40
47.860        27
47.870        33
47.880        60
47.890        47
47.900        13
47.910        40
47.920        20
47.930        20
47.940        47
47.950        53
47.960        13
47.970        20
47.980        27
47.990        47
48.000        33
48.010        33
48.020        47
48.030        20
48.040        53
48.050        20
48.060        27
48.070        33
48.080        27
48.090        40
48.100        33
48.110        27
48.120        13
48.130        40
48.140        47
48.150         7
48.160        40
48.170        33
48.180        20
48.190        33
48.200        53
48.210        47
48.220        33
48.230        13
48.240        40
48.250        33
48.260         0
48.270        27
48.280        20
48.290        20
48.300        20
48.310        33
48.320        33
48.330        47
48.340        33
48.350        13
48.360        40
48.370        20
48.380        33
48.390        20
48.400        60
48.410        60
48.420        20
48.430        33
48.440        20
48.450        67
48.460        20
48.470        27
48.480        13
48.490        13
48.500        33
48.510        47
48.520        47
48.530        13
48.540         7
48.550         0
48.560        13
48.570        13
48.580        20
48.590        33
48.600        40
48.610        20
48.620        40
48.630        60
48.640         7
48.650        40
48.660        27
48.670        40
48.680        40
48.690        20
48.700        40
48.710        47
48.720        33
48.730        40
48.740         7
48.750        47
48.760        13
48.770        33
48.780        27
48.790        47
48.800        33
48.810         7
48.820        27
48.830        27
48.840        27
48.850        13
48.860        20
48.870        20
48.880        13
48.890        27
48.900        20
48.910        47
48.920        40
48.930        13
48.940        33
48.950        13
48.960         7
48.970        13
48.980        40
48.990        33
49.000        27
49.010        13
49.020        80
49.030        20
49.040        20
49.050        33
49.060        33
49.070        27
49.080         7
49.090        20
49.100        27
49.110        33
49.120        27
49.130        60
49.140        47
49.150        33
49.160         7
49.170         7
49.180        13
49.190        13
49.200        13
49.210        20
49.220        47
49.230        40
49.240        33
49.250        13
49.260        20
49.270        40
49.280        47
49.290        27
49.300        20
49.310        20
49.320        40
49.330        20
49.340        13
49.350        27
49.360         7
49.370        13
49.380        20
49.390         7
49.400        27
49.410        27
49.420        20
49.430        40
49.440        27
49.450         7
49.460        13
49.470        33
49.480        27
49.490        40
49.500        33
49.510        20
49.520        13
49.530        47
49.540        27
49.550         7
49.560        20
49.570        20
49.580        47
49.590         0
49.600        20
49.610        13
49.620        20
49.630        20
49.640        20
49.650        20
49.660        13
49.670        33
49.680        33
49.690        13
49.700        20
49.710         7
49.720        33
49.730        20
49.740        40
49.750        27
49.760        20
49.770        47
49.780        60
49.790         7
49.800        13
49.810         7
49.820        40
49.830        40
49.840        53
49.850        13
49.860        33
49.870         0
49.880        20
49.890        33
49.900        13
49.910        13
49.920        33
49.930        27
49.940        20
49.950        47
49.960         7
49.970        20
49.980        13
49.990         0
50.000        27
50.010        20
50.020        20
50.030        27
50.040        27
50.050         7
50.060        27
50.070         7
50.080        13
50.090         7
50.100         7
50.110        27
50.120        13
50.130         7
50.140        13
50.150        20
50.160        13
50.170        33
50.180        13
50.190        20
50.200        27
50.210        13
50.220        27
50.230         7
50.240        13
50.250        33
50.260        40
50.270        20
50.280        20
50.290        20
50.300         7
50.310        13
50.320         7
50.330        33
50.340        13
50.350        40
50.360        20
50.370         7
50.380        20
50.390        20
50.400        13
50.410        33
50.420        33
50.430        27
50.440        20
50.450        27
50.460        33
50.470        13
50.480        27
50.490        33
50.500        33
50.510        40
50.520        20
50.530         7
50.540        20
50.550        60
50.560         7
50.570         0
50.580        27
50.590        13
50.600        27
50.610        40
50.620        20
50.630        53
50.640        27
50.650        13
50.660        27
50.670        13
50.680        20
50.690        13
50.700         0
50.710        13
50.720        27
50.730        27
50.740        13
50.750        20
50.760         7
50.770         7
50.780        20
50.790        27
50.800         7
50.810         7
50.820        33
50.830        20
50.840        20
50.850        20
50.860        20
50.870        20
50.880        27
50.890        13
50.900        20
50.910        27
50.920        27
50.930        27
50.940         7
50.950        53
50.960        13
50.970        20
50.980        27
50.990        13
51.000        27
51.010        33
51.020        20
51.030        27
51.040        20
51.050        20
51.060        27
51.070         7
51.080        20
51.090        13
51.100        20
51.110        20
51.120        20
51.130        13
51.140        47
51.150        13
51.160        13
51.170        13
51.180        40
51.190         7
51.200        20
51.210        27
51.220        27
51.230        40
51.240        13
51.250        40
51.260         7
51.270        27
51.280        33
51.290        13
51.300        13
51.310        40
51.320        40
51.330        20
51.340        27
51.350        20
51.360        33
51.370        13
51.380        40
51.390         0
51.400        27
51.410        20
51.420         7
51.430        33
51.440        13
51.450         7
51.460        33
51.470        20
51.480        27
51.490        33
51.500        33
51.510        13
51.520        27
51.530        20
51.540        20
51.550         0
51.560        27
51.570        40
51.580        27
51.590        33
51.600        20
51.610         7
51.620        27
51.630         7
51.640        27
51.650        13
51.660         7
51.670        33
51.680        20
51.690        13
51.700        33
51.710        27
51.720        27
51.730        13
51.740        40
51.750        20
51.760         7
51.770        27
51.780        53
51.790        20
51.800        33
51.810        40
51.820         0
51.830        20
51.840         7
51.850        20
51.860         7
51.870        20
51.880        33
51.890        20
51.900        27
51.910         0
51.920        27
51.930        27
51.940        27
51.950        40
51.960        27
51.970        20
51.980        13
51.990        27
52.000        27
52.010        20
52.020        20
52.030        13
52.040        13
52.050        27
52.060        33
52.070        33
52.080        20
52.090        20
52.100        27
52.110        13
52.120        20
52.130        33
52.140         7
52.150        20
52.160        13
52.170        13
52.180        27
52.190        27
52.200        40
52.210        13
52.220        40
52.230        13
52.240        33
52.250        13
52.260        27
52.270         7
52.280        33
52.290        33
52.300        47
52.310        13
52.320        13
52.330        13
52.340        20
52.350        53
52.360        27
52.370        13
52.380        13
52.390        27
52.400        27
52.410        40
52.420        40
52.430         7
52.440         7
52.450        13
52.460        33
52.470         0
52.480        27
52.490        40
52.500        40
52.510        27
52.520        33
52.530        47
52.540        47
52.550        40
52.560        60
52.570        53
52.580        47
52.590        47
52.600        60
52.610        67
52.620        67
52.630        60
52.640        47
52.650        67
52.660        47
52.670        67
52.680        60
52.690        33
52.700        47
52.710        33
52.720        47
52.730        40
52.740        20
52.750        20
52.760        40
52.770        20
52.780        27
52.790        27
52.800        47
52.810        27
52.820        40
52.830        27
52.840        20
52.850        40
52.860        13
52.870         7
52.880        20
52.890        20
52.900        33
52.910         7
52.920        33
52.930         7
52.940        67
52.950        13
52.960         7
52.970        27
52.980        13
52.990        20
53.000         7
53.010         7
53.020        13
53.030        20
53.040        13
53.050         7
53.060        20
53.070        40
53.080         7
53.090        13
53.100        20
53.110         0
53.120        27
53.130        13
53.140        27
53.150        13
53.160        13
53.170        27
53.180         7
53.190        27
53.200        53
53.210        13
53.220        33
53.230        33
53.240        27
53.250         7
53.260        20
53.270         7
53.280        27
53.290        20
53.300         7
53.310        27
53.320         7
53.330         0
53.340         7
53.350         7
53.360        20
53.370        20
53.380        27
53.390        27
53.400        13
53.410        13
53.420        27
53.430        13
53.440        13
53.450         0
53.460        27
53.470        13
53.480        40
53.490        13
53.500         7
53.510        47
53.520        33
53.530         0
53.540        27
53.550        13
53.560        13
53.570        27
53.580        33
53.590         7
53.600        20
53.610        20
53.620        20
53.630         0
53.640        13
53.650        40
53.660         0
53.670        33
53.680        20
53.690        13
53.700         7
53.710        20
53.720        20
53.730         7
53.740        13
53.750         7
53.760        20
53.770         7
53.780        20
53.790         0
53.800        20
53.810         0
53.820        13
53.830        20
53.840        27
53.850        13
53.860        20
53.870        20
53.880        13
53.890        33
53.900        13
53.910        20
53.920        13
53.930        33
53.940        20
53.950        27
53.960        20
53.970        13
53.980        40
53.990        13
54.000        27
54.010         0
54.020        13
54.030        33
54.040        27
54.050         7
54.060         7
54.070        33
54.080        13
54.090        27
54.100        20
54.110        20
54.120        13
54.130        13
54.140        33
54.150        47
54.160        40
54.170        27
54.180        13
54.190        27
54.200         0
54.210        33
54.220        20
54.230        13
54.240        20
54.250        13
54.260        20
54.270        33
54.280         7
54.290         7
54.300         7
54.310        13
54.320         0
54.330        27
54.340        13
54.350        33
54.360         7
54.370        20
54.380        13
54.390        40
54.400        13
54.410        20
54.420        33
54.430        13
54.440        13
54.450        33
54.460        27
54.470        40
54.480        20
54.490        20
54.500        33
54.510        20
54.520         7
54.530        27
54.540        20
54.550         7
54.560        40
54.570        13
54.580        13
54.590        20
54.600        20
54.610        13
54.620        20
54.630         7
54.640        40
54.650        13
54.660         7
54.670        27
54.680        40
54.690        27
54.700        13
54.710        13
54.720        13
54.730         7
54.740        20
54.750         0
54.760        13
54.770        13
54.780        20
54.790         7
54.800         7
54.810         7
54.820        20
54.830        20
54.840         7
54.850        20
54.860         0
54.870        27
54.880        40
54.890         7
54.900        27
54.910        13
54.920        40
54.930        27
54.940        33
54.950        27
54.960         7
54.970         7
54.980        20
54.990        33
55.000        33
55.010        47
55.020        20
55.030        20
55.040        13
55.050        13
55.060         0
55.070        13
55.080         7
55.090        13
55.100         7
55.110         0
55.120        20
55.130        13
55.140        40
55.150        27
55.160        27
55.170        13
55.180         7
55.190        13
55.200        20
55.210         7
55.220        20
55.230         7
55.240        13
55.250         7
55.260        13
55.270        20
55.280        13
55.290        20
55.300        20
55.310        13
55.320        20
55.330         7
55.340         7
55.350        20
55.360        20
55.370        27
55.380         7
55.390        13
55.400         7
55.410        27
55.420         0
55.430        20
55.440        20
55.450        27
55.460        13
55.470        20
55.480         7
55.490        33
55.500         7
55.510        27
55.520         7
55.530         7
55.540        13
55.550        13
55.560        13
55.570        20
55.580         7
55.590        20
55.600        33
55.610         7
55.620        13
55.630        13
55.640         0
55.650        13
55.660         7
55.670        13
55.680        13
55.690        13
55.700         7
55.710        27
55.720         7
55.730        20
55.740        13
55.750        33
55.760        13
55.770         0
55.780        20
55.790        13
55.800        33
55.810        47
55.820         7
55.830        13
55.840        13
55.850        27
55.860        20
55.870        20
55.880         0
55.890        27
55.900         0
55.910        13
55.920        20
55.930         7
55.940        27
55.950        27
55.960        20
55.970        13
55.980        20
55.990        33
56.000        20
56.010         7
56.020        13
56.030         0
56.040         7
56.050        13
56.060        27
56.070        13
56.080         7
56.090        13
56.100        13
56.110        27
56.120        27
56.130        20
56.140        13
56.150        20
56.160        40
56.170        27
56.180         7
56.190        27
56.200         7
56.210        20
56.220        13
56.230        13
56.240        20
56.250        13
56.260        13
56.270         7
56.280        13
56.290         7
56.300        20
56.310         0
56.320        20
56.330         0
56.340         7
56.350        27
56.360        13
56.370        27
56.380        27
56.390         7
56.400        33
56.410        20
56.420        13
56.430         7
56.440        13
56.450        27
56.460         7
56.470        20
56.480        13
56.490        13
56.500         7
56.510         0
56.520        20
56.530        20
56.540         7
56.550         0
56.560        33
56.570        20
56.580        13
56.590        13
56.600        13
56.610         7
56.620        13
56.630        33
56.640        27
56.650        13
56.660        13
56.670         7
56.680        27
56.690        47
56.700        20
56.710        20
56.720         7
56.730         7
56.740        40
56.750        60
56.760        33
56.770        40
56.780         7
56.790        20
56.800        27
56.810         0
56.820         7
56.830        20
56.840         7
56.850         0
56.860        20
56.870        20
56.880        20
56.890        13
56.900        20
56.910        47
56.920         0
56.930        13
56.940         0
56.950         0
56.960         7
56.970        20
56.980        27
56.990        27
57.000        20
57.010        20
57.020        20
57.030        13
57.040        27
57.050        27
57.060         7
57.070         0
57.080         7
57.090        40
57.100         7
57.110         7
57.120         7
57.130        20
57.140         7
57.150        20
57.160        13
57.170        33
57.180         7
57.190        27
57.200         7
57.210        33
57.220        13
57.230        33
57.240         0
57.250        27
57.260        13
57.270        27
57.280        20
57.290        13
57.300        33
57.310         7
57.320        33
57.330        27
57.340        67
57.350         7
57.360        27
57.370        13
57.380        33
57.390        53
57.400        60
57.410        33
57.420        40
57.430        53
57.440        60
57.450        80
57.460       140
57.470       133
57.480       140
57.490       173
57.500       173
57.510       267
57.520       340
57.530       387
57.540       413
57.550       400
57.560       313
57.570       247
57.580       173
57.590       233
57.600       113
57.610       173
57.620       147
57.630       100
57.640       140
57.650        53
57.660       160
57.670       200
57.680       140
57.690       153
57.700       167
57.710       187
57.720       160
57.730       140
57.740       127
57.750        73
57.760        67
57.770        67
57.780        53
57.790        53
57.800        27
57.810        47
57.820        20
57.830        27
57.840        20
57.850        60
57.860        47
57.870        47
57.880        33
57.890        27
57.900        20
57.910        53
57.920        53
57.930        27
57.940        33
57.950        53
57.960        47
57.970        20
57.980        67
57.990        13
58.000        60
58.010        53
58.020        33
58.030        33
58.040        20
58.050        27
58.060        27
58.070        27
58.080        33
58.090        60
58.100        40
58.110        33
58.120        20
58.130        53
58.140        33
58.150        33
58.160        40
58.170         7
58.180        13
58.190        27
58.200        27
58.210        40
58.220        27
58.230         7
58.240        13
58.250        13
58.260        13
58.270        40
58.280        20
58.290        33
58.300        33
58.310        27
58.320        13
58.330        13
58.340        33
58.350        20
58.360         7
58.370        20
58.380        20
58.390        20
58.400        27
58.410         0
58.420        20
58.430        27
58.440        27
58.450        27
58.460        13
58.470         7
58.480         7
58.490         7
58.500         7
58.510         7
58.520        13
58.530        20
58.540        20
58.550        27
58.560        13
58.570        13
58.580        13
58.590         0
58.600         0
58.610        13
58.620         0
58.630        20
58.640         7
58.650        27
58.660         0
58.670        13
58.680        20
58.690        13
58.700         7
58.710         7
58.720        20
58.730         0
58.740        27
58.750         7
58.760         7
58.770         0
58.780         7
58.790        13
58.800        20
58.810         7
58.820        13
58.830         7
58.840         0
58.850        33
58.860        27
58.870        20
58.880         0
58.890        20
58.900        13
58.910        13
58.920         7
58.930        27
58.940        27
58.950        27
58.960        13
58.970         0
58.980        33
58.990        20
59.000        27
59.010         7
59.020         0
59.030         7
59.040        20
59.050         7
59.060        20
59.070         7
59.080        20
59.090        33
59.100        13
59.110        13
59.120        20
59.130         0
59.140        20
59.150        13
59.160        20
59.170        13
59.180         0
59.190        13
59.200         0
59.210        27
59.220        13
59.230         0
59.240        13
59.250         0
59.260        33
59.270        20
59.280        20
59.290        20
59.300        13
59.310        13
59.320        20
59.330        27
59.340         7
59.350         7
59.360        20
59.370        13
59.380        13
59.390        27
59.400        13
59.410         7
59.420         0
59.430        27
59.440        20
59.450         0
59.460        13
59.470        13
59.480        13
59.490        13
59.500        13
59.510         7
59.520        27
59.530        27
59.540        27
59.550         7
59.560        27
59.570        33
59.580        20
59.590        13
59.600        13
59.610        33
59.620         7
59.630        20
59.640         7
59.650        33
59.660        33
59.670        13
59.680        33
59.690         7
59.700         7
59.710        33
59.720         7
59.730        27
59.740        27
59.750         7
59.760        27
59.770        27
59.780         0
59.790        20
59.800        33
59.810        33
59.820        20
59.830        13
59.840        13
59.850        20
59.860        20
59.870        13
59.880        13
59.890         0
59.900        27
59.910        13
59.920         7
59.930         0
59.940        13
59.950        20
59.960        13
59.970        20
59.980        20
59.990        20
60.000         0
