20.000         0
20.010         0
20.020         0
20.030        20
20.040        53
20.050        33
20.060        33
20.070        40
20.080        27
20.090        53
20.100        27
20.110        27
20.120        53
20.130        47
20.140        27
20.150        47
20.160        53
20.170        33
20.180        40
20.190        33
20.200        53
20.210        20
20.220        60
20.230       107
20.240        33
20.250        73
20.260        60
20.270        33
20.280        73
20.290        60
20.300        27
20.310        47
20.320        20
20.330        53
20.340        13
20.350        13
20.360        67
20.370        40
20.380        40
20.390        33
20.400        87
20.410        20
20.420        33
20.430        13
20.440        60
20.450        40
20.460        53
20.470        47
20.480        53
20.490        87
20.500        40
20.510        27
20.520        67
20.530        40
20.540        40
20.550        47
20.560        20
20.570        53
20.580        53
20.590        40
20.600        67
20.610        33
20.620        47
20.630       100
20.640        40
20.650        40
20.660        33
20.670        73
20.680        33
20.690        60
20.700        80
20.710        27
20.720        33
20.730        73
20.740        60
20.750        27
20.760        80
20.770        33
20.780        27
20.790        13
20.800        93
20.810        73
20.820        60
20.830        47
20.840        47
20.850        33
20.860        60
20.870        53
20.880        80
20.890        40
20.900        47
20.910        20
20.920        40
20.930        40
20.940        27
20.950        27
20.960        27
20.970        20
20.980        27
20.990        60
21.000        67
21.010        40
21.020        67
21.030        53
21.040        67
21.050        20
21.060        60
21.070        53
21.080        47
21.090        47
21.100        27
21.110        60
21.120        60
21.130        33
21.140        53
21.150        47
21.160        40
21.170        67
21.180        47
21.190        33
21.200        67
21.210        40
21.220        33
21.230        33
21.240        67
21.250        47
21.260        67
21.270        53
21.280        67
21.290        27
21.300        53
21.310        33
21.320        13
21.330        87
21.340        47
21.350        40
21.360        47
21.370        27
21.380        40
21.390        53
21.400        40
21.410        40
21.420        80
21.430        53
21.440        73
21.450        60
21.460       107
21.470        53
21.480       100
21.490        80
21.500        53
21.510        60
21.520        80
21.530       113
21.540        80
21.550        87
21.560       153
21.570       140
21.580       133
21.590       107
21.600        80
21.610       193
21.620       147
21.630       173
21.640       160
21.650       147
21.660       227
21.670       107
21.680       200
21.690       173
21.700       233
21.710       240
21.720       213
21.730       280
21.740       220
21.750       273
21.760       160
21.770       187
21.780       140
21.790       133
21.800       160
21.810       140
21.820       100
21.830       100
21.840        80
21.850        93
21.860        67
21.870       107
21.880        87
21.890        47
21.900        53
21.910        40
21.920        80
21.930        27
21.940        40
21.950        67
21.960        80
21.970        53
21.980        67
21.990        33
22.000        40
22.010        60
22.020        53
22.030        40
22.040        53
22.050        33
22.060        53
22.070        40
22.080        60
22.090        33
22.100        60
22.110        40
22.120        73
22.130        40
22.140        40
22.150        53
22.160        67
22.170        33
22.180        20
22.190        53
22.200        67
22.210        47
22.220        33
22.230        40
22.240        27
22.250        20
22.260        53
22.270        33
22.280        40
22.290        40
22.300        20
22.310        33
22.320        53
22.330        20
22.340        33
22.350        33
22.360        27
22.370        33
22.380        27
22.390        47
22.400        27
22.410        20
22.420        47
22.430        53
22.440        60
22.450        33
22.460        33
22.470        27
22.480        47
22.490        20
22.500        73
22.510        27
22.520        33
22.530        60
22.540        20
22.550        93
22.560        33
22.570        53
22.580        20
22.590        47
22.600        27
22.610        33
22.620        40
22.630        53
22.640        80
22.650        47
22.660        27
22.670        47
22.680        40
22.690        47
22.700        27
22.710        47
22.720        40
22.730        40
22.740        47
22.750        40
22.760        47
22.770        40
22.780        27
22.790        33
22.800        60
22.810        40
22.820        53
22.830        40
22.840        47
22.850        27
22.860        20
22.870        13
22.880        20
22.890        27
22.900        60
22.910        60
22.920        27
22.930        40
22.940        53
22.950        40
22.960        53
22.970        47
22.980        33
22.990        20
23.000        33
23.010        60
23.020        20
23.030        47
23.040        40
23.050        27
23.060        40
23.070        27
23.080        40
23.090        33
23.100        47
23.110        27
23.120        47
23.130        53
23.140        47
23.150        40
23.160        40
23.170        27
23.180        33
23.190        20
23.200        87
23.210        27
23.220        33
23.230        33
23.240        13
23.250        20
23.260        40
23.270        27
23.280        20
23.290        27
23.300        67
23.310        20
23.320         7
23.330        87
23.340        47
23.350        47
23.360        40
23.370        33
23.380        47
23.390        40
23.400        33
23.410        33
23.420        33
23.430        27
23.440         7
23.450        27
23.460        40
23.470        40
23.480        33
23.490        20
23.500        73
23.510        40
23.520        40
23.530        73
23.540        40
23.550        33
23.560        20
23.570        27
23.580        47
23.590        33
23.600        20
23.610        40
23.620        53
23.630        13
23.640        40
23.650        27
23.660        27
23.670        67
23.680        53
23.690        47
23.700        20
23.710        73
23.720        33
23.730        27
23.740        13
23.750        60
23.760        47
23.770        27
23.780        27
23.790        33
23.800        40
23.810        47
23.820        60
23.830        33
23.840        20
23.850        33
23.860        47
23.870        53
23.880        47
23.890         7
23.900        47
23.910        40
23.920        20
23.930        47
23.940        33
23.950        53
23.960        33
23.970        20
23.980        40
23.990        60
24.000        33
24.010        40
24.020        47
24.030        47
24.040        40
24.050        53
24.060        20
24.070        33
24.080        47
24.090        33
24.100        27
24.110        13
24.120        40
24.130        47
24.140        27
24.150        27
24.160        20
24.170        20
24.180        67
24.190        60
24.200        27
24.210        27
24.220        47
24.230        47
24.240        27
24.250        27
24.260        47
24.270        53
24.280        33
24.290        20
24.300        33
24.310        13
24.320        20
24.330        33
24.340        40
24.350         7
24.360        40
24.370        13
24.380        47
24.390         7
24.400        27
24.410        87
24.420        47
24.430        20
24.440        20
24.450        13
24.460        27
24.470        27
24.480        27
24.490        47
24.500        47
24.510        40
24.520        73
24.530        27
24.540         7
24.550        33
24.560        73
24.570        27
24.580        20
24.590        53
24.600        47
24.610        13
24.620        53
24.630        27
24.640        40
24.650        40
24.660        27
24.670        60
24.680        60
24.690        40
24.700        27
24.710        40
24.720        47
24.730        27
24.740        40
24.750        27
24.760        33
24.770        13
24.780        27
24.790        27
24.800        20
24.810        53
24.820        27
24.830        20
24.840         7
24.850        40
24.860        40
24.870        20
24.880        20
24.890        33
24.900        27
24.910        40
24.920        20
24.930        20
24.940        47
24.950        60
24.960        20
24.970        47
24.980        47
24.990        47
25.000        33
25.010        27
25.020        47
25.030        33
25.040        33
25.050        33
25.060        40
25.070        40
25.080        73
25.090        27
25.100        13
25.110        20
25.120        40
25.130        20
25.140        20
25.150        27
25.160        47
25.170        40
25.180        60
25.190        53
25.200        80
25.210        40
25.220        40
25.230        27
25.240        40
25.250        20
25.260        27
25.270        40
25.280        20
25.290        53
25.300        27
25.310        40
25.320        27
25.330        33
25.340        27
25.350        33
25.360         7
25.370        53
25.380        27
25.390        27
25.400        53
25.410        40
25.420        40
25.430        27
25.440        40
25.450        47
25.460        33
25.470        20
25.480        20
25.490        53
25.500        33
25.510        27
25.520        40
25.530        47
25.540        60
25.550        20
25.560        40
25.570        40
25.580        87
25.590        67
25.600        53
25.610        60
25.620        40
25.630        87
25.640        67
25.650        60
25.660       107
25.670       100
25.680        60
25.690        33
25.700        67
25.710        80
25.720        40
25.730        13
25.740        67
25.750        47
25.760        20
25.770        20
25.780        40
25.790        60
25.800        27
25.810        40
25.820        33
25.830        27
25.840        40
25.850        27
25.860        20
25.870        53
25.880        40
25.890        27
25.900        33
25.910        33
25.920        73
25.930        67
25.940        33
25.950        47
25.960         7
25.970        40
25.980        40
25.990        20
26.000        40
26.010        33
26.020        47
26.030        67
26.040        20
26.050        20
26.060        33
26.070        40
26.080        60
26.090        47
26.100        20
26.110        53
26.120        27
26.130         7
26.140        13
26.150        33
26.160        13
26.170        33
26.180        27
26.190        40
26.200        27
26.210        53
26.220        53
26.230        47
26.240        33
26.250        13
26.260        40
26.270        40
26.280        33
26.290        47
26.300        33
26.310        40
26.320        33
26.330        13
26.340        40
26.350        20
26.360        33
26.370        13
26.380        27
26.390        33
26.400        47
26.410        13
26.420        53
26.430        33
26.440        33
26.450         0
26.460        53
26.470        33
26.480        33
26.490        27
26.500         0
26.510        33
26.520        33
26.530        13
26.540        47
26.550        47
26.560        33
26.570         7
26.580        40
26.590        27
26.600        33
26.610        40
26.620        40
26.630         7
26.640        33
26.650        40
26.660        33
26.670        33
26.680        13
26.690        40
26.700        13
26.710        40
26.720        33
26.730        27
26.740        47
26.750        47
26.760        40
26.770        20
26.780        33
26.790        20
26.800        33
26.810        60
26.820        27
26.830        13
26.840        33
26.850        53
26.860        13
26.870        13
26.880        33
26.890         7
26.900        33
26.910        27
26.920        40
26.930        33
26.940        33
26.950        53
26.960        33
26.970        20
26.980        13
26.990        47
27.000        33
27.010        53
27.020        47
27.030        67
27.040        60
27.050        47
27.060        40
27.070        47
27.080        47
27.090        13
27.100        33
27.110        33
27.120        27
27.130        13
27.140        27
27.150        33
27.160        20
27.170        33
27.180         7
27.190        40
27.200        20
27.210        13
27.220        67
27.230        47
27.240        27
27.250        40
27.260        27
27.270        33
27.280        20
27.290        20
27.300        27
27.310        27
27.320        13
27.330        53
27.340        40
27.350        20
27.360        20
27.370        20
27.380        13
27.390        40
27.400        33
27.410        47
27.420        27
27.430        47
27.440        60
27.450         7
27.460        20
27.470        27
27.480        47
27.490        53
27.500        13
27.510        40
27.520        53
27.530        27
27.540         0
27.550        27
27.560        40
27.570        67
27.580        40
27.590        20
27.600        40
27.610        20
27.620        13
27.630        47
27.640        40
27.650        27
27.660        13
27.670        60
27.680        27
27.690        27
27.700        40
27.710        20
27.720        33
27.730        27
27.740        20
27.750        20
27.760        33
27.770        27
27.780        53
27.790        53
27.800        73
27.810        33
27.820        20
27.830        20
27.840        53
27.850        47
27.860        60
27.870        20
27.880        47
27.890        33
27.900        13
27.910        47
27.920        33
27.930        20
27.940        20
27.950         7
27.960        33
27.970        40
27.980        13
27.990        40
28.000        47
28.010        20
28.020        73
28.030        27
28.040        60
28.050        40
28.060        13
28.070        40
28.080        40
28.090        47
28.100        33
28.110        27
28.120        13
28.130        27
28.140        93
28.150        60
28.160        33
28.170        27
28.180        33
28.190        33
28.200        47
28.210        40
28.220        47
28.230        33
28.240        33
28.250        47
28.260        27
28.270        60
28.280        53
28.290        20
28.300        40
28.310         7
28.320        13
28.330        60
28.340        27
28.350        20
28.360        13
28.370        13
28.380        33
28.390        47
28.400        20
28.410        27
28.420        40
28.430        40
28.440        27
28.450        40
28.460         0
28.470        20
28.480        47
28.490        27
28.500        20
28.510        13
28.520        47
28.530        27
28.540        33
28.550        13
28.560        40
28.570        27
28.580        20
28.590        33
28.600        20
28.610        27
28.620        27
28.630        33
28.640        40
28.650        27
28.660        13
28.670         0
28.680        53
28.690        33
28.700        40
28.710        40
28.720        40
28.730        20
28.740        27
28.750        53
28.760        20
28.770        53
28.780        20
28.790        33
28.800        47
28.810        33
28.820        27
28.830        27
28.840        40
28.850        20
28.860        33
28.870        33
28.880        33
28.890        20
28.900        40
28.910        33
28.920         7
28.930        20
28.940        20
28.950        40
28.960        47
28.970        20
28.980        20
28.990        40
29.000        27
29.010        13
29.020        33
29.030        47
29.040        27
29.050        13
29.060        53
29.070        13
29.080        47
29.090        40
29.100        53
29.110        53
29.120        53
29.130        27
29.140        53
29.150        40
29.160        33
29.170        40
29.180        33
29.190        33
29.200        13
29.210        47
29.220        40
29.230        27
29.240        33
29.250        27
29.260        33
29.270        27
29.280        53
29.290        13
29.300        33
29.310        47
29.320        27
29.330        27
29.340        33
29.350         7
29.360        40
29.370        27
29.380        33
29.390        20
29.400         0
29.410        47
29.420        13
29.430        27
29.440        53
29.450        13
29.460        27
29.470        20
29.480        40
29.490        53
29.500        33
29.510        33
29.520        27
29.530        40
29.540        20
29.550        73
29.560        53
29.570        27
29.580        27
29.590        33
29.600        33
29.610         0
29.620        27
29.630        27
29.640        40
29.650        27
29.660        27
29.670        13
29.680        27
29.690        40
29.700        27
29.710        27
29.720        27
29.730        33
29.740        40
29.750        40
29.760        40
29.770        40
29.780        27
29.790        33
29.800        47
29.810        53
29.820         0
29.830        53
29.840        40
29.850        27
29.860        33
29.870        27
29.880        40
29.890        40
29.900        27
29.910        40
29.920        53
29.930        33
29.940        13
29.950        40
29.960        27
29.970        47
29.980        20
29.990        47
30.000        60
30.010        27
30.020        47
30.030        73
30.040        47
30.050        33
30.060        40
30.070        60
30.080        20
30.090        27
30.100        47
30.110        73
30.120        40
30.130        27
30.140        73
30.150        13
30.160        73
30.170        60
30.180        60
30.190        67
30.200        67
30.210        33
30.220        67
30.230        73
30.240        40
30.250        47
30.260        47
30.270        47
30.280        53
30.290        47
30.300        47
30.310        40
30.320        53
30.330        73
30.340        40
30.350        47
30.360        53
30.370        33
30.380        73
30.390        47
30.400        73
30.410        53
30.420        67
30.430        60
30.440        67
30.450        93
30.460       140
30.470        87
30.480        87
30.490       100
30.500       167
30.510       100
30.520       133
30.530       113
30.540       180
30.550       160
30.560       240
30.570       207
30.580       173
30.590       287
30.600       367
30.610       300
30.620       260
30.630       340
30.640       400
30.650       426
30.660       440
30.670       553
30.680       493
30.690       526
30.700       666
30.710       700
30.720       840
30.730       846
30.740       986
30.750      1073
30.760      1066
30.770      1080
30.780      1100
30.790      1353
30.800      1279
30.810      1633
30.820      1539
30.830      1646
30.840      1613
30.850      1606
30.860      1633
30.870      1806
30.880      1759
30.890      1999
30.900      1786
30.910      1633
30.920      1393
30.930      1293
30.940      1286
30.950      1180
30.960      1073
30.970       880
30.980       693
30.990       686
31.000       520
31.010       520
31.020       373
31.030       387
31.040       327
31.050       253
31.060       160
31.070       213
31.080       187
31.090       147
31.100       100
31.110        87
31.120       153
31.130        93
31.140        87
31.150        60
31.160        60
31.170       100
31.180       113
31.190        87
31.200        80
31.210        67
31.220        60
31.230        73
31.240        67
31.250        47
31.260        93
31.270        73
31.280        67
31.290        40
31.300        27
31.310        80
31.320        53
31.330        53
31.340        60
31.350        80
31.360        60
31.370        20
31.380        80
31.390       107
31.400        40
31.410        47
31.420        60
31.430        67
31.440        40
31.450        27
31.460        40
31.470        73
31.480        53
31.490        80
31.500        47
31.510        27
31.520         0
31.530        33
31.540        93
31.550        67
31.560        33
31.570        40
31.580        33
31.590        53
31.600        67
31.610        47
31.620        53
31.630        27
31.640        47
31.650        40
31.660        33
31.670         7
31.680        47
31.690        20
31.700        67
31.710        33
31.720        13
31.730        53
31.740        33
31.750        47
31.760        67
31.770        33
31.780        40
31.790        33
31.800        27
31.810        33
31.820        27
31.830        33
31.840        53
31.850        27
31.860        40
31.870        40
31.880        53
31.890        47
31.900        27
31.910        33
31.920        27
31.930        47
31.940        33
31.950        53
31.960        40
31.970        53
31.980        27
31.990        27
32.000        27
32.010        27
32.020        20
32.030        40
32.040        33
32.050        33
32.060        53
32.070        27
32.080        33
32.090        53
32.100        47
32.110        40
32.120        33
32.130        20
32.140        20
32.150        13
32.160        27
32.170        33
32.180        33
32.190        20
32.200        53
32.210        40
32.220        20
32.230        13
32.240        13
32.250        47
32.260        47
32.270        53
32.280        60
32.290        40
32.300        20
32.310        40
32.320        40
32.330        20
32.340        27
32.350        40
32.360        67
32.370        27
32.380        20
32.390        40
32.400        33
32.410        27
32.420        53
32.430        40
32.440        27
32.450        13
32.460        40
32.470        60
32.480        27
32.490        33
32.500        47
32.510        40
32.520        40
32.530        33
32.540        33
32.550        40
32.560        27
32.570         7
32.580        27
32.590        67
32.600        40
32.610        47
32.620        53
32.630        33
32.640        20
32.650        27
32.660        27
32.670        20
32.680        27
32.690        27
32.700        27
32.710        20
32.720        27
32.730        13
32.740        20
32.750        53
32.760        53
32.770        53
32.780        53
32.790        40
32.800        47
32.810        27
32.820        53
32.830        33
32.840        13
32.850         7
32.860        33
32.870        33
32.880        33
32.890        33
32.900        27
32.910        33
32.920        33
32.930        40
32.940        27
32.950        40
32.960        20
32.970        20
32.980        27
32.990        13
33.000        67
33.010        20
33.020        27
33.030        33
33.040        13
33.050        20
33.060        33
33.070        13
33.080        20
33.090        20
33.100        27
33.110        33
33.120        40
33.130         7
33.140        13
33.150        27
33.160        47
33.170        33
33.180        33
33.190        60
33.200        27
33.210        20
33.220        40
33.230        27
33.240        33
33.250        60
33.260         7
33.270        27
33.280        20
33.290        27
33.300        47
33.310        33
33.320        40
33.330        40
33.340        27
33.350        20
33.360        33
33.370        40
33.380        13
33.390        20
33.400        27
33.410        13
33.420        27
33.430        33
33.440        27
33.450        27
33.460        27
33.470        13
33.480        47
33.490        27
33.500        53
33.510        20
33.520        27
33.530        20
33.540        13
33.550        27
33.560        60
33.570        20
33.580        13
33.590        60
33.600        60
33.610        20
33.620        33
33.630        80
33.640        27
33.650        67
33.660        13
33.670        27
33.680        27
33.690        27
33.700        40
33.710        13
33.720        20
33.730        33
33.740        33
33.750        13
33.760        13
33.770        33
33.780        40
33.790        33
33.800        20
33.810        33
33.820        20
33.830        27
33.840         7
33.850        20
33.860        27
33.870        33
33.880         7
33.890        40
33.900         7
33.910        20
33.920        20
33.930        47
33.940        33
33.950        33
33.960        13
33.970        53
33.980        33
33.990        13
34.000        47
34.010         7
34.020        33
34.030        60
34.040        53
34.050        27
34.060        20
34.070        33
34.080        53
34.090        13
34.100        13
34.110        13
34.120        53
34.130        27
34.140        40
34.150        40
34.160        27
34.170        27
34.180        47
34.190        40
34.200        13
34.210        20
34.220        20
34.230        27
34.240        20
34.250        20
34.260         7
34.270        20
34.280        13
34.290        60
34.300        20
34.310        27
34.320        33
34.330        20
34.340        47
34.350        27
34.360        27
34.370        27
34.380        33
34.390        33
34.400        40
34.410        33
34.420        40
34.430        33
34.440        20
34.450        33
34.460        47
34.470        47
34.480        40
34.490        40
34.500        60
34.510        20
34.520        20
34.530        53
34.540        40
34.550        13
34.560         7
34.570        33
34.580        27
34.590        20
34.600        40
34.610        27
34.620        27
34.630        13
34.640        20
34.650        33
34.660        27
34.670        13
34.680        20
34.690        20
34.700        27
34.710        33
34.720        33
34.730        33
34.740        27
34.750        47
34.760        20
34.770        53
34.780        20
34.790        27
34.800        40
34.810        20
34.820        40
34.830        20
34.840        33
34.850        47
34.860        27
34.870        20
34.880        33
34.890        60
34.900        60
34.910        20
34.920        27
34.930         7
34.940        47
34.950        47
34.960         0
34.970        47
34.980        47
34.990        40
35.000        33
35.010        20
35.020        40
35.030        40
35.040        33
35.050        13
35.060        40
35.070        40
35.080       100
35.090        67
35.100       107
35.110       133
35.120       100
35.130       140
35.140       147
35.150       153
35.160       187
35.170       160
35.180       187
35.190       233
35.200       233
35.210       233
35.220       193
35.230       153
35.240       120
35.250       127
35.260       147
35.270       133
35.280       213
35.290       100
35.300       147
35.310        80
35.320        87
35.330        40
35.340        60
35.350        40
35.360        13
35.370        40
35.380        27
35.390        40
35.400        60
35.410        33
35.420        53
35.430        20
35.440        40
35.450        53
35.460        27
35.470         0
35.480        33
35.490        27
35.500        27
35.510        40
35.520         7
35.530        13
35.540        33
35.550        13
35.560        13
35.570         7
35.580        13
35.590         7
35.600        47
35.610        40
35.620        20
35.630        40
35.640        13
35.650        53
35.660        47
35.670        27
35.680        27
35.690        27
35.700        20
35.710        33
35.720        27
35.730        27
35.740        40
35.750        40
35.760         7
35.770        27
35.780        27
35.790         0
35.800         0
35.810         7
35.820        67
35.830        47
35.840        20
35.850        27
35.860        33
35.870        13
35.880        13
35.890        20
35.900        20
35.910        47
35.920        47
35.930        33
35.940        27
35.950        20
35.960        20
35.970        40
35.980        33
35.990         7
36.000        33
36.010        20
36.020        33
36.030        33
36.040        27
36.050        27
36.060        20
36.070        27
36.080        53
36.090        27
36.100        20
36.110        33
36.120        53
36.130        20
36.140        13
36.150         7
36.160        33
36.170        33
36.180        27
36.190        33
36.200        20
36.210         7
36.220         7
36.230        20
36.240         7
36.250        33
36.260        20
36.270        33
36.280        27
36.290        27
36.300         7
36.310        33
36.320        27
36.330        13
36.340        33
36.350        47
36.360        33
36.370        27
36.380        47
36.390        40
36.400        27
36.410        20
36.420        13
36.430        20
36.440        13
36.450        13
36.460        13
36.470        20
36.480        40
36.490        27
36.500        27
36.510        40
36.520        40
36.530        33
36.540         7
36.550        20
36.560        20
36.570        53
36.580        33
36.590        20
36.600        20
36.610        20
36.620        20
36.630        13
36.640        47
36.650         7
36.660        13
36.670        20
36.680         7
36.690        13
36.700        47
36.710        20
36.720        40
36.730        13
36.740        27
36.750         7
36.760         7
36.770        33
36.780         7
36.790        47
36.800        33
36.810        20
36.820        20
36.830        13
36.840        13
36.850        33
36.860        27
36.870         7
36.880        33
36.890        33
36.900        13
36.910        33
36.920        20
36.930        27
36.940        33
36.950         7
36.960         0
36.970        20
36.980        40
36.990        13
37.000        20
37.010        27
37.020        27
37.030        40
37.040        40
37.050        27
37.060        13
37.070        47
37.080        33
37.090        27
37.100        33
37.110        27
37.120        27
37.130        40
37.140         7
37.150         7
37.160        60
37.170        13
37.180        40
37.190        20
37.200        33
37.210        40
37.220        13
37.230        33
37.240        33
37.250        27
37.260        27
37.270        40
37.280        33
37.290         7
37.300        20
37.310        20
37.320        20
37.330        40
37.340        27
37.350        20
37.360        20
37.370        13
37.380         7
37.390        27
37.400        20
37.410        20
37.420        20
37.430        20
37.440        20
37.450        47
37.460        47
37.470        33
37.480         7
37.490        20
37.500        27
37.510        33
37.520        53
37.530        20
37.540        20
37.550        27
37.560        13
37.570        20
37.580        47
37.590        27
37.600        27
37.610         7
37.620        27
37.630        20
37.640        40
37.650        40
37.660        60
37.670        27
37.680        27
37.690        33
37.700        47
37.710        27
37.720        33
37.730         7
37.740        33
37.750        33
37.760        33
37.770        20
37.780        60
37.790        60
37.800        67
37.810        93
37.820        87
37.830       100
37.840        60
37.850        87
37.860        53
37.870        60
37.880        47
37.890        47
37.900        53
37.910        80
37.920        67
37.930        80
37.940        60
37.950        53
37.960        53
37.970        87
37.980        87
37.990        87
38.000        47
38.010        87
38.020        47
38.030       100
38.040       133
38.050       127
38.060       147
38.070       173
38.080       180
38.090       140
38.100       147
38.110       173
38.120       167
38.130       100
38.140       147
38.150       167
38.160       133
38.170       140
38.180       180
38.190       193
38.200       180
38.210       173
38.220        93
38.230       187
38.240       173
38.250       107
38.260        67
38.270       113
38.280        53
38.290        60
38.300        53
38.310        40
38.320        67
38.330        60
38.340         7
38.350        80
38.360        33
38.370        33
38.380        20
38.390        33
38.400        20
38.410        40
38.420         7
38.430        20
38.440        27
38.450        27
38.460        27
38.470        33
38.480        33
38.490        20
38.500        13
38.510         7
38.520        20
38.530        20
38.540        20
38.550        33
38.560        13
38.570        20
38.580        47
38.590        47
38.600        40
38.610         0
38.620        20
38.630        27
38.640        13
38.650        20
38.660         7
38.670        20
38.680        33
38.690        33
38.700        13
38.710        20
38.720        13
38.730        33
38.740        40
38.750        13
38.760        13
38.770        47
38.780        33
38.790        20
38.800        20
38.810        20
38.820        40
38.830        20
38.840        13
38.850        13
38.860        20
38.870        20
38.880        27
38.890        13
38.900        20
38.910        27
38.920        27
38.930        13
38.940        53
38.950        27
38.960        40
38.970         7
38.980         0
38.990        47
39.000        13
39.010         7
39.020         7
39.030        27
39.040        13
39.050        13
39.060        20
39.070        47
39.080         7
39.090        47
39.100        13
39.110        27
39.120        13
39.130        27
39.140         0
39.150        13
39.160        20
39.170        13
39.180        20
39.190        27
39.200        20
39.210        20
39.220        13
39.230        20
39.240        13
39.250        13
39.260        13
39.270        13
39.280        33
39.290         7
39.300        33
39.310        33
39.320        13
39.330        13
39.340        60
39.350        33
39.360        47
39.370        13
39.380        20
39.390        40
39.400        13
39.410         7
39.420        20
39.430        20
39.440        47
39.450         7
39.460        20
39.470        40
39.480        47
39.490        27
39.500        13
39.510        33
39.520        27
39.530        27
39.540        27
39.550        33
39.560        20
39.570        40
39.580        20
39.590        40
39.600        40
39.610        20
39.620        13
39.630        47
39.640        13
39.650        20
39.660        20
39.670        40
39.680        40
39.690        33
39.700         7
39.710        20
39.720         7
39.730         0
39.740        47
39.750        47
39.760        27
39.770        40
39.780        20
39.790        40
39.800        20
39.810        27
39.820         7
39.830        27
39.840        33
39.850        13
39.860        13
39.870        27
39.880        40
39.890         7
39.900         0
39.910         7
39.920        13
39.930        60
39.940        27
39.950        27
39.960        27
39.970        20
39.980        13
39.990        20
40.000        13
40.010        20
40.020        33
40.030        40
40.040        33
40.050        27
40.060        47
40.070         7
40.080         7
40.090        27
40.100        13
40.110         7
40.120        33
40.130        13
40.140         7
40.150        27
40.160        33
40.170        27
40.180        13
40.190        27
40.200        27
40.210        47
40.220        20
40.230         0
40.240         7
40.250        13
40.260        13
40.270        20
40.280         7
40.290        20
40.300        20
40.310        13
40.320        27
40.330        13
40.340        27
40.350        27
40.360        33
40.370         7
40.380        27
40.390         0
40.400        40
40.410        33
40.420        33
40.430        27
40.440        27
40.450        20
40.460        13
40.470         7
40.480        13
40.490        20
40.500        33
40.510         7
40.520        33
40.530        20
40.540         7
40.550        27
40.560        27
40.570        20
40.580        13
40.590        33
40.600        40
40.610        13
40.620        60
40.630         7
40.640        20
40.650        13
40.660         7
40.670        27
40.680        20
40.690        20
40.700        20
40.710        27
40.720        27
40.730        13
40.740        13
40.750        13
40.760         7
40.770        20
40.780        33
40.790        20
40.800        33
40.810        33
40.820        13
40.830        13
40.840        53
40.850        20
40.860        13
40.870        47
40.880         7
40.890        20
40.900        13
40.910        13
40.920        20
40.930        27
40.940        27
40.950         7
40.960        27
40.970        13
40.980        20
40.990        13
41.000        33
41.010        20
41.020        13
41.030        27
41.040        33
41.050         0
41.060        20
41.070        27
41.080        53
41.090         7
41.100         7
41.110        47
41.120        27
41.130        27
41.140        40
41.150         7
41.160        13
41.170         7
41.180         7
41.190        13
41.200        20
41.210        13
41.220        27
41.230        60
41.240        27
41.250        27
41.260        20
41.270        13
41.280        20
41.290        27
41.300        20
41.310         7
41.320        20
41.330        27
41.340        27
41.350        27
41.360        27
41.370        40
41.380        20
41.390         7
41.400        13
41.410        27
41.420        47
41.430        13
41.440        60
41.450        20
41.460         7
41.470        20
41.480        33
41.490        13
41.500        27
41.510        47
41.520         0
41.530        20
41.540        40
41.550        33
41.560        27
41.570         7
41.580         7
41.590        33
41.600        33
41.610        33
41.620        27
41.630        47
41.640        33
41.650        47
41.660        47
41.670        27
41.680        47
41.690        47
41.700        87
41.710        67
41.720        87
41.730        73
41.740        27
41.750        53
41.760        40
41.770        40
41.780        67
41.790        53
41.800        53
41.810        33
41.820        47
41.830        67
41.840        40
41.850        53
41.860        47
41.870        33
41.880        13
41.890        20
41.900        20
41.910         0
41.920        33
41.930        33
41.940        20
41.950        13
41.960        27
41.970         7
41.980        20
41.990        27
42.000         7
42.010        27
42.020        13
42.030        27
42.040        60
42.050        13
42.060        27
42.070        20
42.080        40
42.090        33
42.100        20
42.110        20
42.120        20
42.130        20
42.140        40
42.150        27
42.160        20
42.170         7
42.180         0
42.190         7
42.200        67
42.210        33
42.220        40
42.230        20
42.240        13
42.250        40
42.260        33
42.270        27
42.280        33
42.290        27
42.300        13
42.310        33
42.320        20
42.330        13
42.340        20
42.350        33
42.360        13
42.370        33
42.380        53
42.390        20
42.400        53
42.410        20
42.420        13
42.430         7
42.440        27
42.450        20
42.460        20
42.470        40
42.480        13
42.490        33
42.500        20
42.510        67
42.520        13
42.530        13
42.540        47
42.550        33
42.560        27
42.570        20
42.580        33
42.590        13
42.600        20
42.610        27
42.620        20
42.630        13
42.640        27
42.650        33
42.660        20
42.670         7
42.680        40
42.690        20
42.700        67
42.710         7
42.720        40
42.730        27
42.740        20
42.750        33
42.760        27
42.770        40
42.780        27
42.790        27
42.800        40
42.810        20
42.820        13
42.830        47
42.840        20
42.850        33
42.860        27
42.870        40
42.880        53
42.890        40
42.900        13
42.910        53
42.920        47
42.930        27
42.940        13
42.950        20
42.960        60
42.970        33
42.980        20
42.990        20
43.000        13
43.010        40
43.020        20
43.030        13
43.040        33
43.050        20
43.060        20
43.070        33
43.080        60
43.090        53
43.100        53
43.110        33
43.120        60
43.130        20
43.140        33
43.150        33
43.160        27
43.170        40
43.180        20
43.190        20
43.200        20
43.210        20
43.220        27
43.230        20
43.240        33
43.250        67
43.260        53
43.270        53
43.280        60
43.290        33
43.300        33
43.310        40
43.320        40
43.330       107
43.340       127
43.350        53
43.360        73
43.370       133
43.380        80
43.390        73
43.400        80
43.410        33
43.420       120
43.430        33
43.440        93
43.450        80
43.460        67
43.470        80
43.480        60
43.490        60
43.500        73
43.510        67
43.520       127
43.530        67
43.540        87
43.550        53
43.560        60
43.570        80
43.580        27
43.590        60
43.600        40
43.610        73
43.620        73
43.630       100
43.640        53
43.650        87
43.660       100
43.670        93
43.680        67
43.690       113
43.700        93
43.710        80
43.720        80
43.730        67
43.740       107
43.750       107
43.760       120
43.770        87
43.780       147
43.790       113
43.800       127
43.810       127
43.820       167
43.830        80
43.840       180
43.850       133
43.860       127
43.870       167
43.880       200
43.890       187
43.900       213
43.910       233
43.920       280
43.930       273
43.940       307
43.950       287
43.960       293
43.970       280
43.980       293
43.990       446
44.000       300
44.010       307
44.020       486
44.030       400
44.040       553
44.050       353
44.060       520
44.070       453
44.080       513
44.090       593
44.100       540
44.110       660
44.120       706
44.130       620
44.140       700
44.150       660
44.160       640
44.170       673
44.180       786
44.190       586
44.200       773
44.210       746
44.220       860
44.230       860
44.240       833
44.250       820
44.260       846
44.270       800
44.280       826
44.290       713
44.300       780
44.310       786
44.320       733
44.330       780
44.340       566
44.350       633
44.360       720
44.370       613
44.380       593
44.390       553
44.400       493
44.410       413
44.420       380
44.430       333
44.440       373
44.450       380
44.460       273
44.470       260
44.480       213
44.490       220
44.500       167
44.510       147
44.520       147
44.530       153
44.540       153
44.550       100
44.560       113
44.570       113
44.580        93
44.590       127
44.600       127
44.610        60
44.620        87
44.630        67
44.640        40
44.650        40
44.660       100
44.670        47
44.680        53
44.690        47
44.700        60
44.710        40
44.720        27
44.730        73
44.740        53
44.750        27
44.760        60
44.770        67
44.780        60
44.790        40
44.800         7
44.810        20
44.820        33
44.830        40
44.840        40
44.850        47
44.860        27
44.870        40
44.880        40
44.890        27
44.900        60
44.910        27
44.920        40
44.930        27
44.940        40
44.950        40
44.960        73
44.970        60
44.980        20
44.990        27
45.000        40
45.010        13
45.020        47
45.030        67
45.040        40
45.050        53
45.060        47
45.070        73
45.080        20
45.090        40
45.100        40
45.110        27
45.120        20
45.130        20
45.140        13
45.150        33
45.160        33
45.170        40
45.180        33
45.190        40
45.200        27
45.210        33
45.220        60
45.230        27
45.240        40
45.250        47
45.260        20
45.270        33
45.280        20
45.290        33
45.300        53
45.310        13
45.320         7
45.330        20
45.340        13
45.350        20
45.360         0
45.370        40
45.380        20
45.390        20
45.400        27
45.410        33
45.420        40
45.430        20
45.440        47
45.450        40
45.460        13
45.470        47
45.480        33
45.490        20
45.500        33
45.510        47
45.520        20
45.530        13
45.540         7
45.550        60
45.560        20
45.570        27
45.580        13
45.590        33
45.600        33
45.610        20
45.620         7
45.630         7
45.640        13
45.650        20
45.660        53
45.670        40
45.680        20
45.690        13
45.700        27
45.710        40
45.720        27
45.730        20
45.740        53
45.750        33
45.760        20
45.770        33
45.780        27
45.790        53
45.800        40
45.810        40
45.820        20
45.830        13
45.840         7
45.850        53
45.860        20
45.870        27
45.880        47
45.890        27
45.900        20
45.910        13
45.920         7
45.930        27
45.940        20
45.950        40
45.960        20
45.970        47
45.980        33
45.990         7
46.000        33
46.010        27
46.020        33
46.030        20
46.040        33
46.050        20
46.060        20
46.070        13
46.080        20
46.090        60
46.100        33
46.110        27
46.120         0
46.130        27
46.140        13
46.150        40
46.160        20
46.170        20
46.180        13
46.190        40
46.200        20
46.210        20
46.220        20
46.230        13
46.240        27
46.250        20
46.260        20
46.270        20
46.280        27
46.290        27
46.300        20
46.310        33
46.320        53
46.330        20
46.340         0
46.350         7
46.360        40
46.370        13
46.380        27
46.390        27
46.400        27
46.410        33
46.420        33
46.430        33
46.440        13
46.450        20
46.460        13
46.470        13
46.480        13
46.490        33
46.500        20
46.510        40
46.520        47
46.530        20
46.540         7
46.550        20
46.560        60
46.570        13
46.580        53
46.590        33
46.600        20
46.610        33
46.620        13
46.630        27
46.640        27
46.650        33
46.660        27
46.670        20
46.680         7
46.690        47
46.700        40
46.710        47
46.720        20
46.730        33
46.740        20
46.750        20
46.760        20
46.770         0
46.780        33
46.790        40
46.800        13
46.810        53
46.820        13
46.830        27
46.840        27
46.850        20
46.860        13
46.870        40
46.880        13
46.890        27
46.900         7
46.910        33
46.920        13
46.930        13
46.940        27
46.950        27
46.960        33
46.970        13
46.980        40
46.990        27
47.000        33
47.010        47
47.020        27
47.030         7
47.040        33
47.050        33
47.060        27
47.070        20
47.080        13
47.090        13
47.100        13
47.110         7
47.120         0
47.130         7
47.140        13
47.150        53
47.160         7
47.170        20
47.180        33
47.190        40
47.200        27
47.210        20
47.220        13
47.230        20
47.240        20
47.250        13
47.260        13
47.270        60
47.280        13
47.290        13
47.300        40
47.310         7
47.320        20
47.330         7
47.340        20
47.350        13
47.360        27
47.370        13
47.380        20
47.390        27
47.400        13
47.410        13
47.420        13
47.430        20
47.440        33
47.450        13
47.460        20
47.470        27
47.480        13
47.490        33
47.500        40
47.510        27
47.520         7
47.530        13
47.540        20
47.550        27
47.560        13
47.570        13
47.580        20
47.590        13
47.600        20
47.610        40
47.620        33
47.630        13
47.640         7
47.650        60
47.660        13
47.670        20
47.680        27
47.690         7
47.700        27
47.710         7
47.720        27
47.730        40
47.740        20
47.750        40
47.760        27
47.770        20
47.780        33
47.790        40
47.800         7
47.810         7
47.820        20
47.830        20
47.840        33
47.850        27
47.860        13
47.870        13
47.880        40
47.890        20
47.900        20
47.910        20
47.920        27
47.930        33
47.940         7
47.950        20
47.960         0
47.970        27
47.980        13
47.990        20
48.000         0
48.010        20
48.020        13
48.030        13
48.040        33
48.050        27
48.060        40
48.070        13
48.080        33
48.090        20
48.100        13
48.110        13
48.120        27
48.130        27
48.140         0
48.150        40
48.160        40
48.170        13
48.180        33
48.190        13
48.200        13
48.210        33
48.220        27
48.230        13
48.240        13
48.250        20
48.260        33
48.270        27
48.280         7
48.290        20
48.300        13
48.310         7
48.320        20
48.330        33
48.340        13
48.350         7
48.360        27
48.370        33
48.380         7
48.390        13
48.400        27
48.410        33
48.420        27
48.430        27
48.440         7
48.450         7
48.460        13
48.470        13
48.480        33
48.490         7
48.500        40
48.510        27
48.520        20
48.530        13
48.540         7
48.550         7
48.560        33
48.570        33
48.580        13
48.590        33
48.600        13
48.610         7
48.620         7
48.630         7
48.640         7
48.650        13
48.660        27
48.670        27
48.680         7
48.690        20
48.700         7
48.710         7
48.720        27
48.730        40
48.740        47
48.750         7
48.760        47
48.770        20
48.780        40
48.790        20
48.800        20
48.810        27
48.820         0
48.830        27
48.840         7
48.850        20
48.860        40
48.870         7
48.880        27
48.890        27
48.900        27
48.910        20
48.920         7
48.930        27
48.940        20
48.950        13
48.960        20
48.970        27
48.980        13
48.990        20
49.000         0
49.010        13
49.020        33
49.030        13
49.040        40
49.050        13
49.060        27
49.070         0
49.080        27
49.090        13
49.100        47
49.110        20
49.120        27
49.130        20
49.140        27
49.150        13
49.160         0
49.170        47
49.180        33
49.190        27
49.200        53
49.210        47
49.220         7
49.230        13
49.240        27
49.250        20
49.260        20
49.270        20
49.280         0
49.290        20
49.300         7
49.310        40
49.320        13
49.330         7
49.340        40
49.350        20
49.360        20
49.370        27
49.380         7
49.390        47
49.400        33
49.410        13
49.420        40
49.430        13
49.440        20
49.450        20
49.460        13
49.470        13
49.480        13
49.490        47
49.500        27
49.510         7
49.520        27
49.530        13
49.540        13
49.550        20
49.560        27
49.570        13
49.580         7
49.590        27
49.600        20
49.610        60
49.620        13
49.630        13
49.640        27
49.650        20
49.660         0
49.670        27
49.680        27
49.690        13
49.700        20
49.710        27
49.720        13
49.730         7
49.740        13
49.750        27
49.760        13
49.770         7
49.780         7
49.790        13
49.800        13
49.810        33
49.820         0
49.830        13
49.840        27
49.850        20
49.860        27
49.870        33
49.880        53
49.890        33
49.900        27
49.910        20
49.920        20
49.930        40
49.940         7
49.950        40
49.960        13
49.970        20
49.980         7
49.990         0
50.000        13
50.010        13
50.020        33
50.030        27
50.040         7
50.050        13
50.060        27
50.070        13
50.080        20
50.090        13
50.100        33
50.110         7
50.120        20
50.130        20
50.140        20
50.150        13
50.160        13
50.170        13
50.180         7
50.190         7
50.200        13
50.210        13
50.220        20
50.230        33
50.240        13
50.250        20
50.260        20
50.270        20
50.280         7
50.290        13
50.300        20
50.310        27
50.320        33
50.330        33
50.340        20
50.350        13
50.360        20
50.370         0
50.380         7
50.390        13
50.400        27
50.410        13
50.420         0
50.430         7
50.440        13
50.450        20
50.460        13
50.470         7
50.480         7
50.490         7
50.500        27
50.510         7
50.520        13
50.530        20
50.540        13
50.550        13
50.560        20
50.570        13
50.580        20
50.590        13
50.600        27
50.610        20
50.620        13
50.630        27
50.640        27
50.650        27
50.660         7
50.670         0
50.680        13
50.690        13
50.700        20
50.710         0
50.720        27
50.730         7
50.740        13
50.750         0
50.760        40
50.770        13
50.780         0
50.790        27
50.800        13
50.810        20
50.820        20
50.830        27
50.840        13
50.850         0
50.860        13
50.870        20
50.880        13
50.890         7
50.900         7
50.910        13
50.920         0
50.930         7
50.940        40
50.950        20
50.960        40
50.970        13
50.980        20
50.990        13
51.000        20
51.010         7
51.020        13
51.030        20
51.040        20
51.050        40
51.060        20
51.070         7
51.080        47
51.090         7
51.100        27
51.110        27
51.120        13
51.130         7
51.140         0
51.150        27
51.160        27
51.170         7
51.180        40
51.190        13
51.200        13
51.210        27
51.220        20
51.230        27
51.240        13
51.250        27
51.260        20
51.270         7
51.280        27
51.290        20
51.300        27
51.310        20
51.320         7
51.330        27
51.340        47
51.350        13
51.360        40
51.370        13
51.380         7
51.390         7
51.400        27
51.410        13
51.420         7
51.430        20
51.440        33
51.450        20
51.460         7
51.470        20
51.480        13
51.490        13
51.500         7
51.510        20
51.520        27
51.530         7
51.540        13
51.550        13
51.560         7
51.570        53
51.580        27
51.590        27
51.600         7
51.610        53
51.620         7
51.630        40
51.640        33
51.650        13
51.660         0
51.670         7
51.680         0
51.690        33
51.700         0
51.710         7
51.720        33
51.730        13
51.740        20
51.750        13
51.760        27
51.770        27
51.780        33
51.790         0
51.800         7
51.810         7
51.820        27
51.830        27
51.840        13
51.850        13
51.860        20
51.870         7
51.880        13
51.890        47
51.900        20
51.910        13
51.920         7
51.930         0
51.940        20
51.950        27
51.960        27
51.970        27
51.980        33
51.990        13
52.000        13
52.010        13
52.020        20
52.030        27
52.040        13
52.050        13
52.060        13
52.070         7
52.080        13
52.090         7
52.100         7
52.110        33
52.120        27
52.130        27
52.140        27
52.150        27
52.160        27
52.170        13
52.180        27
52.190         0
52.200        20
52.210        40
52.220         0
52.230        13
52.240         0
52.250        33
52.260        40
52.270        13
52.280        33
52.290         7
52.300        47
52.310        13
52.320         7
52.330        20
52.340         7
52.350        13
52.360        27
52.370        13
52.380        13
52.390        13
52.400         7
52.410        20
52.420        20
52.430        40
52.440        33
52.450         7
52.460        20
52.470        27
52.480        13
52.490        33
52.500        33
52.510        33
52.520        33
52.530        20
52.540        27
52.550        53
52.560        73
52.570        87
52.580       120
52.590        60
52.600        80
52.610        53
52.620       107
52.630        67
52.640        20
52.650        87
52.660        80
52.670        47
52.680        40
52.690        20
52.700        33
52.710        60
52.720        53
52.730        47
52.740        80
52.750        67
52.760        73
52.770        73
52.780        87
52.790        40
52.800        20
52.810        33
52.820        13
52.830        33
52.840         7
52.850         7
52.860        40
52.870         7
52.880        20
52.890        33
52.900        33
52.910        20
52.920        20
52.930        27
52.940        27
52.950        13
52.960        33
52.970        20
52.980         7
52.990        40
53.000        60
53.010        33
53.020        60
53.030        13
53.040         7
53.050        13
53.060        27
53.070        20
53.080        20
53.090         0
53.100        20
53.110        13
53.120        13
53.130        13
53.140         7
53.150         7
53.160         7
53.170        53
53.180        40
53.190        13
53.200        27
53.210        13
53.220        13
53.230         7
53.240        20
53.250        20
53.260        27
53.270        13
53.280        13
53.290        13
53.300        13
53.310        27
53.320        33
53.330        13
53.340        13
53.350        27
53.360         7
53.370        33
53.380        20
53.390        27
53.400        13
53.410        13
53.420        20
53.430        33
53.440        27
53.450         7
53.460        13
53.470         7
53.480        13
53.490        47
53.500        13
53.510         7
53.520        13
53.530         0
53.540         7
53.550        20
53.560        20
53.570        27
53.580        13
53.590        13
53.600        20
53.610        13
53.620         7
53.630        47
53.640        13
53.650        13
53.660         7
53.670         0
53.680        27
53.690         7
53.700        27
53.710        33
53.720         0
53.730        13
53.740         0
53.750        20
53.760         7
53.770        20
53.780         7
53.790        27
53.800         7
53.810         0
53.820         7
53.830        20
53.840        13
53.850         7
53.860         7
53.870        20
53.880        20
53.890        27
53.900        33
53.910         0
53.920        20
53.930         7
53.940        13
53.950        20
53.960        27
53.970        27
53.980        13
53.990         7
54.000        20
54.010        47
54.020         7
54.030        20
54.040        53
54.050        20
54.060        13
54.070         7
54.080        20
54.090        13
54.100        13
54.110         7
54.120        13
54.130        20
54.140        13
54.150        13
54.160        20
54.170        20
54.180        13
54.190        20
54.200        27
54.210        20
54.220        27
54.230        27
54.240         7
54.250        27
54.260        13
54.270        20
54.280        20
54.290        20
54.300        13
54.310        20
54.320        20
54.330        47
54.340         7
54.350        27
54.360        27
54.370        27
54.380        40
54.390        20
54.400        27
54.410         7
54.420         0
54.430        13
54.440        27
54.450        27
54.460        20
54.470        40
54.480        67
54.490        27
54.500        53
54.510        27
54.520        27
54.530        40
54.540        67
54.550        33
54.560        47
54.570        20
54.580        33
54.590        47
54.600        27
54.610        27
54.620        60
54.630        33
54.640        33
54.650        53
54.660        27
54.670        40
54.680        53
54.690        33
54.700        47
54.710        80
54.720        87
54.730        87
54.740        33
54.750        73
54.760        93
54.770        60
54.780       100
54.790       113
54.800        40
54.810       100
54.820       107
54.830        93
54.840       100
54.850       147
54.860       127
54.870       113
54.880       107
54.890       100
54.900       167
54.910       180
54.920       107
54.930       247
54.940       133
54.950       180
54.960       200
54.970       187
54.980       113
54.990       147
55.000       153
55.010       147
55.020       120
55.030       147
55.040        67
55.050       120
55.060       127
55.070       100
55.080       107
55.090        80
55.100        67
55.110        53
55.120        67
55.130        67
55.140       107
55.150        73
55.160        93
55.170        67
55.180        67
55.190        20
55.200        40
55.210        67
55.220        40
55.230        20
55.240        47
55.250        20
55.260        53
55.270        13
55.280        27
55.290        27
55.300        40
55.310        20
55.320        27
55.330        20
55.340        27
55.350        13
55.360        53
55.370        20
55.380        27
55.390        13
55.400        27
55.410        13
55.420        40
55.430        20
55.440        53
55.450        13
55.460        27
55.470        13
55.480        20
55.490        27
55.500         0
55.510         7
55.520        20
55.530        13
55.540        13
55.550        13
55.560        13
55.570        33
55.580         7
55.590        13
55.600        27
55.610        20
55.620        13
55.630        13
55.640         7
55.650        20
55.660        20
55.670        27
55.680        33
55.690        33
55.700        13
55.710        27
55.720         7
55.730        27
55.740        13
55.750        20
55.760        20
55.770        27
55.780        27
55.790         0
55.800        33
55.810        27
55.820        13
55.830         7
55.840        33
55.850        27
55.860        13
55.870        33
55.880        27
55.890        20
55.900        20
55.910        13
55.920        13
55.930        20
55.940         7
55.950        13
55.960        13
55.970        13
55.980        13
55.990        40
56.000         7
56.010         7
56.020        27
56.030        40
56.040         7
56.050         7
56.060         0
56.070        13
56.080         7
56.090        13
56.100        13
56.110         7
56.120         7
56.130        13
56.140        33
56.150        53
56.160        13
56.170         7
56.180        40
56.190        53
56.200        13
56.210        13
56.220        13
56.230        20
56.240         0
56.250         7
56.260        27
56.270         7
56.280        40
56.290        13
56.300         7
56.310        13
56.320         7
56.330        20
56.340        27
56.350        20
56.360        20
56.370        13
56.380        20
56.390        13
56.400        27
56.410        13
56.420        20
56.430        33
56.440         0
56.450        27
56.460        13
56.470         7
56.480        27
56.490         7
56.500        13
56.510         7
56.520        53
56.530         7
56.540        13
56.550        13
56.560         0
56.570        20
56.580         7
56.590        13
56.600        13
56.610        20
56.620        20
56.630        20
56.640        33
56.650        13
56.660         0
56.670        33
56.680        13
56.690        13
56.700        20
56.710        13
56.720        13
56.730        27
56.740        20
56.750        40
56.760        20
56.770        20
56.780        13
56.790        27
56.800        13
56.810        13
56.820         7
56.830        13
56.840        27
56.850        20
56.860        13
56.870         0
56.880        20
56.890        20
56.900         7
56.910         0
56.920         0
56.930        20
56.940         0
56.950        20
56.960         0
56.970        13
56.980        13
56.990         7
57.000        27
57.010        20
57.020        13
57.030        13
57.040        20
57.050         7
57.060        20
57.070        13
57.080        13
57.090        20
57.100        13
57.110        13
57.120        27
57.130        33
57.140        40
57.150        13
57.160        13
57.170        33
57.180        13
57.190        20
57.200        13
57.210         0
57.220        13
57.230        13
57.240        40
57.250         7
57.260        13
57.270        33
57.280        20
57.290        20
57.300        53
57.310        33
57.320        53
57.330        20
57.340        33
57.350         7
57.360        13
57.370        60
57.380        33
57.390        33
57.400        47
57.410        40
57.420        40
57.430        40
57.440        40
57.450        60
57.460        40
57.470        73
57.480        80
57.490        93
57.500       173
57.510       107
57.520       107
57.530       207
57.540       193
57.550       160
57.560       133
57.570       160
57.580       147
57.590       140
57.600       100
57.610        67
57.620        47
57.630        67
57.640        87
57.650        73
57.660       100
57.670       120
57.680       100
57.690       107
57.700        87
57.710        53
57.720       120
57.730       120
57.740        73
57.750        47
57.760        60
57.770        60
57.780        20
57.790        20
57.800         7
57.810        13
57.820        20
57.830        20
57.840         7
57.850        27
57.860        13
57.870        13
57.880        40
57.890         0
57.900        20
57.910         7
57.920        13
57.930        13
57.940        27
57.950        33
57.960        13
57.970        13
57.980        13
57.990         0
58.000        27
58.010        20
58.020        27
58.030        13
58.040        33
58.050         7
58.060         7
58.070        27
58.080        27
58.090        20
58.100         7
58.110        20
58.120        20
58.130         0
58.140        27
58.150        13
58.160        13
58.170         0
58.180        20
58.190        20
58.200        13
58.210         7
58.220         7
58.230        20
58.240        27
58.250        20
58.260         7
58.270         7
58.280        20
58.290        20
58.300        13
58.310        20
58.320         7
58.330         0
58.340         7
58.350         0
58.360        20
58.370         7
58.380        20
58.390        13
58.400        13
58.410        27
58.420        27
58.430         0
58.440        27
58.450         7
58.460         7
58.470        13
58.480        13
58.490         7
58.500         7
58.510         0
58.520        27
58.530        27
58.540        13
58.550        20
58.560         7
58.570        13
58.580        20
58.590         7
58.600        20
58.610        20
58.620         7
58.630        27
58.640        13
58.650         0
58.660         7
58.670        33
58.680        13
58.690        33
58.700         7
58.710        13
58.720        13
58.730        33
58.740        27
58.750         7
58.760         7
58.770         7
58.780        20
58.790        13
58.800         7
58.810         7
58.820        27
58.830        13
58.840        13
58.850        13
58.860         0
58.870        13
58.880        33
58.890        13
58.900        13
58.910        13
58.920        20
58.930        13
58.940         7
58.950         0
58.960         7
58.970         0
58.980        27
58.990        20
59.000        20
59.010        33
59.020        27
59.030        40
59.040        27
59.050        13
59.060        20
59.070        20
59.080         7
59.090        13
59.100         0
59.110         7
59.120         0
59.130        13
59.140        20
59.150         7
59.160         0
59.170        13
59.180        27
59.190        13
59.200         7
59.210         7
59.220         7
59.230         7
59.240         7
59.250        13
59.260         7
59.270        20
59.280        27
59.290        27
59.300        27
59.310        27
59.320        27
59.330        47
59.340        13
59.350         7
59.360        13
59.370         7
59.380        13
59.390        13
59.400        13
59.410        33
59.420         7
59.430        13
59.440        27
59.450         0
59.460        40
59.470        13
59.480         7
59.490        33
59.500        20
59.510         7
59.520        20
59.530         7
59.540        13
59.550         7
59.560        13
59.570         0
59.580        20
59.590         7
59.600        20
59.610        20
59.620         0
59.630        27
59.640         7
59.650         7
59.660         7
59.670        20
59.680        20
59.690         7
59.700        20
59.710        33
59.720        13
59.730        20
59.740        33
59.750        13
59.760         7
59.770        33
59.780        20
59.790        13
59.800        20
59.810         0
59.820        27
59.830        33
59.840        40
59.850        20
59.860         7
59.870        13
59.880        13
59.890        27
59.900         7
59.910         0
59.920         7
59.930        13
59.940         7
59.950        13
59.960        27
59.970         7
59.980         0
59.990        20
60.000        13
