20.000        53
20.010        40
20.020        27
20.030        40
20.040        27
20.050        47
20.060        40
20.070        60
20.080         7
20.090        27
20.100        53
20.110        47
20.120        47
20.130        27
20.140        53
20.150        40
20.160        67
20.170        20
20.180        53
20.190        47
20.200        40
20.210        27
20.220        53
20.230        67
20.240        27
20.250        47
20.260        47
20.270        73
20.280        87
20.290        20
20.300        33
20.310        27
20.320        40
20.330        53
20.340        47
20.350        27
20.360        47
20.370        33
20.380        40
20.390        47
20.400        20
20.410        80
20.420        33
20.430        33
20.440        40
20.450        33
20.460        40
20.470        53
20.480        53
20.490        27
20.500        33
20.510        40
20.520        40
20.530        47
20.540        47
20.550        60
20.560        40
20.570        53
20.580        27
20.590        53
20.600        53
20.610        33
20.620        27
20.630        13
20.640        33
20.650        67
20.660        40
20.670        40
20.680        20
20.690        33
20.700        53
20.710        40
20.720        53
20.730        40
20.740        60
20.750        33
20.760        40
20.770        53
20.780        67
20.790        40
20.800        20
20.810        40
20.820        47
20.830        60
20.840        33
20.850        33
20.860        13
20.870        33
20.880        40
20.890        33
20.900        27
20.910        33
20.920        20
20.930        33
20.940        27
20.950        40
20.960         7
20.970        40
20.980        80
20.990        20
21.000        53
21.010        20
21.020        13
21.030        33
21.040        60
21.050        27
21.060        20
21.070        20
21.080        13
21.090        60
21.100        27
21.110        53
21.120        47
21.130        47
21.140        27
21.150        53
21.160        20
21.170        33
21.180        40
21.190        27
21.200        13
21.210        27
21.220        33
21.230        40
21.240        40
21.250        27
21.260        47
21.270        53
21.280        33
21.290        47
21.300        20
21.310        40
21.320        47
21.330        33
21.340        27
21.350        27
21.360        40
21.370        47
21.380        20
21.390        33
21.400        27
21.410        53
21.420        60
21.430        47
21.440        47
21.450        40
21.460        40
21.470        20
21.480        47
21.490        47
21.500        33
21.510        27
21.520        47
21.530        53
21.540        47
21.550        80
21.560        20
21.570        33
21.580        20
21.590        47
21.600        33
21.610        40
21.620        40
21.630        40
21.640        27
21.650        33
21.660        20
21.670        53
21.680        40
21.690        40
21.700        40
21.710        20
21.720        20
21.730        60
21.740        13
21.750        80
21.760        40
21.770         7
21.780        33
21.790        20
21.800        40
21.810        47
21.820        33
21.830        47
21.840        53
21.850        33
21.860        47
21.870        47
21.880        20
21.890        47
21.900        60
21.910        47
21.920        40
21.930        60
21.940        53
21.950        67
21.960        53
21.970        27
21.980        47
21.990        47
22.000        53
22.010        33
22.020        33
22.030        40
22.040        33
22.050        47
22.060        33
22.070        33
22.080        20
22.090        20
22.100        20
22.110        20
22.120        40
22.130        53
22.140        40
22.150        53
22.160        33
22.170        40
22.180        27
22.190        20
22.200        40
22.210        40
22.220        40
22.230        53
22.240        27
22.250        27
22.260        53
22.270        40
22.280        67
22.290        40
22.300        47
22.310        67
22.320        40
22.330        33
22.340        73
22.350        60
22.360        47
22.370        73
22.380        33
22.390        67
22.400        67
22.410        53
22.420        47
22.430        40
22.440        47
22.450        47
22.460        33
22.470        13
22.480        33
22.490        67
22.500       107
22.510       133
22.520        47
22.530        80
22.540        80
22.550        87
22.560        73
22.570        93
22.580       173
22.590       167
22.600       127
22.610       200
22.620       207
22.630       260
22.640       380
22.650       367
22.660       413
22.670       513
22.680       426
22.690       400
22.700       480
22.710       473
22.720       466
22.730       413
22.740       400
22.750       420
22.760       287
22.770       260
22.780       287
22.790       220
22.800       247
22.810       113
22.820        80
22.830        73
22.840       127
22.850       120
22.860        80
22.870       107
22.880        53
22.890        40
22.900        53
22.910        93
22.920        67
22.930        80
22.940        47
22.950        60
22.960        13
22.970        60
22.980        33
22.990        20
23.000        33
23.010        47
23.020        33
23.030        60
23.040        67
23.050        47
23.060        33
23.070        60
23.080        40
23.090        20
23.100        80
23.110        27
23.120        20
23.130        47
23.140        40
23.150         7
23.160        40
23.170        47
23.180        20
23.190        13
23.200        53
23.210        47
23.220        33
23.230        27
23.240        27
23.250         7
23.260        40
23.270        47
23.280        13
23.290        27
23.300        40
23.310        47
23.320        67
23.330        33
23.340        20
23.350        53
23.360        27
23.370        53
23.380        40
23.390        67
23.400        27
23.410        33
23.420        33
23.430        53
23.440        27
23.450        40
23.460        33
23.470        27
23.480        53
23.490        47
23.500        80
23.510        13
23.520        27
23.530        33
23.540        27
23.550        60
23.560        47
23.570        40
23.580        53
23.590        47
23.600        40
23.610        73
23.620        13
23.630        27
23.640        33
23.650        20
23.660        33
23.670        47
23.680        33
23.690        33
23.700        33
23.710        27
23.720        53
23.730        27
23.740        60
23.750        47
23.760        27
23.770        33
23.780        47
23.790        20
23.800        73
23.810        33
23.820        27
23.830        40
23.840        33
23.850        33
23.860        13
23.870        40
23.880        20
23.890        33
23.900        27
23.910        60
23.920         7
23.930         0
23.940        47
23.950        33
23.960        33
23.970        40
23.980        40
23.990        27
24.000        33
24.010        13
24.020         0
24.030        87
24.040        27
24.050        60
24.060        27
24.070         7
24.080        27
24.090        13
24.100        13
24.110        40
24.120        40
24.130        73
24.140        33
24.150        47
24.160        13
24.170        47
24.180        27
24.190        33
24.200        27
24.210        47
24.220        13
24.230        33
24.240        47
24.250        27
24.260        33
24.270        20
24.280        27
24.290        47
24.300        40
24.310        33
24.320         7
24.330        13
24.340        40
24.350        53
24.360        47
24.370        13
24.380        33
24.390        73
24.400        53
24.410        67
24.420        47
24.430        27
24.440        40
24.450        27
24.460        60
24.470        27
24.480        13
24.490        47
24.500        47
24.510        53
24.520        27
24.530        33
24.540        53
24.550        27
24.560        33
24.570        33
24.580        27
24.590        53
24.600        40
24.610        13
24.620        33
24.630        40
24.640        33
24.650        40
24.660        53
24.670        40
24.680        20
24.690        33
24.700        67
24.710        33
24.720        13
24.730        40
24.740         7
24.750        60
24.760         7
24.770        47
24.780        40
24.790        47
24.800        13
24.810        27
24.820        13
24.830        20
24.840        53
24.850        27
24.860        27
24.870        40
24.880        27
24.890        47
24.900        33
24.910        27
24.920        53
24.930        13
24.940        33
24.950        40
24.960        47
24.970        27
24.980         7
24.990        27
25.000        20
25.010        40
25.020        20
25.030        47
25.040        33
25.050        27
25.060        60
25.070        33
25.080        20
25.090        13
25.100        47
25.110        40
25.120        47
25.130        27
25.140        13
25.150        33
25.160        60
25.170        47
25.180        40
25.190        40
25.200        33
25.210        20
25.220        47
25.230        67
25.240        53
25.250         7
25.260        27
25.270        20
25.280        40
25.290        47
25.300        27
25.310        67
25.320        60
25.330        87
25.340        20
25.350        20
25.360        40
25.370        20
25.380        40
25.390        47
25.400        20
25.410        47
25.420        27
25.430        33
25.440        53
25.450        27
25.460        53
25.470        33
25.480        67
25.490        47
25.500        20
25.510        47
25.520        47
25.530        40
25.540        27
25.550        47
25.560        13
25.570        27
25.580        47
25.590        27
25.600        33
25.610        20
25.620        13
25.630        27
25.640        60
25.650        60
25.660        33
25.670         7
25.680        53
25.690        20
25.700        40
25.710        33
25.720        27
25.730        40
25.740        47
25.750        40
25.760        27
25.770        20
25.780        73
25.790        27
25.800        33
25.810        27
25.820        40
25.830        13
25.840        60
25.850        33
25.860        33
25.870        13
25.880        53
25.890        27
25.900        27
25.910        47
25.920        67
25.930        27
25.940        27
25.950        53
25.960        40
25.970        33
25.980        40
25.990        40
26.000        27
26.010        33
26.020        20
26.030        40
26.040        27
26.050        13
26.060        20
26.070        27
26.080        27
26.090        40
26.100         7
26.110        53
26.120        27
26.130        33
26.140        13
26.150        33
26.160        13
26.170        33
26.180        40
26.190        33
26.200        27
26.210        27
26.220        60
26.230         7
26.240        33
26.250        13
26.260        47
26.270        27
26.280        33
26.290        47
26.300         7
26.310        33
26.320        33
26.330        20
26.340        53
26.350        13
26.360        33
26.370        93
26.380        20
26.390        40
26.400        27
26.410        20
26.420        20
26.430        40
26.440        40
26.450        27
26.460        20
26.470        47
26.480        47
26.490        53
26.500        33
26.510        27
26.520        33
26.530        13
26.540        47
26.550        33
26.560        20
26.570         0
26.580        40
26.590        20
26.600        27
26.610        20
26.620        27
26.630        40
26.640        33
26.650        20
26.660        13
26.670        60
26.680        40
26.690        20
26.700        33
26.710        67
26.720        40
26.730        27
26.740        40
26.750        33
26.760        27
26.770        47
26.780        40
26.790         0
26.800        40
26.810        13
26.820         7
26.830        47
26.840        20
26.850        47
26.860        40
26.870        47
26.880        20
26.890        40
26.900        33
26.910        60
26.920        33
26.930        47
26.940        33
26.950        13
26.960        27
26.970        13
26.980         7
26.990        47
27.000        47
27.010        33
27.020         7
27.030        13
27.040        47
27.050        27
27.060        53
27.070        33
27.080        20
27.090        53
27.100        13
27.110        33
27.120        27
27.130        27
27.140        53
27.150        13
27.160        27
27.170        33
27.180        27
27.190        33
27.200        27
27.210        33
27.220        20
27.230        40
27.240        33
27.250        53
27.260         0
27.270        33
27.280         0
27.290        20
27.300        33
27.310        53
27.320        27
27.330        33
27.340        40
27.350        13
27.360        20
27.370        33
27.380        27
27.390        27
27.400        13
27.410        40
27.420        40
27.430        20
27.440        20
27.450        20
27.460         7
27.470        13
27.480        20
27.490        13
27.500        27
27.510        33
27.520        27
27.530        13
27.540        20
27.550        27
27.560        27
27.570        33
27.580        27
27.590        27
27.600        13
27.610        33
27.620        40
27.630        13
27.640        47
27.650        40
27.660        33
27.670        20
27.680         0
27.690        13
27.700        33
27.710        33
27.720        20
27.730        13
27.740        27
27.750        53
27.760        13
27.770        33
27.780        47
27.790        27
27.800        33
27.810        27
27.820        20
27.830        27
27.840        40
27.850        27
27.860        20
27.870        27
27.880        27
27.890        27
27.900        27
27.910        47
27.920        27
27.930        20
27.940        40
27.950        20
27.960        13
27.970        20
27.980        13
27.990        33
28.000        20
28.010        33
28.020         0
28.030        40
28.040        27
28.050         7
28.060        40
28.070        33
28.080        47
28.090        27
28.100        20
28.110        40
28.120        40
28.130        27
28.140        13
28.150        13
28.160        20
28.170         7
28.180        40
28.190        20
28.200        33
28.210        27
28.220        27
28.230        20
28.240        20
28.250        33
28.260        13
28.270        20
28.280        33
28.290        40
28.300        20
28.310        20
28.320         0
28.330        13
28.340         7
28.350        80
28.360        33
28.370        40
28.380        27
28.390        47
28.400        40
28.410        27
28.420        33
28.430        13
28.440        13
28.450        27
28.460        27
28.470        53
28.480        13
28.490        13
28.500        20
28.510        47
28.520        40
28.530         0
28.540        40
28.550        40
28.560        27
28.570        20
28.580        20
28.590        27
28.600        33
28.610        27
28.620        20
28.630         0
28.640        33
28.650        27
28.660        47
28.670        60
28.680        33
28.690        33
28.700        13
28.710        27
28.720        20
28.730        40
28.740        20
28.750        33
28.760        33
28.770        33
28.780        20
28.790        53
28.800        13
28.810        20
28.820        40
28.830        13
28.840        27
28.850         7
28.860        13
28.870        33
28.880        27
28.890        33
28.900        40
28.910        27
28.920        33
28.930        40
28.940        13
28.950        27
28.960        53
28.970        40
28.980        33
28.990        33
29.000        13
29.010        40
29.020        27
29.030        13
29.040        20
29.050        27
29.060        40
29.070         7
29.080        53
29.090        33
29.100        33
29.110        13
29.120        33
29.130        33
29.140        47
29.150        33
29.160        27
29.170        40
29.180        27
29.190        40
29.200        27
29.210        20
29.220        80
29.230        40
29.240        40
29.250        27
29.260        33
29.270        33
29.280        40
29.290        13
29.300        27
29.310        40
29.320        33
29.330        47
29.340        27
29.350        60
29.360        47
29.370        20
29.380        33
29.390        20
29.400        33
29.410        13
29.420        27
29.430         0
29.440        20
29.450        13
29.460        20
29.470        33
29.480        20
29.490        40
29.500        33
29.510        40
29.520        40
29.530        13
29.540        20
29.550        13
29.560        13
29.570        20
29.580        33
29.590        33
29.600        40
29.610        13
29.620        20
29.630        27
29.640        40
29.650        47
29.660        13
29.670        20
29.680        27
29.690        13
29.700        13
29.710        40
29.720        20
29.730        20
29.740        20
29.750        40
29.760        40
29.770        27
29.780        13
29.790        27
29.800         0
29.810        40
29.820        27
29.830        47
29.840        20
29.850        33
29.860        33
29.870        67
29.880        27
29.890        40
29.900        47
29.910        13
29.920        20
29.930        60
29.940        20
29.950        27
29.960        40
29.970        40
29.980        20
29.990        33
30.000        13
30.010        27
30.020        40
30.030        20
30.040        20
30.050        27
30.060        33
30.070         0
30.080        20
30.090        20
30.100        27
30.110        13
30.120        53
30.130        40
30.140        33
30.150        20
30.160        33
30.170        33
30.180        13
30.190         7
30.200        20
30.210        27
30.220        20
30.230        20
30.240        20
30.250        33
30.260        47
30.270        20
30.280         7
30.290        20
30.300        27
30.310        47
30.320        27
30.330        20
30.340        33
30.350        27
30.360        13
30.370         7
30.380        20
30.390        20
30.400        20
30.410        27
30.420        27
30.430        13
30.440        13
30.450        13
30.460        27
30.470        27
30.480        27
30.490         7
30.500        27
30.510         7
30.520        20
30.530        33
30.540        13
30.550        53
30.560        33
30.570        33
30.580        13
30.590        13
30.600        13
30.610        13
30.620        13
30.630        33
30.640        47
30.650        20
30.660        40
30.670        13
30.680        13
30.690        13
30.700         7
30.710        13
30.720         7
30.730        33
30.740        13
30.750        33
30.760        20
30.770        13
30.780        20
30.790        20
30.800        33
30.810        40
30.820         7
30.830        13
30.840         7
30.850        27
30.860        40
30.870        13
30.880        53
30.890        27
30.900        13
30.910        13
30.920        20
30.930        33
30.940        33
30.950        13
30.960        13
30.970        13
30.980        33
30.990        20
31.000         7
31.010        27
31.020        20
31.030        27
31.040        20
31.050        27
31.060        20
31.070        13
31.080        33
31.090        13
31.100         7
31.110         7
31.120        13
31.130        33
31.140        33
31.150        20
31.160        20
31.170        27
31.180        33
31.190        20
31.200        33
31.210        33
31.220        47
31.230        27
31.240        13
31.250        40
31.260         7
31.270         7
31.280        47
31.290        40
31.300        33
31.310        40
31.320        20
31.330        40
31.340        27
31.350        47
31.360        40
31.370        53
31.380        47
31.390        20
31.400        33
31.410        40
31.420        13
31.430        33
31.440        27
31.450        40
31.460        27
31.470        33
31.480        27
31.490        47
31.500        47
31.510        47
31.520        33
31.530        20
31.540        33
31.550        27
31.560        40
31.570        20
31.580        27
31.590        40
31.600        40
31.610        27
31.620        20
31.630        33
31.640        20
31.650        33
31.660        27
31.670        13
31.680        40
31.690         7
31.700        60
31.710        33
31.720        13
31.730        47
31.740        33
31.750        33
31.760        47
31.770        40
31.780        27
31.790        27
31.800        27
31.810        33
31.820        33
31.830        47
31.840        33
31.850        40
31.860        27
31.870        47
31.880        53
31.890        87
31.900        53
31.910        53
31.920         7
31.930        80
31.940        53
31.950        53
31.960        60
31.970        60
31.980        67
31.990        67
32.000        53
32.010        60
32.020        33
32.030        33
32.040        67
32.050       100
32.060       133
32.070        53
32.080       100
32.090        73
32.100       180
32.110       127
32.120       180
32.130       153
32.140       107
32.150       140
32.160       167
32.170       187
32.180       160
32.190       293
32.200       320
32.210       293
32.220       373
32.230       426
32.240       426
32.250       440
32.260       586
32.270       720
32.280       653
32.290       826
32.300      1013
32.310      1253
32.320      1479
32.330      1566
32.340      1826
32.350      1959
32.360      2186
32.370      2539
32.380      2546
32.390      2712
32.400      2599
32.410      2472
32.420      2792
32.430      2446
32.440      2266
32.450      2252
32.460      2079
32.470      1873
32.480      1566
32.490      1699
32.500      1379
32.510      1393
32.520      1006
32.530      1006
32.540       693
32.550       680
32.560       453
32.570       420
32.580       313
32.590       360
32.600       340
32.610       233
32.620       160
32.630       227
32.640       180
32.650       147
32.660       147
32.670       147
32.680       100
32.690       160
32.700        93
32.710       107
32.720        80
32.730        80
32.740        80
32.750        47
32.760        93
32.770        60
32.780        73
32.790        80
32.800        60
32.810        47
32.820        47
32.830        60
32.840        73
32.850        40
32.860        53
32.870        87
32.880        80
32.890        40
32.900        67
32.910        27
32.920        33
32.930        53
32.940        40
32.950        53
32.960        53
32.970        27
32.980        27
32.990        20
33.000        40
33.010        33
33.020        27
33.030        87
33.040        60
33.050        27
33.060        53
33.070        40
33.080        33
33.090        73
33.100        40
33.110        20
33.120        67
33.130        33
33.140        60
33.150        33
33.160        20
33.170        27
33.180        53
33.190        33
33.200        33
33.210        27
33.220        27
33.230        73
33.240        53
33.250        20
33.260        33
33.270        20
33.280        33
33.290        40
33.300        73
33.310        20
33.320        53
33.330        40
33.340        33
33.350        53
33.360        27
33.370        40
33.380        20
33.390        13
33.400        33
33.410        40
33.420        53
33.430        20
33.440        20
33.450         7
33.460        33
33.470         0
33.480        33
33.490        33
33.500        47
33.510        27
33.520        20
33.530        33
33.540        27
33.550        27
33.560        40
33.570        33
33.580        13
33.590        40
33.600        33
33.610        40
33.620        40
33.630        20
33.640        47
33.650        13
33.660         7
33.670        20
33.680        33
33.690         7
33.700         0
33.710        20
33.720        20
33.730        53
33.740        20
33.750        13
33.760        27
33.770        27
33.780        20
33.790        60
33.800        33
33.810        33
33.820        20
33.830        33
33.840        33
33.850         7
33.860        33
33.870        33
33.880        27
33.890        40
33.900        20
33.910        27
33.920        33
33.930        13
33.940        20
33.950        20
33.960         7
33.970        20
33.980        40
33.990        47
34.000        13
34.010        13
34.020        73
34.030        33
34.040        20
34.050        47
34.060        33
34.070        13
34.080        40
34.090        20
34.100        53
34.110        33
34.120        27
34.130        33
34.140        33
34.150         0
34.160        33
34.170        33
34.180        27
34.190         7
34.200        40
34.210         7
34.220        27
34.230        53
34.240        33
34.250         7
34.260        33
34.270        27
34.280        20
34.290        27
34.300        20
34.310        33
34.320        47
34.330        20
34.340        67
34.350         7
34.360        27
34.370        13
34.380        27
34.390        33
34.400        20
34.410        13
34.420        40
34.430        13
34.440        13
34.450        33
34.460        33
34.470        27
34.480        13
34.490        40
34.500        20
34.510        27
34.520        33
34.530        20
34.540        33
34.550        27
34.560         7
34.570        27
34.580        20
34.590        13
34.600        20
34.610         7
34.620        40
34.630        20
34.640        33
34.650        27
34.660        13
34.670         7
34.680        20
34.690        40
34.700        20
34.710        53
34.720        13
34.730        13
34.740        20
34.750        20
34.760        27
34.770        20
34.780         7
34.790        20
34.800        27
34.810        27
34.820        20
34.830        33
34.840        27
34.850        27
34.860        33
34.870        20
34.880        20
34.890        13
34.900        13
34.910        40
34.920        40
34.930        27
34.940        20
34.950        13
34.960         7
34.970        20
34.980        40
34.990        27
35.000        13
35.010        13
35.020        20
35.030        13
35.040        33
35.050        33
35.060         7
35.070         7
35.080         7
35.090        20
35.100        27
35.110        13
35.120         7
35.130        33
35.140        40
35.150        60
35.160        27
35.170        27
35.180        27
35.190         0
35.200        40
35.210        27
35.220         0
35.230        20
35.240        13
35.250        33
35.260         7
35.270        20
35.280        27
35.290        27
35.300        40
35.310         7
35.320        33
35.330         0
35.340        33
35.350        13
35.360        20
35.370        13
35.380        27
35.390         7
35.400        27
35.410        40
35.420        33
35.430        33
35.440        20
35.450         0
35.460        27
35.470        33
35.480        40
35.490        40
35.500        20
35.510        40
35.520         7
35.530        13
35.540         7
35.550        13
35.560        20
35.570        20
35.580        53
35.590         7
35.600        47
35.610        13
35.620         7
35.630        27
35.640        60
35.650        13
35.660        27
35.670         7
35.680        27
35.690        27
35.700        33
35.710        33
35.720        13
35.730        13
35.740         0
35.750        13
35.760        20
35.770         0
35.780        13
35.790         7
35.800        20
35.810        13
35.820         7
35.830        13
35.840        20
35.850         7
35.860        53
35.870        20
35.880        13
35.890        33
35.900        40
35.910        27
35.920        27
35.930         7
35.940        20
35.950         7
35.960         7
35.970        53
35.980        20
35.990        20
36.000        33
36.010        13
36.020        20
36.030        27
36.040        13
36.050        27
36.060         7
36.070        20
36.080        20
36.090         0
36.100        27
36.110        13
36.120        33
36.130         7
36.140         7
36.150         7
36.160        20
36.170        20
36.180        13
36.190        33
36.200         7
36.210        27
36.220        27
36.230        13
36.240        27
36.250        13
36.260        33
36.270         7
36.280         7
36.290        13
36.300         7
36.310        53
36.320        40
36.330        20
36.340        20
36.350        27
36.360        20
36.370        13
36.380        20
36.390        33
36.400        20
36.410        27
36.420        13
36.430        20
36.440         0
36.450        27
36.460        20
36.470        27
36.480        13
36.490        20
36.500        13
36.510        20
36.520        53
36.530         7
36.540        33
36.550        33
36.560         7
36.570        27
36.580        27
36.590        47
36.600        20
36.610        13
36.620        53
36.630        20
36.640        20
36.650        20
36.660        33
36.670        13
36.680        20
36.690        13
36.700        67
36.710        13
36.720         0
36.730        20
36.740        20
36.750        13
36.760        13
36.770        13
36.780        20
36.790        20
36.800        20
36.810        20
36.820        13
36.830        20
36.840        20
36.850        20
36.860        53
36.870        27
36.880        20
36.890        27
36.900        13
36.910        13
36.920         7
36.930        13
36.940         7
36.950        20
36.960        27
36.970         7
36.980        53
36.990        20
37.000         7
37.010         7
37.020        20
37.030        13
37.040        53
37.050        40
37.060        27
37.070         7
37.080        27
37.090        33
37.100        20
37.110        13
37.120         7
37.130         0
37.140        13
37.150         0
37.160        20
37.170        20
37.180        13
37.190        20
37.200        20
37.210        53
37.220        20
37.230        13
37.240        27
37.250        13
37.260        40
37.270        27
37.280        20
37.290        27
37.300        13
37.310        33
37.320        40
37.330        20
37.340         7
37.350        13
37.360        40
37.370        13
37.380        53
37.390         7
37.400         7
37.410         7
37.420        27
37.430        27
37.440         7
37.450         7
37.460         7
37.470        13
37.480        20
37.490        47
37.500        13
37.510        33
37.520        20
37.530        13
37.540        20
37.550        20
37.560         7
37.570         7
37.580        33
37.590        20
37.600         7
37.610        20
37.620        13
37.630         0
37.640        33
37.650         7
37.660        27
37.670        20
37.680        33
37.690        13
37.700        20
37.710        20
37.720         0
37.730        20
37.740        47
37.750        20
37.760        20
37.770        13
37.780         0
37.790        13
37.800         7
37.810        27
37.820        33
37.830        20
37.840         7
37.850        33
37.860        13
37.870        20
37.880         7
37.890        20
37.900         0
37.910        33
37.920         7
37.930         7
37.940         7
37.950        33
37.960        13
37.970        27
37.980        13
37.990        33
38.000        20
38.010        13
38.020         7
38.030        33
38.040        27
38.050        20
38.060         7
38.070        20
38.080        13
38.090        20
38.100        27
38.110        67
38.120         7
38.130        40
38.140        27
38.150        13
38.160        33
38.170        13
38.180        33
38.190         7
38.200        27
38.210         0
38.220         0
38.230        13
38.240         7
38.250        40
38.260        20
38.270        27
38.280         7
38.290        13
38.300        13
38.310        27
38.320        47
38.330        40
38.340        47
38.350         0
38.360        33
38.370        27
38.380        33
38.390        20
38.400        27
38.410        33
38.420        13
38.430        13
38.440        20
38.450        13
38.460        33
38.470         7
38.480        13
38.490        20
38.500        13
38.510         7
38.520        33
38.530        33
38.540        40
38.550        13
38.560        13
38.570        27
38.580        27
38.590        20
38.600        27
38.610        33
38.620        40
38.630        13
38.640         7
38.650        13
38.660         7
38.670        20
38.680        13
38.690         7
38.700         0
38.710        13
38.720        27
38.730        33
38.740         7
38.750        13
38.760         7
38.770        20
38.780        27
38.790        40
38.800        20
38.810        20
38.820        13
38.830        20
38.840        13
38.850        40
38.860        13
38.870        13
38.880         7
38.890         0
38.900         7
38.910        33
38.920        20
38.930         7
38.940        13
38.950        13
38.960        33
38.970        33
38.980        27
38.990        13
39.000        27
39.010        40
39.020        20
39.030        40
39.040        33
39.050        13
39.060         0
39.070        13
39.080        40
39.090        20
39.100        20
39.110         7
39.120        13
39.130         7
39.140        20
39.150        27
39.160        20
39.170        40
39.180        27
39.190        27
39.200        47
39.210        13
39.220        20
39.230        27
39.240        13
39.250        13
39.260        13
39.270        13
39.280        20
39.290        20
39.300         0
39.310        13
39.320        33
39.330        40
39.340        13
39.350        13
39.360        27
39.370        33
39.380        27
39.390         7
39.400        20
39.410        27
39.420         7
39.430        47
39.440        13
39.450        40
39.460         7
39.470        20
39.480        20
39.490        20
39.500         7
39.510        13
39.520        20
39.530         7
39.540        27
39.550        13
39.560        13
39.570        27
39.580        13
39.590         7
39.600        27
39.610         7
39.620        40
39.630        27
39.640        20
39.650         7
39.660         7
39.670        13
39.680        27
39.690        33
39.700        20
39.710        33
39.720        13
39.730         0
39.740        13
39.750        20
39.760        20
39.770        20
39.780        13
39.790        27
39.800        20
39.810        40
39.820        20
39.830        20
39.840        27
39.850        27
39.860        60
39.870        40
39.880         7
39.890        40
39.900        27
39.910        40
39.920        33
39.930        53
39.940        53
39.950        47
39.960        20
39.970        33
39.980        67
39.990        40
40.000        60
40.010        60
40.020        33
40.030        67
40.040        27
40.050        13
40.060        80
40.070        20
40.080        47
40.090        27
40.100        33
40.110        27
40.120        27
40.130        27
40.140        60
40.150        40
40.160        27
40.170         7
40.180        20
40.190        20
40.200        13
40.210        33
40.220        20
40.230        13
40.240        27
40.250        40
40.260         0
40.270        20
40.280        20
40.290        20
40.300        20
40.310        33
40.320        27
40.330        47
40.340         7
40.350        13
40.360        13
40.370         7
40.380         7
40.390        27
40.400         7
40.410         7
40.420        27
40.430        27
40.440        13
40.450         7
40.460         7
40.470         7
40.480        13
40.490        13
40.500         7
40.510        13
40.520        40
40.530        20
40.540        20
40.550        13
40.560        33
40.570         7
40.580        27
40.590         7
40.600         7
40.610        20
40.620         7
40.630        20
40.640        20
40.650        27
40.660        13
40.670        27
40.680        27
40.690        20
40.700        33
40.710        13
40.720        20
40.730         0
40.740        13
40.750         7
40.760         0
40.770         7
40.780        13
40.790         7
40.800        27
40.810        20
40.820        20
40.830        13
40.840         7
40.850        33
40.860        13
40.870         7
40.880        13
40.890        20
40.900        40
40.910         7
40.920        33
40.930        20
40.940        20
40.950        13
40.960        20
40.970        13
40.980         7
40.990         7
41.000        13
41.010         7
41.020        20
41.030        27
41.040        40
41.050        13
41.060        13
41.070        33
41.080        20
41.090        13
41.100         0
41.110        33
41.120        20
41.130        13
41.140        27
41.150        20
41.160        20
41.170        20
41.180         7
41.190        40
41.200        20
41.210        20
41.220        20
41.230         0
41.240        20
41.250        27
41.260        20
41.270        27
41.280         7
41.290        27
41.300        33
41.310        20
41.320         7
41.330        27
41.340        27
41.350        13
41.360        33
41.370         7
41.380        27
41.390        13
41.400        27
41.410        20
41.420        33
41.430        13
41.440        53
41.450         0
41.460        13
41.470        47
41.480        27
41.490        47
41.500        20
41.510         7
41.520        20
41.530        27
41.540        27
41.550        13
41.560        13
41.570         0
41.580        40
41.590         7
41.600        20
41.610        60
41.620        20
41.630        27
41.640        20
41.650        40
41.660        20
41.670        33
41.680        47
41.690        87
41.700        47
41.710        40
41.720        27
41.730        40
41.740        33
41.750        33
41.760         7
41.770        53
41.780        67
41.790        27
41.800        53
41.810        60
41.820        47
41.830        27
41.840        33
41.850        60
41.860        40
41.870        13
41.880        20
41.890        47
41.900        33
41.910        40
41.920        47
41.930        20
41.940        27
41.950        67
41.960        33
41.970        40
41.980        20
41.990        27
42.000         7
42.010        33
42.020        27
42.030        40
42.040        13
42.050        27
42.060        13
42.070        20
42.080        47
42.090        20
42.100         7
42.110        20
42.120         7
42.130        20
42.140        47
42.150        27
42.160        20
42.170        13
42.180        33
42.190        13
42.200        40
42.210        20
42.220        33
42.230        40
42.240        47
42.250         7
42.260         7
42.270        33
42.280         7
42.290         7
42.300        13
42.310        33
42.320        20
42.330         0
42.340        33
42.350        33
42.360        13
42.370        13
42.380        40
42.390         7
42.400         7
42.410        13
42.420         7
42.430        13
42.440        27
42.450        33
42.460        20
42.470        20
42.480        13
42.490         7
42.500        20
42.510        13
42.520        33
42.530         0
42.540        13
42.550        33
42.560        27
42.570        40
42.580        27
42.590        27
42.600        27
42.610        33
42.620        47
42.630         7
42.640        27
42.650        13
42.660        27
42.670        20
42.680        27
42.690        13
42.700        13
42.710         0
42.720        33
42.730        13
42.740         7
42.750         7
42.760         7
42.770         7
42.780        27
42.790        40
42.800        20
42.810        20
42.820         7
42.830         7
42.840        20
42.850        13
42.860         7
42.870        27
42.880        13
42.890        47
42.900        47
42.910        13
42.920        13
42.930        13
42.940        13
42.950        40
42.960        33
42.970        27
42.980        13
42.990        27
43.000        13
43.010        13
43.020        53
43.030        27
43.040        13
43.050        33
43.060         0
43.070        13
43.080        33
43.090        33
43.100         0
43.110        20
43.120         7
43.130        40
43.140        20
43.150         0
43.160         7
43.170        33
43.180        20
43.190         7
43.200        33
43.210        13
43.220        13
43.230        20
43.240         7
43.250        33
43.260        47
43.270        20
43.280        20
43.290        27
43.300         7
43.310         7
43.320        20
43.330        13
43.340         0
43.350        27
43.360         7
43.370         7
43.380        13
43.390        20
43.400        13
43.410        20
43.420        20
43.430        27
43.440        20
43.450         7
43.460        27
43.470        13
43.480         0
43.490        13
43.500        20
43.510         7
43.520        27
43.530        13
43.540        13
43.550        13
43.560        13
43.570        20
43.580        20
43.590         7
43.600        13
43.610        20
43.620        33
43.630        13
43.640         0
43.650        13
43.660         7
43.670        33
43.680         0
43.690        20
43.700        27
43.710        27
43.720        20
43.730         7
43.740         7
43.750         7
43.760        20
43.770         7
43.780        20
43.790        13
43.800        27
43.810        27
43.820        27
43.830        20
43.840        27
43.850        13
43.860         7
43.870        20
43.880        13
43.890         7
43.900        33
43.910        20
43.920        13
43.930        40
43.940        27
43.950         0
43.960        13
43.970        13
43.980         7
43.990        13
44.000         7
44.010        20
44.020        13
44.030        20
44.040        20
44.050         0
44.060        27
44.070        47
44.080        13
44.090         7
44.100        13
44.110        13
44.120        13
44.130         7
44.140        20
44.150         7
44.160         7
44.170        27
44.180         7
44.190         7
44.200        40
44.210        27
44.220        13
44.230        20
44.240        33
44.250         7
44.260        20
44.270         0
44.280        20
44.290        13
44.300        13
44.310         7
44.320        27
44.330        13
44.340         7
44.350        20
44.360        33
44.370        33
44.380         7
44.390        13
44.400        13
44.410        27
44.420        13
44.430        20
44.440        13
44.450         7
44.460        27
44.470        27
44.480        13
44.490        13
44.500         7
44.510        13
44.520        20
44.530        20
44.540        13
44.550        27
44.560         7
44.570        13
44.580        20
44.590        33
44.600        13
44.610         7
44.620         7
44.630        13
44.640         7
44.650        27
44.660        27
44.670        40
44.680        20
44.690        27
44.700        13
44.710        27
44.720         0
44.730        60
44.740        40
44.750        20
44.760        27
44.770        20
44.780        20
44.790         0
44.800        33
44.810        60
44.820        27
44.830        20
44.840        33
44.850        27
44.860        40
44.870        33
44.880        33
44.890        60
44.900        27
44.910        67
44.920        20
44.930        47
44.940        47
44.950        33
44.960        53
44.970        27
44.980        13
44.990        20
45.000        47
45.010        33
45.020        40
45.030        47
45.040        60
45.050        40
45.060        40
45.070        53
45.080        33
45.090        33
45.100         7
45.110        33
45.120        13
45.130        33
45.140        20
45.150        47
45.160        27
45.170        20
45.180        27
45.190        53
45.200        33
45.210        53
45.220        67
45.230        40
45.240        60
45.250        40
45.260        47
45.270        60
45.280        40
45.290         7
45.300        20
45.310        27
45.320        27
45.330        27
45.340        40
45.350        40
45.360        33
45.370        40
45.380        33
45.390        73
45.400        20
45.410        33
45.420        27
45.430        60
45.440        33
45.450        40
45.460        13
45.470        20
45.480        53
45.490        80
45.500        73
45.510        33
45.520        40
45.530        40
45.540        47
45.550        47
45.560        40
45.570        33
45.580        67
45.590        40
45.600        53
45.610        33
45.620        13
45.630        40
45.640        33
45.650        47
45.660        33
45.670        33
45.680        67
45.690        40
45.700        40
45.710        73
45.720        53
45.730        73
45.740        87
45.750        53
45.760        60
45.770        80
45.780        67
45.790        60
45.800        53
45.810        67
45.820        33
45.830        53
45.840        27
45.850        73
45.860       100
45.870        93
45.880        67
45.890        67
45.900        87
45.910        67
45.920       107
45.930        93
45.940        87
45.950        87
45.960        87
45.970        73
45.980        67
45.990       107
46.000       107
46.010       113
46.020        93
46.030       107
46.040       160
46.050        93
46.060       120
46.070       133
46.080       107
46.090       160
46.100       187
46.110       160
46.120       120
46.130       173
46.140       147
46.150       147
46.160       193
46.170       247
46.180       320
46.190       213
46.200       307
46.210       333
46.220       380
46.230       373
46.240       426
46.250       420
46.260       513
46.270       526
46.280       620
46.290       586
46.300       813
46.310       813
46.320       840
46.330      1086
46.340      1113
46.350      1213
46.360      1446
46.370      1459
46.380      1786
46.390      1793
46.400      2099
46.410      2192
46.420      2379
46.430      2886
46.440      3072
46.450      3359
46.460      3339
46.470      3772
46.480      4172
46.490      3952
46.500      4412
46.510      4432
46.520      4492
46.530      4698
46.540      4552
46.550      4352
46.560      4418
46.570      4358
46.580      3885
46.590      4152
46.600      3872
46.610      3659
46.620      3612
46.630      3352
46.640      3099
46.650      3045
46.660      2799
46.670      2606
46.680      2339
46.690      2232
46.700      1886
46.710      1839
46.720      1533
46.730      1433
46.740      1399
46.750      1240
46.760       913
46.770       873
46.780       806
46.790       600
46.800       666
46.810       733
46.820       433
46.830       426
46.840       407
46.850       440
46.860       387
46.870       287
46.880       340
46.890       373
46.900       267
46.910       240
46.920       273
46.930       213
46.940       300
46.950       173
46.960       213
46.970       180
46.980       147
46.990       173
47.000       153
47.010       173
47.020       113
47.030       193
47.040       180
47.050        93
47.060       107
47.070       107
47.080       113
47.090       100
47.100       100
47.110        80
47.120        80
47.130       127
47.140       133
47.150       100
47.160       100
47.170       113
47.180       113
47.190        73
47.200       113
47.210        47
47.220        80
47.230       113
47.240        67
47.250        73
47.260        93
47.270        47
47.280        27
47.290        53
47.300        67
47.310        67
47.320        80
47.330        40
47.340        60
47.350        67
47.360        93
47.370        67
47.380        67
47.390        80
47.400        47
47.410        67
47.420        80
47.430        67
47.440        60
47.450        67
47.460        53
47.470        93
47.480        53
47.490        33
47.500       100
47.510        73
47.520        87
47.530        33
47.540        53
47.550        73
47.560        53
47.570         7
47.580        33
47.590        27
47.600        60
47.610        47
47.620        60
47.630        53
47.640        33
47.650        47
47.660        67
47.670        53
47.680        73
47.690        47
47.700        67
47.710        33
47.720        27
47.730        33
47.740        47
47.750        47
47.760        47
47.770        13
47.780        53
47.790        80
47.800        47
47.810        13
47.820        20
47.830        20
47.840       100
47.850        53
47.860        27
47.870        67
47.880        60
47.890        27
47.900        53
47.910        27
47.920        33
47.930        13
47.940        40
47.950        33
47.960        20
47.970        40
47.980        40
47.990        27
48.000         7
48.010        33
48.020        47
48.030        33
48.040        47
48.050        27
48.060        53
48.070        47
48.080        20
48.090        40
48.100        33
48.110        20
48.120        33
48.130        20
48.140        53
48.150        60
48.160        27
48.170        47
48.180        33
48.190        13
48.200        53
48.210        40
48.220        40
48.230        47
48.240        13
48.250        40
48.260        53
48.270        33
48.280        67
48.290        27
48.300        13
48.310        27
48.320        27
48.330        20
48.340        40
48.350        53
48.360        33
48.370        13
48.380        20
48.390        40
48.400        27
48.410        27
48.420        73
48.430        27
48.440        27
48.450        27
48.460        20
48.470        53
48.480        33
48.490        33
48.500        40
48.510        47
48.520        20
48.530        27
48.540        20
48.550        27
48.560        20
48.570        40
48.580        40
48.590        53
48.600        33
48.610        27
48.620        40
48.630        47
48.640        47
48.650        27
48.660        33
48.670        40
48.680        20
48.690        27
48.700        67
48.710        60
48.720        27
48.730        33
48.740        20
48.750        40
48.760        33
48.770        27
48.780        13
48.790        13
48.800        20
48.810         7
48.820        33
48.830        40
48.840        27
48.850        27
48.860        20
48.870        40
48.880        13
48.890        27
48.900        20
48.910        20
48.920        20
48.930         7
48.940        33
48.950        40
48.960        40
48.970        33
48.980        40
48.990        13
49.000        13
49.010        47
49.020        27
49.030        13
49.040        27
49.050        33
49.060        27
49.070        27
49.080        27
49.090        33
49.100        47
49.110        33
49.120        67
49.130        60
49.140        13
49.150        67
49.160        13
49.170        40
49.180        20
49.190         7
49.200        27
49.210        13
49.220        27
49.230        13
49.240        47
49.250        20
49.260         7
49.270        27
49.280        27
49.290        27
49.300        20
49.310        27
49.320        53
49.330        20
49.340        13
49.350        47
49.360        27
49.370        20
49.380        27
49.390        13
49.400        27
49.410        60
49.420        20
49.430        40
49.440        27
49.450        33
49.460        20
49.470        53
49.480        20
49.490        13
49.500        33
49.510        40
49.520        20
49.530        33
49.540        13
49.550        33
49.560        53
49.570        27
49.580        20
49.590        40
49.600        20
49.610        20
49.620        27
49.630        33
49.640        33
49.650        53
49.660        13
49.670        20
49.680        27
49.690        13
49.700        20
49.710        27
49.720        67
49.730        20
49.740        33
49.750         7
49.760        40
49.770        27
49.780        27
49.790         7
49.800        33
49.810        33
49.820        40
49.830        40
49.840        33
49.850        13
49.860        40
49.870        33
49.880        33
49.890        27
49.900        13
49.910        20
49.920        20
49.930        40
49.940        60
49.950        20
49.960        20
49.970        27
49.980        13
49.990        20
50.000        20
50.010        27
50.020        33
50.030        33
50.040         7
50.050        27
50.060        33
50.070        27
50.080        27
50.090        13
50.100        40
50.110        27
50.120        33
50.130        40
50.140        33
50.150        40
50.160        13
50.170        20
50.180         7
50.190        27
50.200        33
50.210        33
50.220        40
50.230        27
50.240        27
50.250        20
50.260        13
50.270         7
50.280        33
50.290        20
50.300        27
50.310        20
50.320        13
50.330        40
50.340        33
50.350        27
50.360        47
50.370        13
50.380        33
50.390        20
50.400        40
50.410        27
50.420        13
50.430        20
50.440        20
50.450        27
50.460        13
50.470         0
50.480        47
50.490         7
50.500        40
50.510        20
50.520        20
50.530         7
50.540        13
50.550        27
50.560        20
50.570        33
50.580        27
50.590         7
50.600        33
50.610        27
50.620        33
50.630        20
50.640        20
50.650         7
50.660        47
50.670        73
50.680        13
50.690        27
50.700        60
50.710        13
50.720        27
50.730        13
50.740        20
50.750        13
50.760        40
50.770        27
50.780         7
50.790        13
50.800        40
50.810        40
50.820        20
50.830        53
50.840        33
50.850        20
50.860        33
50.870        33
50.880        40
50.890        13
50.900        20
50.910        13
50.920        33
50.930         7
50.940        47
50.950        67
50.960        47
50.970        27
50.980        20
50.990        20
51.000        53
51.010        47
51.020        27
51.030        20
51.040        33
51.050        20
51.060         7
51.070         7
51.080         7
51.090        13
51.100        20
51.110        53
51.120        20
51.130        33
51.140        33
51.150        47
51.160        20
51.170        20
51.180        53
51.190         7
51.200        60
51.210        27
51.220        40
51.230        33
51.240        13
51.250        47
51.260        27
51.270        13
51.280        13
51.290        27
51.300        53
51.310         7
51.320        33
51.330        20
51.340        40
51.350        33
51.360        27
51.370        40
51.380        47
51.390        33
51.400        47
51.410        47
51.420        27
51.430        20
51.440        27
51.450        27
51.460        20
51.470        27
51.480        40
51.490        13
51.500        13
51.510        53
51.520        53
51.530        27
51.540         7
51.550        60
51.560        53
51.570        33
51.580        40
51.590        47
51.600        27
51.610        33
51.620        27
51.630        40
51.640         7
51.650        40
51.660        20
51.670        27
51.680        40
51.690        27
51.700        13
51.710        20
51.720        33
51.730        27
51.740        27
51.750        53
51.760        47
51.770        60
51.780        47
51.790        27
51.800        53
51.810        33
51.820        13
51.830        47
51.840        47
51.850        27
51.860        27
51.870        67
51.880        33
51.890        47
51.900        67
51.910        33
51.920        33
51.930        40
51.940        47
51.950        60
51.960        40
51.970         7
51.980        33
51.990        20
52.000        27
52.010        33
52.020        27
52.030        13
52.040        53
52.050        27
52.060        13
52.070        33
52.080        73
52.090        27
52.100        47
52.110        13
52.120        27
52.130        33
52.140        67
52.150        13
52.160        53
52.170        47
52.180        47
52.190        33
52.200        53
52.210        60
52.220        33
52.230        73
52.240        40
52.250        27
52.260        67
52.270        40
52.280        47
52.290        33
52.300        33
52.310        40
52.320        53
52.330        47
52.340        20
52.350        47
52.360        33
52.370        20
52.380        47
52.390        47
52.400        67
52.410        53
52.420        47
52.430        73
52.440       107
52.450        40
52.460        33
52.470        53
52.480        47
52.490        60
52.500        53
52.510        20
52.520        67
52.530        47
52.540        87
52.550        60
52.560        67
52.570        20
52.580        87
52.590        73
52.600        60
52.610        40
52.620        80
52.630        80
52.640        53
52.650        93
52.660        33
52.670        40
52.680        67
52.690        73
52.700        13
52.710        67
52.720        67
52.730        47
52.740        53
52.750        53
52.760        53
52.770        53
52.780        33
52.790        27
52.800        33
52.810        47
52.820        53
52.830        27
52.840        53
52.850        53
52.860        73
52.870         7
52.880        53
52.890        47
52.900        33
52.910        60
52.920        33
52.930        53
52.940        53
52.950        60
52.960        27
52.970        27
52.980        53
52.990        33
53.000        33
53.010        40
53.020        33
53.030        80
53.040        60
53.050        87
53.060        27
53.070        47
53.080        40
53.090        20
53.100        27
53.110        20
53.120        20
53.130        20
53.140        33
53.150        40
53.160        40
53.170        53
53.180        60
53.190        47
53.200        27
53.210        20
53.220        40
53.230        53
53.240        53
53.250        27
53.260        20
53.270        20
53.280        33
53.290        40
53.300        20
53.310        60
53.320        80
53.330        40
53.340        20
53.350        60
53.360        20
53.370        13
53.380        27
53.390        33
53.400        40
53.410        40
53.420        47
53.430        40
53.440        27
53.450        27
53.460        27
53.470        13
53.480        47
53.490        47
53.500        60
53.510        47
53.520        13
53.530        27
53.540        20
53.550        27
53.560        20
53.570        27
53.580        33
53.590        47
53.600        13
53.610        27
53.620        47
53.630        27
53.640        33
53.650        40
53.660        27
53.670        47
53.680        33
53.690        33
53.700        60
53.710        60
53.720        60
53.730        33
53.740        33
53.750        27
53.760        40
53.770        13
53.780        27
53.790        40
53.800        13
53.810        20
53.820        47
53.830        20
53.840        40
53.850        47
53.860        20
53.870        20
53.880        27
53.890        47
53.900        13
53.910        40
53.920        13
53.930        27
53.940        20
53.950        20
53.960        13
53.970        27
53.980        27
53.990        40
54.000        33
54.010        33
54.020        20
54.030        53
54.040        40
54.050        40
54.060        20
54.070        33
54.080         7
54.090        20
54.100         0
54.110        27
54.120        33
54.130        20
54.140         7
54.150         7
54.160        27
54.170        20
54.180        20
54.190         0
54.200        13
54.210        27
54.220        33
54.230        13
54.240        47
54.250        33
54.260        13
54.270        27
54.280        13
54.290        33
54.300         0
54.310        27
54.320        40
54.330        27
54.340         7
54.350         0
54.360        40
54.370        13
54.380         0
54.390         7
54.400        27
54.410        20
54.420        53
54.430        27
54.440        20
54.450        13
54.460        20
54.470        33
54.480         0
54.490        13
54.500        27
54.510        33
54.520        27
54.530        27
54.540        33
54.550        33
54.560         7
54.570        27
54.580        33
54.590        33
54.600        27
54.610        20
54.620        53
54.630         7
54.640        13
54.650        20
54.660        13
54.670        40
54.680         0
54.690        27
54.700        27
54.710        13
54.720        27
54.730        13
54.740        40
54.750        13
54.760        33
54.770        20
54.780        40
54.790        47
54.800        27
54.810         7
54.820        20
54.830         0
54.840        13
54.850        20
54.860        13
54.870        13
54.880        20
54.890        13
54.900        20
54.910         7
54.920        20
54.930        20
54.940        27
54.950        27
54.960        20
54.970         0
54.980         7
54.990         0
55.000        27
55.010        13
55.020        13
55.030        40
55.040        13
55.050        20
55.060        13
55.070        13
55.080         7
55.090        13
55.100        33
55.110         7
55.120         0
55.130        27
55.140        13
55.150        47
55.160         7
55.170        27
55.180        20
55.190        20
55.200        33
55.210        27
55.220        27
55.230         7
55.240        20
55.250        13
55.260        13
55.270        33
55.280         7
55.290        27
55.300        27
55.310        47
55.320        20
55.330        40
55.340        27
55.350        40
55.360        20
55.370         7
55.380        13
55.390        20
55.400        13
55.410        27
55.420        13
55.430        33
55.440        20
55.450        13
55.460        20
55.470        27
55.480        13
55.490        27
55.500         7
55.510        33
55.520         0
55.530        20
55.540         0
55.550        13
55.560         7
55.570         7
55.580        20
55.590         0
55.600         7
55.610         7
55.620        27
55.630        13
55.640         7
55.650        13
55.660        20
55.670        13
55.680        20
55.690        13
55.700        13
55.710         7
55.720        33
55.730         0
55.740        33
55.750         7
55.760        33
55.770        40
55.780        13
55.790         7
55.800        20
55.810        20
55.820         7
55.830        13
55.840        20
55.850        20
55.860         7
55.870         7
55.880         7
55.890        13
55.900        13
55.910        27
55.920        20
55.930        40
55.940        13
55.950        20
55.960        20
55.970        13
55.980         7
55.990        13
56.000        27
56.010        27
56.020         7
56.030        40
56.040        47
56.050         7
56.060        20
56.070        33
56.080        20
56.090        13
56.100        20
56.110        33
56.120        33
56.130         7
56.140        20
56.150        20
56.160        27
56.170        33
56.180        20
56.190        20
56.200        20
56.210        33
56.220        13
56.230        20
56.240        13
56.250         7
56.260         7
56.270        13
56.280        20
56.290        20
56.300         7
56.310        13
56.320        20
56.330        27
56.340        13
56.350        20
56.360        33
56.370        20
56.380        27
56.390        20
56.400         7
56.410        20
56.420        13
56.430        20
56.440        13
56.450        33
56.460        20
56.470        27
56.480         7
56.490        20
56.500        13
56.510        27
56.520        13
56.530        20
56.540        20
56.550         7
56.560        20
56.570        20
56.580        20
56.590         7
56.600        47
56.610        20
56.620        13
56.630        47
56.640        13
56.650         7
56.660         7
56.670        13
56.680        27
56.690         7
56.700        13
56.710        13
56.720        27
56.730        13
56.740        33
56.750        20
56.760         0
56.770         7
56.780         7
56.790         7
56.800         7
56.810        13
56.820        13
56.830        20
56.840        20
56.850         7
56.860        13
56.870        13
56.880        27
56.890        13
56.900        13
56.910        20
56.920        27
56.930        27
56.940        13
56.950        13
56.960        13
56.970        13
56.980        20
56.990        33
57.000         7
57.010        20
57.020        20
57.030        27
57.040        20
57.050        27
57.060        20
57.070        27
57.080         7
57.090        20
57.100        13
57.110        27
57.120         7
57.130        27
57.140         7
57.150        13
57.160        13
57.170         7
57.180        20
57.190        20
57.200         7
57.210        13
57.220        27
57.230         7
57.240         7
57.250        20
57.260        13
57.270        40
57.280        13
57.290        13
57.300         7
57.310        13
57.320        13
57.330        13
57.340         7
57.350        13
57.360        27
57.370        20
57.380        13
57.390         7
57.400        27
57.410        27
57.420         7
57.430        20
57.440        33
57.450        13
57.460        20
57.470        13
57.480        13
57.490        27
57.500        13
57.510        27
57.520        13
57.530        13
57.540        27
57.550        13
57.560        27
57.570        13
57.580         7
57.590        20
57.600        13
57.610        20
57.620        13
57.630        20
57.640         7
57.650         7
57.660        13
57.670        27
57.680        20
57.690         7
57.700        13
57.710         0
57.720        13
57.730        20
57.740         0
57.750        20
57.760        27
57.770        13
57.780        33
57.790        27
57.800        33
57.810        20
57.820        33
57.830        20
57.840        47
57.850         7
57.860        20
57.870        33
57.880        27
57.890        40
57.900        60
57.910        40
57.920        20
57.930        40
57.940        33
57.950        20
57.960        13
57.970        33
57.980        27
57.990        27
58.000        27
58.010        33
58.020        27
58.030        53
58.040        13
58.050        27
58.060        20
58.070        20
58.080        47
58.090        20
58.100        20
58.110        33
58.120        40
58.130        53
58.140        20
58.150        13
58.160         7
58.170        33
58.180        13
58.190        27
58.200        13
58.210         7
58.220        27
58.230         0
58.240        27
58.250        13
58.260         7
58.270        13
58.280        20
58.290        13
58.300        27
58.310        20
58.320        13
58.330         7
58.340        20
58.350        13
58.360        20
58.370        20
58.380        13
58.390        13
58.400         0
58.410         7
58.420         7
58.430         7
58.440        27
58.450        27
58.460         7
58.470        27
58.480         0
58.490        33
58.500        20
58.510        13
58.520         7
58.530        27
58.540         7
58.550         7
58.560         0
58.570        27
58.580        13
58.590        20
58.600        13
58.610         7
58.620         7
58.630        13
58.640         7
58.650        13
58.660        27
58.670        20
58.680        33
58.690        13
58.700        13
58.710        20
58.720         7
58.730         0
58.740         7
58.750        13
58.760        20
58.770        33
58.780         0
58.790         7
58.800        20
58.810        20
58.820        33
58.830        20
58.840         7
58.850        13
58.860         7
58.870         7
58.880        13
58.890        13
58.900         0
58.910         7
58.920         7
58.930         7
58.940         7
58.950         7
58.960         7
58.970        13
58.980        33
58.990        13
59.000        13
59.010        13
59.020         0
59.030        13
59.040        20
59.050         7
59.060         0
59.070        13
59.080         7
59.090         7
59.100         7
59.110         0
59.120         7
59.130         7
59.140        13
59.150        20
59.160        20
59.170         0
59.180        47
59.190        13
59.200         0
59.210        27
59.220        33
59.230         7
59.240        27
59.250         7
59.260        13
59.270         0
59.280        20
59.290         0
59.300        27
59.310        13
59.320         7
59.330         7
59.340         0
59.350        13
59.360        27
59.370        27
59.380        13
59.390        13
59.400        20
59.410        13
59.420        13
59.430         0
59.440        40
59.450         7
59.460         7
59.470        20
59.480         0
59.490         0
59.500         7
59.510        27
59.520         0
59.530        13
59.540        20
59.550        13
59.560        20
59.570        20
59.580         7
59.590        20
59.600         0
59.610        27
59.620        13
59.630        20
59.640         0
59.650        13
59.660        20
59.670        13
59.680         7
59.690        20
59.700        13
59.710        27
59.720        20
59.730        20
59.740         7
59.750        13
59.760        33
59.770        20
59.780        20
59.790         7
59.800         7
59.810         0
59.820         7
59.830        20
59.840        20
59.850        13
59.860         7
59.870         7
59.880        20
59.890         7
59.900         7
59.910        20
59.920        27
59.930        13
59.940        13
59.950        20
59.960         0
59.970        20
59.980        27
59.990        20
60.000        20
