20.000         0
20.010         0
20.020         0
20.030        27
20.040        27
20.050        60
20.060        60
20.070        53
20.080        40
20.090        60
20.100        33
20.110        40
20.120        40
20.130        53
20.140        33
20.150        40
20.160        80
20.170        40
20.180        33
20.190        87
20.200        60
20.210        47
20.220        47
20.230        60
20.240        40
20.250        67
20.260        87
20.270        67
20.280        33
20.290        40
20.300        47
20.310        47
20.320        47
20.330        40
20.340        93
20.350        33
20.360        53
20.370        53
20.380        27
20.390        60
20.400        80
20.410        80
20.420        60
20.430        40
20.440        60
20.450        47
20.460        27
20.470        53
20.480        53
20.490        60
20.500        60
20.510        27
20.520        40
20.530        40
20.540        27
20.550        27
20.560        60
20.570        67
20.580        33
20.590        27
20.600        53
20.610        20
20.620        13
20.630        40
20.640        53
20.650        27
20.660        40
20.670        47
20.680        60
20.690        47
20.700        80
20.710        33
20.720        27
20.730        47
20.740        60
20.750        67
20.760        40
20.770        33
20.780         7
20.790        40
20.800        47
20.810        47
20.820        53
20.830        47
20.840        60
20.850        40
20.860        47
20.870        40
20.880        40
20.890        60
20.900        40
20.910        93
20.920        47
20.930        47
20.940        53
20.950        40
20.960        40
20.970        27
20.980        27
20.990        33
21.000        53
21.010        53
21.020        40
21.030        47
21.040        67
21.050        47
21.060        60
21.070        53
21.080        47
21.090        67
21.100        40
21.110        53
21.120        60
21.130        67
21.140        40
21.150        33
21.160        80
21.170        27
21.180        40
21.190        60
21.200        53
21.210        53
21.220        47
21.230        53
21.240        80
21.250        47
21.260        47
21.270        33
21.280        60
21.290        47
21.300        33
21.310        27
21.320        33
21.330        80
21.340        47
21.350         7
21.360        53
21.370        60
21.380        13
21.390        60
21.400        67
21.410        13
21.420        80
21.430        40
21.440        47
21.450        40
21.460        47
21.470        47
21.480        47
21.490        40
21.500        60
21.510        53
21.520        33
21.530        53
21.540        33
21.550        60
21.560        67
21.570        80
21.580        60
21.590        80
21.600        47
21.610        47
21.620        40
21.630        33
21.640        13
21.650        73
21.660        27
21.670        33
21.680        40
21.690        33
21.700        33
21.710        33
21.720        47
21.730        27
21.740        53
21.750        27
21.760        13
21.770        33
21.780        33
21.790        40
21.800        40
21.810        33
21.820        53
21.830        73
21.840        13
21.850        40
21.860        40
21.870        80
21.880        27
21.890        33
21.900        67
21.910         7
21.920        40
21.930        53
21.940        60
21.950        47
21.960        27
21.970        27
21.980        47
21.990        53
22.000        33
22.010        27
22.020        47
22.030        53
22.040        53
22.050        33
22.060        80
22.070        53
22.080        47
22.090        13
22.100        40
22.110        33
22.120        33
22.130        47
22.140        33
22.150        53
22.160        47
22.170        40
22.180        60
22.190        40
22.200        20
22.210        27
22.220        60
22.230        27
22.240        67
22.250        33
22.260        27
22.270        60
22.280        67
22.290        47
22.300        67
22.310        60
22.320        33
22.330        27
22.340        60
22.350        33
22.360        53
22.370        47
22.380        80
22.390        33
22.400        20
22.410        20
22.420        40
22.430        33
22.440       100
22.450        80
22.460        60
22.470        33
22.480        27
22.490        27
22.500        60
22.510        47
22.520        33
22.530        47
22.540        20
22.550        40
22.560        20
22.570        60
22.580        27
22.590        33
22.600        53
22.610        20
22.620        87
22.630        80
22.640        40
22.650        53
22.660        33
22.670        47
22.680        60
22.690        33
22.700        60
22.710        47
22.720        27
22.730        67
22.740        33
22.750        40
22.760        47
22.770        60
22.780        33
22.790        13
22.800        27
22.810        20
22.820        27
22.830        33
22.840        20
22.850        60
22.860        60
22.870        13
22.880        67
22.890        53
22.900        40
22.910        53
22.920        53
22.930        33
22.940        40
22.950        60
22.960        60
22.970        53
22.980        67
22.990        40
23.000        53
23.010        53
23.020        40
23.030        27
23.040        40
23.050        33
23.060        20
23.070        13
23.080        27
23.090        40
23.100        47
23.110        40
23.120        67
23.130        27
23.140        40
23.150        67
23.160        27
23.170         7
23.180        47
23.190        47
23.200        47
23.210        73
23.220        33
23.230        40
23.240        60
23.250        40
23.260        53
23.270        13
23.280        40
23.290        20
23.300        33
23.310        20
23.320        67
23.330        33
23.340        53
23.350        33
23.360        27
23.370        33
23.380        33
23.390        33
23.400        33
23.410        73
23.420        47
23.430        73
23.440        20
23.450        20
23.460        40
23.470        67
23.480        47
23.490        67
23.500        33
23.510        40
23.520        40
23.530        33
23.540        40
23.550        47
23.560        40
23.570        60
23.580        60
23.590        13
23.600        27
23.610        33
23.620        40
23.630        47
23.640        73
23.650        33
23.660        40
23.670        27
23.680        60
23.690        53
23.700        20
23.710        47
23.720        40
23.730        27
23.740        20
23.750        33
23.760        20
23.770        67
23.780        27
23.790        40
23.800        33
23.810        40
23.820        33
23.830        40
23.840        40
23.850        47
23.860        33
23.870        27
23.880        40
23.890        53
23.900        33
23.910        40
23.920        47
23.930        80
23.940        60
23.950        60
23.960        33
23.970        33
23.980        60
23.990        40
24.000        47
24.010        47
24.020        80
24.030        20
24.040        33
24.050        40
24.060        20
24.070        47
24.080        27
24.090        60
24.100        40
24.110        27
24.120        33
24.130        67
24.140        47
24.150        27
24.160        40
24.170        13
24.180        47
24.190        53
24.200        60
24.210        27
24.220        33
24.230        53
24.240        33
24.250         7
24.260        47
24.270        27
24.280        60
24.290        47
24.300        40
24.310        33
24.320        27
24.330        13
24.340        33
24.350        33
24.360        13
24.370        33
24.380        67
24.390        20
24.400        53
24.410        33
24.420        93
24.430        60
24.440        40
24.450        40
24.460        33
24.470        27
24.480         7
24.490        47
24.500        20
24.510        47
24.520        73
24.530        20
24.540        53
24.550        20
24.560        33
24.570        53
24.580        87
24.590        33
24.600        47
24.610        67
24.620        67
24.630        20
24.640        20
24.650        40
24.660        20
24.670        53
24.680        33
24.690        40
24.700        60
24.710        40
24.720        13
24.730        47
24.740        47
24.750        47
24.760        33
24.770        13
24.780        27
24.790        47
24.800        20
24.810         7
24.820        60
24.830        40
24.840        53
24.850        53
24.860        53
24.870        60
24.880        40
24.890        20
24.900        33
24.910        40
24.920        40
24.930        20
24.940        53
24.950        20
24.960        40
24.970        40
24.980        33
24.990        33
25.000        67
25.010        40
25.020        40
25.030        33
25.040        33
25.050        53
25.060        53
25.070        40
25.080        53
25.090        47
25.100        47
25.110        27
25.120        60
25.130        27
25.140        53
25.150        13
25.160        33
25.170        33
25.180        47
25.190        33
25.200        27
25.210        20
25.220        20
25.230        60
25.240         0
25.250        33
25.260        40
25.270        47
25.280        13
25.290        40
25.300        33
25.310        87
25.320        47
25.330        40
25.340        60
25.350        27
25.360        20
25.370        73
25.380        47
25.390        27
25.400        53
25.410        47
25.420        67
25.430        40
25.440        47
25.450        40
25.460        47
25.470        93
25.480        67
25.490        33
25.500        60
25.510        80
25.520       100
25.530       193
25.540       127
25.550       180
25.560       193
25.570       367
25.580       267
25.590       260
25.600       180
25.610       180
25.620       193
25.630       187
25.640       200
25.650       193
25.660       113
25.670       113
25.680       120
25.690        67
25.700        47
25.710        60
25.720        53
25.730        40
25.740        13
25.750        20
25.760        53
25.770        73
25.780        40
25.790        53
25.800        47
25.810        47
25.820        20
25.830        13
25.840        67
25.850        27
25.860        20
25.870        20
25.880        33
25.890        33
25.900        60
25.910        20
25.920        13
25.930        27
25.940        27
25.950        80
25.960        33
25.970        60
25.980        47
25.990         7
26.000        13
26.010        27
26.020        47
26.030        40
26.040        27
26.050        60
26.060        53
26.070        73
26.080        40
26.090        47
26.100        67
26.110        27
26.120        40
26.130        20
26.140        20
26.150        47
26.160        27
26.170        27
26.180        40
26.190        60
26.200        33
26.210        13
26.220        33
26.230        33
26.240        13
26.250        53
26.260        20
26.270        53
26.280        47
26.290        33
26.300        27
26.310        67
26.320        53
26.330         7
26.340        20
26.350        47
26.360        60
26.370        20
26.380        27
26.390         7
26.400        40
26.410        33
26.420        40
26.430        47
26.440        20
26.450         7
26.460        47
26.470        13
26.480         7
26.490        33
26.500        27
26.510        53
26.520        20
26.530        33
26.540        40
26.550        20
26.560        47
26.570        27
26.580        33
26.590        47
26.600        33
26.610        27
26.620        60
26.630        53
26.640        13
26.650        33
26.660        33
26.670        33
26.680        40
26.690        20
26.700        60
26.710        20
26.720        20
26.730        33
26.740        20
26.750        27
26.760        27
26.770        40
26.780        33
26.790        47
26.800        40
26.810        33
26.820        27
26.830        27
26.840        40
26.850        13
26.860        60
26.870        40
26.880        20
26.890        33
26.900        13
26.910        33
26.920        27
26.930        20
26.940        20
26.950        60
26.960        33
26.970        40
26.980        27
26.990        53
27.000        27
27.010        27
27.020        40
27.030        20
27.040        53
27.050        13
27.060        27
27.070        33
27.080        33
27.090        13
27.100        60
27.110        33
27.120        33
27.130        13
27.140        40
27.150        47
27.160        33
27.170        47
27.180        27
27.190        47
27.200        33
27.210        40
27.220        27
27.230        27
27.240        20
27.250        20
27.260        33
27.270        20
27.280        20
27.290        40
27.300        27
27.310        20
27.320        40
27.330        27
27.340        33
27.350        20
27.360        20
27.370        13
27.380        13
27.390         7
27.400        27
27.410        47
27.420        33
27.430         7
27.440        20
27.450        27
27.460        60
27.470        20
27.480        13
27.490        20
27.500        33
27.510        33
27.520        60
27.530        27
27.540        33
27.550        40
27.560        40
27.570        20
27.580         7
27.590        27
27.600        27
27.610        27
27.620        47
27.630        20
27.640        20
27.650        20
27.660        33
27.670        13
27.680        20
27.690        33
27.700        20
27.710        20
27.720        47
27.730        20
27.740        27
27.750        20
27.760        20
27.770        27
27.780        13
27.790        27
27.800        27
27.810        40
27.820        33
27.830         7
27.840        47
27.850        20
27.860        13
27.870        27
27.880        40
27.890        33
27.900        27
27.910        33
27.920        20
27.930        27
27.940        13
27.950        33
27.960        47
27.970         0
27.980        40
27.990        33
28.000        33
28.010        27
28.020        60
28.030        33
28.040        33
28.050        53
28.060        47
28.070        40
28.080        40
28.090        33
28.100        33
28.110        33
28.120        40
28.130        27
28.140        27
28.150        47
28.160        27
28.170        13
28.180        33
28.190        20
28.200        20
28.210         7
28.220        20
28.230        27
28.240        20
28.250        40
28.260        60
28.270        13
28.280        27
28.290        47
28.300        33
28.310        27
28.320        53
28.330        13
28.340        27
28.350        27
28.360        33
28.370        13
28.380        53
28.390        20
28.400        27
28.410        40
28.420        40
28.430        33
28.440        27
28.450        27
28.460        67
28.470        13
28.480        40
28.490         7
28.500        33
28.510        33
28.520        20
28.530        47
28.540        20
28.550        27
28.560        33
28.570        47
28.580        13
28.590         7
28.600        33
28.610        47
28.620        33
28.630        27
28.640        53
28.650        20
28.660         7
28.670        47
28.680        13
28.690        33
28.700        20
28.710        53
28.720        33
28.730        13
28.740        53
28.750        13
28.760        40
28.770        33
28.780        13
28.790        27
28.800        27
28.810        20
28.820        47
28.830        33
28.840        33
28.850        27
28.860        13
28.870        27
28.880        33
28.890        67
28.900        27
28.910        20
28.920        13
28.930        27
28.940        40
28.950        47
28.960        53
28.970         7
28.980        40
28.990        27
29.000        47
29.010        13
29.020        33
29.030        20
29.040        40
29.050        13
29.060        13
29.070        13
29.080        40
29.090        27
29.100        13
29.110        53
29.120        27
29.130        13
29.140        47
29.150        47
29.160        27
29.170        40
29.180        33
29.190        33
29.200        27
29.210        27
29.220        13
29.230        20
29.240        47
29.250        33
29.260        33
29.270        20
29.280        27
29.290        27
29.300        40
29.310        33
29.320         7
29.330        20
29.340        20
29.350        27
29.360        33
29.370        27
29.380        40
29.390         7
29.400        40
29.410        33
29.420        40
29.430        47
29.440        27
29.450        40
29.460        60
29.470        20
29.480        33
29.490        60
29.500        33
29.510        20
29.520        40
29.530        27
29.540        33
29.550        13
29.560        33
29.570        53
29.580        27
29.590        47
29.600        27
29.610        20
29.620        13
29.630        40
29.640        27
29.650        33
29.660        33
29.670        33
29.680        27
29.690        27
29.700        13
29.710        27
29.720         0
29.730        33
29.740        53
29.750        40
29.760        13
29.770        20
29.780        13
29.790        27
29.800        13
29.810        20
29.820        33
29.830        40
29.840        27
29.850        60
29.860        40
29.870        40
29.880         7
29.890        27
29.900        20
29.910         7
29.920        47
29.930        40
29.940        40
29.950        13
29.960        33
29.970        27
29.980        33
29.990        33
30.000        27
30.010        33
30.020        53
30.030        60
30.040        27
30.050        27
30.060        40
30.070        27
30.080        20
30.090        33
30.100        33
30.110        13
30.120        60
30.130        20
30.140        20
30.150        33
30.160        20
30.170         7
30.180        40
30.190        33
30.200        40
30.210        20
30.220        27
30.230        40
30.240        20
30.250         7
30.260        33
30.270        47
30.280        33
30.290        80
30.300        33
30.310        47
30.320        20
30.330         7
30.340        47
30.350        20
30.360         0
30.370        33
30.380        33
30.390        33
30.400        20
30.410        13
30.420        33
30.430        40
30.440        53
30.450        40
30.460        40
30.470        40
30.480        53
30.490        40
30.500        27
30.510        13
30.520        20
30.530        40
30.540        27
30.550        33
30.560        47
30.570        20
30.580        40
30.590        40
30.600        27
30.610        20
30.620        20
30.630        40
30.640        53
30.650        53
30.660        27
30.670        27
30.680        40
30.690        33
30.700        33
30.710        33
30.720        40
30.730        20
30.740        67
30.750        20
30.760        47
30.770         7
30.780        47
30.790        27
30.800        20
30.810         7
30.820        27
30.830        47
30.840        47
30.850        33
30.860        60
30.870        20
30.880        20
30.890        33
30.900        53
30.910        47
30.920        33
30.930        20
30.940        33
30.950        40
30.960        33
30.970        40
30.980        27
30.990        27
31.000        27
31.010        47
31.020        33
31.030         0
31.040        33
31.050        33
31.060        47
31.070        27
31.080        13
31.090        13
31.100        53
31.110        27
31.120        53
31.130        47
31.140        27
31.150        33
31.160        47
31.170        27
31.180        53
31.190        47
31.200        40
31.210        40
31.220        27
31.230        47
31.240        40
31.250        60
31.260        40
31.270        20
31.280        53
31.290        33
31.300        93
31.310        27
31.320        33
31.330        27
31.340        87
31.350        60
31.360        47
31.370        47
31.380        13
31.390        20
31.400        67
31.410        40
31.420        33
31.430        73
31.440        53
31.450        60
31.460        33
31.470        20
31.480        47
31.490        33
31.500        80
31.510        47
31.520        27
31.530        53
31.540        33
31.550        20
31.560        60
31.570        27
31.580        13
31.590        27
31.600        67
31.610        60
31.620        40
31.630        60
31.640        80
31.650        47
31.660        60
31.670        73
31.680        20
31.690        53
31.700        40
31.710        27
31.720        40
31.730        40
31.740        60
31.750        27
31.760        27
31.770        40
31.780        33
31.790        33
31.800        40
31.810        27
31.820        47
31.830        33
31.840        40
31.850        33
31.860        53
31.870        33
31.880        47
31.890        67
31.900        73
31.910        33
31.920        67
31.930        53
31.940        67
31.950       113
31.960        40
31.970        80
31.980        80
31.990       127
32.000       113
32.010        73
32.020        80
32.030       113
32.040       100
32.050        93
32.060        93
32.070        80
32.080       140
32.090       153
32.100       127
32.110       147
32.120       173
32.130       160
32.140       160
32.150       180
32.160       220
32.170       193
32.180       313
32.190       247
32.200       253
32.210       293
32.220       313
32.230       387
32.240       333
32.250       400
32.260       347
32.270       367
32.280       373
32.290       313
32.300       353
32.310       387
32.320       333
32.330       333
32.340       300
32.350       320
32.360       367
32.370       253
32.380       300
32.390       287
32.400       273
32.410       247
32.420       227
32.430       180
32.440       213
32.450       193
32.460       167
32.470       253
32.480       180
32.490       133
32.500       147
32.510        93
32.520       107
32.530        93
32.540        87
32.550        87
32.560        60
32.570        80
32.580       100
32.590       107
32.600        53
32.610       120
32.620        53
32.630        40
32.640        67
32.650        27
32.660        73
32.670       100
32.680        67
32.690        60
32.700        67
32.710        20
32.720        40
32.730        47
32.740        73
32.750        73
32.760        27
32.770        60
32.780        27
32.790        53
32.800        27
32.810        53
32.820        67
32.830        40
32.840        13
32.850        33
32.860        67
32.870        33
32.880        53
32.890        33
32.900        33
32.910        33
32.920        47
32.930        27
32.940        53
32.950        20
32.960        40
32.970        27
32.980        20
32.990        47
33.000        33
33.010        27
33.020        33
33.030        47
33.040        60
33.050        33
33.060        33
33.070        33
33.080        53
33.090        33
33.100        20
33.110        47
33.120        27
33.130        40
33.140        40
33.150        40
33.160        73
33.170        40
33.180        60
33.190        73
33.200        27
33.210        53
33.220        27
33.230        27
33.240         7
33.250        27
33.260         7
33.270        47
33.280        20
33.290        47
33.300        13
33.310        40
33.320        20
33.330        27
33.340        13
33.350        60
33.360        20
33.370        33
33.380        80
33.390        33
33.400        20
33.410        33
33.420        20
33.430        33
33.440        27
33.450        47
33.460        33
33.470        47
33.480        13
33.490        47
33.500        27
33.510        13
33.520        33
33.530        20
33.540        27
33.550        27
33.560        13
33.570        60
33.580        27
33.590        20
33.600        20
33.610        33
33.620        27
33.630        47
33.640        27
33.650        40
33.660        20
33.670        40
33.680        53
33.690        33
33.700        53
33.710        40
33.720        27
33.730        33
33.740        40
33.750        40
33.760        47
33.770        33
33.780        13
33.790        33
33.800        40
33.810        27
33.820        40
33.830        33
33.840        20
33.850        53
33.860        20
33.870        33
33.880        27
33.890        20
33.900        13
33.910        13
33.920        40
33.930        27
33.940        27
33.950        40
33.960        40
33.970        13
33.980        47
33.990        20
34.000        47
34.010        53
34.020        27
34.030        40
34.040        40
34.050        73
34.060        40
34.070        53
34.080        13
34.090        40
34.100        27
34.110        27
34.120        27
34.130        27
34.140        27
34.150        47
34.160        13
34.170        13
34.180        40
34.190        20
34.200         0
34.210        27
34.220        53
34.230        60
34.240        40
34.250        20
34.260        20
34.270         7
34.280        13
34.290        47
34.300        53
34.310         7
34.320        20
34.330        27
34.340        13
34.350        47
34.360        47
34.370        20
34.380        13
34.390        40
34.400        20
34.410        33
34.420        13
34.430        13
34.440        33
34.450        47
34.460         0
34.470        33
34.480        20
34.490        20
34.500        27
34.510        47
34.520        27
34.530        40
34.540        40
34.550        60
34.560        47
34.570         7
34.580        13
34.590         7
34.600        33
34.610        13
34.620        27
34.630        33
34.640        40
34.650        40
34.660         0
34.670        27
34.680        13
34.690        13
34.700        40
34.710        40
34.720        40
34.730        33
34.740        60
34.750        20
34.760        20
34.770         7
34.780        13
34.790        33
34.800        20
34.810        13
34.820        13
34.830        27
34.840        47
34.850        40
34.860        13
34.870        33
34.880        27
34.890        40
34.900        20
34.910        60
34.920        33
34.930        13
34.940        87
34.950        40
34.960        33
34.970        73
34.980        27
34.990        47
35.000        53
35.010        60
35.020        60
35.030        73
35.040        80
35.050        73
35.060        93
35.070        67
35.080        87
35.090       100
35.100       160
35.110       173
35.120       213
35.130       240
35.140       473
35.150       367
35.160       347
35.170       420
35.180       493
35.190       307
35.200       400
35.210       180
35.220       180
35.230       240
35.240       287
35.250       193
35.260       327
35.270       227
35.280       180
35.290        93
35.300       100
35.310        80
35.320        27
35.330        20
35.340        60
35.350        20
35.360        53
35.370        27
35.380        27
35.390        40
35.400        47
35.410        47
35.420        13
35.430        33
35.440        40
35.450        27
35.460        53
35.470        20
35.480        13
35.490        20
35.500        27
35.510        13
35.520         7
35.530        13
35.540        27
35.550        20
35.560        40
35.570        13
35.580        13
35.590        40
35.600        13
35.610        27
35.620        40
35.630        27
35.640        13
35.650        13
35.660        13
35.670        13
35.680        13
35.690        40
35.700        27
35.710        13
35.720        33
35.730        33
35.740        60
35.750        20
35.760        27
35.770        33
35.780        40
35.790        20
35.800        20
35.810        13
35.820        13
35.830        27
35.840        33
35.850        40
35.860         7
35.870        20
35.880        47
35.890        33
35.900        33
35.910        27
35.920        13
35.930        33
35.940        33
35.950        27
35.960        27
35.970         0
35.980        60
35.990        27
36.000        20
36.010        33
36.020        27
36.030        13
36.040         7
36.050         0
36.060        20
36.070        27
36.080        13
36.090        27
36.100        20
36.110        33
36.120        27
36.130        13
36.140         7
36.150        27
36.160        13
36.170        13
36.180         7
36.190        13
36.200        20
36.210        47
36.220        20
36.230        40
36.240        20
36.250        27
36.260        33
36.270        40
36.280        20
36.290        20
36.300        53
36.310        27
36.320        13
36.330        13
36.340        27
36.350        20
36.360        20
36.370         7
36.380        27
36.390        27
36.400        13
36.410        33
36.420        20
36.430        33
36.440        27
36.450        27
36.460        27
36.470        20
36.480        13
36.490         0
36.500        27
36.510         7
36.520         7
36.530        13
36.540        27
36.550        33
36.560        47
36.570        47
36.580         7
36.590        20
36.600        20
36.610        33
36.620        20
36.630        53
36.640        20
36.650        27
36.660        13
36.670        27
36.680         7
36.690        13
36.700        20
36.710        27
36.720        13
36.730        40
36.740        13
36.750        33
36.760        40
36.770        40
36.780        27
36.790        33
36.800        27
36.810        33
36.820        47
36.830        20
36.840        27
36.850         7
36.860        33
36.870        67
36.880        20
36.890        40
36.900        53
36.910        33
36.920        33
36.930        27
36.940        33
36.950        40
36.960        40
36.970        33
36.980        47
36.990        20
37.000        47
37.010        20
37.020        33
37.030        47
37.040        13
37.050        13
37.060        53
37.070        40
37.080        33
37.090         7
37.100         0
37.110        27
37.120        33
37.130        13
37.140         7
37.150        20
37.160        40
37.170        33
37.180        13
37.190        20
37.200         7
37.210        40
37.220        53
37.230         7
37.240        27
37.250        53
37.260        27
37.270        27
37.280        33
37.290        47
37.300        27
37.310        53
37.320        13
37.330        27
37.340        33
37.350        13
37.360        13
37.370         7
37.380        13
37.390        33
37.400         7
37.410        27
37.420        60
37.430         7
37.440        27
37.450        27
37.460        20
37.470        27
37.480        40
37.490        53
37.500        40
37.510        33
37.520        40
37.530         0
37.540        53
37.550        27
37.560        20
37.570        27
37.580        53
37.590        47
37.600        33
37.610        33
37.620        40
37.630        40
37.640        27
37.650        40
37.660        33
37.670        47
37.680        40
37.690        33
37.700        40
37.710        27
37.720        80
37.730       100
37.740        93
37.750       127
37.760       180
37.770       113
37.780       133
37.790       107
37.800        73
37.810        47
37.820        47
37.830        47
37.840        73
37.850        47
37.860        87
37.870        93
37.880        47
37.890        73
37.900        47
37.910        20
37.920        27
37.930        27
37.940        33
37.950        27
37.960        40
37.970        13
37.980        53
37.990        40
38.000        20
38.010        27
38.020        40
38.030        20
38.040        40
38.050        33
38.060        40
38.070        40
38.080        53
38.090        27
38.100        27
38.110        27
38.120        27
38.130         7
38.140        13
38.150        27
38.160        20
38.170        27
38.180        27
38.190        33
38.200        40
38.210        13
38.220        27
38.230        27
38.240        33
38.250        27
38.260        27
38.270        13
38.280        13
38.290        47
38.300        13
38.310        13
38.320        27
38.330        40
38.340        27
38.350        33
38.360        20
38.370        40
38.380        47
38.390        27
38.400        20
38.410        27
38.420         7
38.430        27
38.440        20
38.450        20
38.460        33
38.470        20
38.480        20
38.490         7
38.500        13
38.510         7
38.520        20
38.530        13
38.540        20
38.550        13
38.560        33
38.570        27
38.580         7
38.590         7
38.600         7
38.610        33
38.620        13
38.630        33
38.640        40
38.650        67
38.660        33
38.670        20
38.680         7
38.690        27
38.700        13
38.710        20
38.720        33
38.730        33
38.740        33
38.750        33
38.760        33
38.770        27
38.780        47
38.790         0
38.800        20
38.810        33
38.820        33
38.830        20
38.840         7
38.850        20
38.860         7
38.870        20
38.880        40
38.890         7
38.900        20
38.910         7
38.920        27
38.930        13
38.940        20
38.950        33
38.960        33
38.970        40
38.980         7
38.990         7
39.000        40
39.010        20
39.020        33
39.030        13
39.040        13
39.050        60
39.060        27
39.070        20
39.080        27
39.090        33
39.100        20
39.110        13
39.120        20
39.130        13
39.140        27
39.150        13
39.160         7
39.170        13
39.180        13
39.190        20
39.200        87
39.210        13
39.220         7
39.230        40
39.240        20
39.250        27
39.260        27
39.270        53
39.280        60
39.290         0
39.300        40
39.310        33
39.320        27
39.330        27
39.340        13
39.350        33
39.360        13
39.370        33
39.380        20
39.390         0
39.400        27
39.410        13
39.420        60
39.430        33
39.440        20
39.450        20
39.460        20
39.470        20
39.480        13
39.490        27
39.500        20
39.510        33
39.520         0
39.530        33
39.540        33
39.550        33
39.560        20
39.570        33
39.580        40
39.590        13
39.600        40
39.610        27
39.620         7
39.630        13
39.640        33
39.650        27
39.660        27
39.670        40
39.680        60
39.690        27
39.700        53
39.710        33
39.720        33
39.730        20
39.740        40
39.750        40
39.760        20
39.770        53
39.780        47
39.790        73
39.800        80
39.810        40
39.820        53
39.830        80
39.840        87
39.850        27
39.860        47
39.870        67
39.880        60
39.890        73
39.900        87
39.910        53
39.920        40
39.930        47
39.940        47
39.950        73
39.960        60
39.970        33
39.980        13
39.990        53
40.000        33
40.010        20
40.020        27
40.030        27
40.040        33
40.050        27
40.060        33
40.070        20
40.080        33
40.090        27
40.100        40
40.110        20
40.120        27
40.130        40
40.140        33
40.150        13
40.160        13
40.170        13
40.180        20
40.190        13
40.200         7
40.210         7
40.220         7
40.230        20
40.240         7
40.250        20
40.260        40
40.270        13
40.280        33
40.290        27
40.300        13
40.310        20
40.320        33
40.330         7
40.340        20
40.350         7
40.360        27
40.370        40
40.380        27
40.390        33
40.400        20
40.410         7
40.420        13
40.430         7
40.440        13
40.450        13
40.460        20
40.470        33
40.480        13
40.490        27
40.500        20
40.510        40
40.520        27
40.530        40
40.540         7
40.550        27
40.560        27
40.570        33
40.580        20
40.590        47
40.600         7
40.610        47
40.620        33
40.630        20
40.640        20
40.650        33
40.660        13
40.670        47
40.680        13
40.690        13
40.700        20
40.710        20
40.720        13
40.730        13
40.740        13
40.750         0
40.760        27
40.770        33
40.780        27
40.790        20
40.800        33
40.810        33
40.820        13
40.830        13
40.840         7
40.850        20
40.860        13
40.870        27
40.880         0
40.890        20
40.900        20
40.910        13
40.920        27
40.930         7
40.940        33
40.950        20
40.960        67
40.970        13
40.980        13
40.990        13
41.000        13
41.010        27
41.020        33
41.030        40
41.040        13
41.050        33
41.060        33
41.070        27
41.080        47
41.090        47
41.100        27
41.110        47
41.120        20
41.130        33
41.140         7
41.150        47
41.160        20
41.170        20
41.180        27
41.190        33
41.200         7
41.210        40
41.220         0
41.230        40
41.240        20
41.250        27
41.260        20
41.270        27
41.280        13
41.290        53
41.300        20
41.310        20
41.320        20
41.330        20
41.340        20
41.350        13
41.360        33
41.370        20
41.380        40
41.390        47
41.400        40
41.410        20
41.420        20
41.430        13
41.440        27
41.450        33
41.460        40
41.470        67
41.480        40
41.490        20
41.500        33
41.510        33
41.520        40
41.530        33
41.540        73
41.550        53
41.560        53
41.570        87
41.580        80
41.590       107
41.600        80
41.610       133
41.620       113
41.630        93
41.640       153
41.650       247
41.660       180
41.670       267
41.680       227
41.690       267
41.700       200
41.710       220
41.720       193
41.730       140
41.740       167
41.750       147
41.760       107
41.770       187
41.780       193
41.790       127
41.800       160
41.810        53
41.820        80
41.830       113
41.840        67
41.850        60
41.860        67
41.870        33
41.880        40
41.890        40
41.900         7
41.910        20
41.920        33
41.930        47
41.940       173
41.950        20
41.960        13
41.970        27
41.980        13
41.990        47
42.000        20
42.010        13
42.020        33
42.030        20
42.040        20
42.050        20
42.060        47
42.070        20
42.080         7
42.090         7
42.100        47
42.110         7
42.120        27
42.130        13
42.140        33
42.150        13
42.160        13
42.170        20
42.180         7
42.190        20
42.200         7
42.210        13
42.220        40
42.230        20
42.240        20
42.250        47
42.260        13
42.270        20
42.280        13
42.290        13
42.300        33
42.310        27
42.320        27
42.330        27
42.340        20
42.350        20
42.360        40
42.370        20
42.380        20
42.390        20
42.400        33
42.410        20
42.420         0
42.430        40
42.440        27
42.450        60
42.460        20
42.470        40
42.480        40
42.490        20
42.500        27
42.510        40
42.520        33
42.530        27
42.540         0
42.550        20
42.560        13
42.570        33
42.580        13
42.590         7
42.600        40
42.610        20
42.620        40
42.630        33
42.640         0
42.650        20
42.660        20
42.670        20
42.680         7
42.690        20
42.700        20
42.710        27
42.720         7
42.730        27
42.740        40
42.750        60
42.760        33
42.770        20
42.780        27
42.790        13
42.800        20
42.810         7
42.820        20
42.830        27
42.840        20
42.850        13
42.860        13
42.870         0
42.880        13
42.890        27
42.900        40
42.910         7
42.920        20
42.930         0
42.940        27
42.950        47
42.960        13
42.970        27
42.980        27
42.990        13
43.000         7
43.010         7
43.020        40
43.030        20
43.040        13
43.050        27
43.060        20
43.070        13
43.080        47
43.090        20
43.100         7
43.110        27
43.120        53
43.130        20
43.140        27
43.150        33
43.160        53
43.170        33
43.180        40
43.190        33
43.200        33
43.210        27
43.220        53
43.230        53
43.240        80
43.250        53
43.260        73
43.270        87
43.280       107
43.290       127
43.300       180
43.310       273
43.320       300
43.330       373
43.340       360
43.350       433
43.360       586
43.370       460
43.380       553
43.390       440
43.400       473
43.410       553
43.420       333
43.430       260
43.440       260
43.450       227
43.460       227
43.470       340
43.480       333
43.490       320
43.500       280
43.510       193
43.520       193
43.530       267
43.540       213
43.550       100
43.560        87
43.570        73
43.580        53
43.590        33
43.600        60
43.610         0
43.620        13
43.630        33
43.640        33
43.650        33
43.660        40
43.670        53
43.680        20
43.690        60
43.700        13
43.710        27
43.720        13
43.730        53
43.740         7
43.750        27
43.760        13
43.770         0
43.780        27
43.790        13
43.800        40
43.810        20
43.820        40
43.830        13
43.840        20
43.850        27
43.860        20
43.870        13
43.880        47
43.890        20
43.900         7
43.910        13
43.920         7
43.930        27
43.940         7
43.950        27
43.960        13
43.970        13
43.980        27
43.990        13
44.000         7
44.010        33
44.020        20
44.030         7
44.040         7
44.050        20
44.060        20
44.070        13
44.080        33
44.090        27
44.100        13
44.110        33
44.120         0
44.130        27
44.140        33
44.150        27
44.160        13
44.170        13
44.180        20
44.190         7
44.200         7
44.210        27
44.220        20
44.230        20
44.240        20
44.250         7
44.260        13
44.270        13
44.280        13
44.290        73
44.300         7
44.310        13
44.320         0
44.330        13
44.340        13
44.350        27
44.360        33
44.370        27
44.380         0
44.390        20
44.400         7
44.410        53
44.420        20
44.430        20
44.440        20
44.450        20
44.460         0
44.470        20
44.480        40
44.490        13
44.500        13
44.510        20
44.520        13
44.530        33
44.540        13
44.550        20
44.560        20
44.570        13
44.580        27
44.590        20
44.600        40
44.610        13
44.620        27
44.630         7
44.640        20
44.650        27
44.660         7
44.670        13
44.680        33
44.690        20
44.700        13
44.710        40
44.720        27
44.730         7
44.740        27
44.750         7
44.760        33
44.770        33
44.780         0
44.790         0
44.800        27
44.810        20
44.820        13
44.830        40
44.840         7
44.850        20
44.860        33
44.870        27
44.880        60
44.890         0
44.900        27
44.910        13
44.920        40
44.930        40
44.940        27
44.950        33
44.960        33
44.970        27
44.980        27
44.990        40
45.000        27
45.010        13
45.020        27
45.030        33
45.040        13
45.050        33
45.060        13
45.070        20
45.080        27
45.090        20
45.100        13
45.110        27
45.120        13
45.130        13
45.140         0
45.150        40
45.160        13
45.170         7
45.180        47
45.190        27
45.200        20
45.210         7
45.220        53
45.230        33
45.240         7
45.250        40
45.260        13
45.270        20
45.280         7
45.290        13
45.300        20
45.310        40
45.320        20
45.330         0
45.340        13
45.350        40
45.360        20
45.370        20
45.380        33
45.390        27
45.400        47
45.410        47
45.420        40
45.430        53
45.440        27
45.450        20
45.460        60
45.470        27
45.480        47
45.490        13
45.500        20
45.510        13
45.520        13
45.530        53
45.540        27
45.550        20
45.560        20
45.570        60
45.580        27
45.590        27
45.600        40
45.610        20
45.620        33
45.630        13
45.640        20
45.650        20
45.660        27
45.670        33
45.680        40
45.690        47
45.700        27
45.710        27
45.720        33
45.730        27
45.740         7
45.750        13
45.760        67
45.770        13
45.780        13
45.790        60
45.800        60
45.810        47
45.820        33
45.830        27
45.840        47
45.850        87
45.860        40
45.870        53
45.880        47
45.890        47
45.900        40
45.910        53
45.920        53
45.930        53
45.940        53
45.950        67
45.960       100
45.970        73
45.980        93
45.990       100
46.000        80
46.010        60
46.020       107
46.030       100
46.040       100
46.050        67
46.060        93
46.070       133
46.080       100
46.090        87
46.100       133
46.110        80
46.120       100
46.130       127
46.140       100
46.150       127
46.160       127
46.170       200
46.180       133
46.190        87
46.200       160
46.210       107
46.220       160
46.230       140
46.240       173
46.250       120
46.260        67
46.270       107
46.280        87
46.290       113
46.300        87
46.310        80
46.320        80
46.330        73
46.340        73
46.350        80
46.360        87
46.370       127
46.380        40
46.390        60
46.400        53
46.410        73
46.420        80
46.430        60
46.440        47
46.450       120
46.460        47
46.470        47
46.480        40
46.490        60
46.500        47
46.510        33
46.520        53
46.530        33
46.540        33
46.550        20
46.560        20
46.570        33
46.580        47
46.590        13
46.600        20
46.610        20
46.620        40
46.630        20
46.640        40
46.650        13
46.660        40
46.670        20
46.680        20
46.690        53
46.700        47
46.710        27
46.720        20
46.730         7
46.740        27
46.750        40
46.760        60
46.770        33
46.780        13
46.790        27
46.800        20
46.810        20
46.820        40
46.830         7
46.840        27
46.850        27
46.860         7
46.870        13
46.880        20
46.890        20
46.900        20
46.910        13
46.920        13
46.930        33
46.940        13
46.950        20
46.960        27
46.970        27
46.980        20
46.990        27
47.000         7
47.010         7
47.020        20
47.030        20
47.040        13
47.050        13
47.060        27
47.070        20
47.080        40
47.090        33
47.100        13
47.110         7
47.120        33
47.130        13
47.140        27
47.150        13
47.160        20
47.170        13
47.180        33
47.190        40
47.200        27
47.210        27
47.220         7
47.230        40
47.240        13
47.250         7
47.260        27
47.270        20
47.280        13
47.290         7
47.300        27
47.310         0
47.320        47
47.330        13
47.340        13
47.350        20
47.360         0
47.370        13
47.380        27
47.390        13
47.400        27
47.410        27
47.420         7
47.430        13
47.440        40
47.450        20
47.460        13
47.470        20
47.480        27
47.490        13
47.500        20
47.510        20
47.520         7
47.530         7
47.540        20
47.550        13
47.560        40
47.570        20
47.580        20
47.590        20
47.600        47
47.610         7
47.620        27
47.630        13
47.640         7
47.650        13
47.660        20
47.670         7
47.680         7
47.690        13
47.700        13
47.710        13
47.720         7
47.730        27
47.740        13
47.750        13
47.760         0
47.770         0
47.780        20
47.790        27
47.800         0
47.810        27
47.820         7
47.830         7
47.840         7
47.850        13
47.860         7
47.870        20
47.880        20
47.890        13
47.900         7
47.910         7
47.920         7
47.930        20
47.940         7
47.950         0
47.960        27
47.970        13
47.980        27
47.990        20
48.000        27
48.010        40
48.020        13
48.030        20
48.040        13
48.050        27
48.060        33
48.070         0
48.080        20
48.090        33
48.100        20
48.110         7
48.120        20
48.130        20
48.140        20
48.150        20
48.160        20
48.170         7
48.180         7
48.190         7
48.200        13
48.210         7
48.220        20
48.230        13
48.240        13
48.250         7
48.260        27
48.270        13
48.280        40
48.290         7
48.300        20
48.310        20
48.320        27
48.330        47
48.340        27
48.350        27
48.360         7
48.370        13
48.380        27
48.390        13
48.400         0
48.410         7
48.420        13
48.430        20
48.440        20
48.450        27
48.460        13
48.470        20
48.480        20
48.490        13
48.500         0
48.510        20
48.520        20
48.530         0
48.540         7
48.550        20
48.560        47
48.570        13
48.580         7
48.590         0
48.600         7
48.610        13
48.620        20
48.630        13
48.640        20
48.650         7
48.660        20
48.670        27
48.680         7
48.690         7
48.700        20
48.710        27
48.720        13
48.730         0
48.740        27
48.750         7
48.760        20
48.770        40
48.780         7
48.790        13
48.800         7
48.810        40
48.820        20
48.830        13
48.840        13
48.850         0
48.860        40
48.870        13
48.880        13
48.890         0
48.900        27
48.910        33
48.920        27
48.930         7
48.940        20
48.950         0
48.960        20
48.970         7
48.980         7
48.990         0
49.000         7
49.010        40
49.020        13
49.030        13
49.040         0
49.050         0
49.060         7
49.070         7
49.080         7
49.090        20
49.100        13
49.110         7
49.120         7
49.130        20
49.140         0
49.150        20
49.160         7
49.170        27
49.180        13
49.190         7
49.200         7
49.210        40
49.220         7
49.230         7
49.240         7
49.250        27
49.260         0
49.270        13
49.280         0
49.290        13
49.300        20
49.310        13
49.320        13
49.330        13
49.340         7
49.350         7
49.360        20
49.370        27
49.380        13
49.390        47
49.400         7
49.410         7
49.420         7
49.430        13
49.440        27
49.450         0
49.460         0
49.470         0
49.480        13
49.490         7
49.500         0
49.510         0
49.520        20
49.530        33
49.540        13
49.550        13
49.560        13
49.570        27
49.580        20
49.590        20
49.600         7
49.610        33
49.620        33
49.630        27
49.640        20
49.650        20
49.660        20
49.670        20
49.680         7
49.690        27
49.700        27
49.710        20
49.720        40
49.730         7
49.740        33
49.750        33
49.760        33
49.770        27
49.780        13
49.790        20
49.800         0
49.810         7
49.820        27
49.830         7
49.840         7
49.850         7
49.860        13
49.870        33
49.880         7
49.890         7
49.900        33
49.910        13
49.920        20
49.930        20
49.940        13
49.950         0
49.960        27
49.970         7
49.980        20
49.990         7
50.000        20
50.010        33
50.020        27
50.030         7
50.040        33
50.050        27
50.060         0
50.070         0
50.080        13
50.090        33
50.100         7
50.110        27
50.120         0
50.130        27
50.140        13
50.150         0
50.160        33
50.170        27
50.180        20
50.190         7
50.200        53
50.210         7
50.220         7
50.230        13
50.240        13
50.250        27
50.260        13
50.270        33
50.280        20
50.290        13
50.300        13
50.310        33
50.320        13
50.330        20
50.340        20
50.350         7
50.360         7
50.370        13
50.380         7
50.390         0
50.400        20
50.410        33
50.420         7
50.430        27
50.440         7
50.450        13
50.460         0
50.470        13
50.480         0
50.490         7
50.500        20
50.510        20
50.520         0
50.530         0
50.540         0
50.550        13
50.560        20
50.570        13
50.580        13
50.590        13
50.600        13
50.610        20
50.620        13
50.630        20
50.640         7
50.650        27
50.660        13
50.670         7
50.680         7
50.690        13
50.700         7
50.710        27
50.720        13
50.730        13
50.740         0
50.750         0
50.760        13
50.770         0
50.780        20
50.790        20
50.800        13
50.810         7
50.820        20
50.830        13
50.840        20
50.850        33
50.860        20
50.870        13
50.880        27
50.890         0
50.900        13
50.910        20
50.920        33
50.930        13
50.940        13
50.950        20
50.960        13
50.970        20
50.980         7
50.990        13
51.000         0
51.010         7
51.020        13
51.030         7
51.040         7
51.050         7
51.060        20
51.070        27
51.080         0
51.090         7
51.100        20
51.110         7
51.120        27
51.130         7
51.140         7
51.150         7
51.160        27
51.170        20
51.180         7
51.190        27
51.200         0
51.210        20
51.220         7
51.230        13
51.240        20
51.250        20
51.260        13
51.270         7
51.280         7
51.290         7
51.300        27
51.310        13
51.320        27
51.330        13
51.340        20
51.350        20
51.360        20
51.370        13
51.380         7
51.390        13
51.400        33
51.410         7
51.420        27
51.430        13
51.440        27
51.450        20
51.460        20
51.470         7
51.480        33
51.490        20
51.500        13
51.510         7
51.520        13
51.530        33
51.540        20
51.550        13
51.560        27
51.570         0
51.580         0
51.590        47
51.600        27
51.610        13
51.620         7
51.630        13
51.640         7
51.650        20
51.660         0
51.670        20
51.680         7
51.690        13
51.700         7
51.710        27
51.720        20
51.730        20
51.740         7
51.750         7
51.760         0
51.770         0
51.780        27
51.790         0
51.800        27
51.810         7
51.820         0
51.830        27
51.840        13
51.850        13
51.860         7
51.870         7
51.880        13
51.890        20
51.900        20
51.910        13
51.920        13
51.930        13
51.940         7
51.950        13
51.960        20
51.970        13
51.980         0
51.990        13
52.000         7
52.010        20
52.020        33
52.030         7
52.040         7
52.050        27
52.060        27
52.070        27
52.080        13
52.090        33
52.100        13
52.110        13
52.120        40
52.130         0
52.140         7
52.150         0
52.160         7
52.170        47
52.180        13
52.190        47
52.200         0
52.210         7
52.220        13
52.230        20
52.240        13
52.250        27
52.260        27
52.270        27
52.280        27
52.290        33
52.300         7
52.310        40
52.320        20
52.330        33
52.340        60
52.350        27
52.360        40
52.370        13
52.380        27
52.390         7
52.400        27
52.410        53
52.420        40
52.430        13
52.440        53
52.450        40
52.460        47
52.470        20
52.480        13
52.490        67
52.500       107
52.510       120
52.520       233
52.530       147
52.540       353
52.550       273
52.560       340
52.570       387
52.580       400
52.590       240
52.600       207
52.610       187
52.620       127
52.630        93
52.640       107
52.650       113
52.660       147
52.670        93
52.680       160
52.690       120
52.700       147
52.710       167
52.720       160
52.730       167
52.740       147
52.750        93
52.760        60
52.770        73
52.780        60
52.790        33
52.800        47
52.810        60
52.820        13
52.830         7
52.840        13
52.850        33
52.860        20
52.870         7
52.880         7
52.890         7
52.900        20
52.910        27
52.920        20
52.930        13
52.940        33
52.950        40
52.960        20
52.970         7
52.980        13
52.990        13
53.000        33
53.010        40
53.020        13
53.030         7
53.040         0
53.050        13
53.060         7
53.070        53
53.080        13
53.090         7
53.100        13
53.110         7
53.120         7
53.130         0
53.140         0
53.150         0
53.160        13
53.170        13
53.180         7
53.190         7
53.200        13
53.210         7
53.220        13
53.230         7
53.240        13
53.250        33
53.260        13
53.270        13
53.280        13
53.290        20
53.300        33
53.310        27
53.320         7
53.330        13
53.340        13
53.350        13
53.360         7
53.370        20
53.380         7
53.390        27
53.400        13
53.410         0
53.420         0
53.430         7
53.440        13
53.450         7
53.460        13
53.470        13
53.480         7
53.490        20
53.500         7
53.510         7
53.520         7
53.530        20
53.540        33
53.550        13
53.560        13
53.570         0
53.580        13
53.590        33
53.600        27
53.610        20
53.620        33
53.630        27
53.640        13
53.650        13
53.660        40
53.670        20
53.680         7
53.690        33
53.700         7
53.710         0
53.720         7
53.730        20
53.740         7
53.750         0
53.760         0
53.770        13
53.780        33
53.790        13
53.800        13
53.810        20
53.820        20
53.830         0
53.840         7
53.850         7
53.860         7
53.870        27
53.880        13
53.890        27
53.900         0
53.910        13
53.920         7
53.930        13
53.940         7
53.950        13
53.960        27
53.970        20
53.980         0
53.990         7
54.000        20
54.010        20
54.020        20
54.030        13
54.040        20
54.050        20
54.060         0
54.070        13
54.080        13
54.090         7
54.100         0
54.110        20
54.120         0
54.130        20
54.140        13
54.150        13
54.160         7
54.170        20
54.180        20
54.190        13
54.200        27
54.210        27
54.220        13
54.230         7
54.240        13
54.250        33
54.260         7
54.270         7
54.280        13
54.290        13
54.300         7
54.310         7
54.320         0
54.330        13
54.340        13
54.350         0
54.360        13
54.370         7
54.380         7
54.390         7
54.400        13
54.410        13
54.420        13
54.430         0
54.440        13
54.450         7
54.460         7
54.470        13
54.480        27
54.490         0
54.500        27
54.510         7
54.520         0
54.530         7
54.540        13
54.550        20
54.560         0
54.570        27
54.580         0
54.590        13
54.600         7
54.610         0
54.620        13
54.630         7
54.640         7
54.650        27
54.660         0
54.670        13
54.680        13
54.690        20
54.700         0
54.710        47
54.720        13
54.730        13
54.740        13
54.750        27
54.760         0
54.770         7
54.780        47
54.790        20
54.800        13
54.810        40
54.820        20
54.830         0
54.840         0
54.850        20
54.860        13
54.870        27
54.880        13
54.890        27
54.900         0
54.910        27
54.920        20
54.930         0
54.940        20
54.950         7
54.960        13
54.970        27
54.980         7
54.990        33
55.000        33
55.010         7
55.020        13
55.030         7
55.040         0
55.050         0
55.060         7
55.070         0
55.080         0
55.090         7
55.100         0
55.110         7
55.120        20
55.130         0
55.140        20
55.150        13
55.160        20
55.170        13
55.180         7
55.190         7
55.200        33
55.210         0
55.220        13
55.230        33
55.240        13
55.250        20
55.260        13
55.270        27
55.280         0
55.290         7
55.300        27
55.310        13
55.320        20
55.330        27
55.340        13
55.350        27
55.360        20
55.370        13
55.380         0
55.390        13
55.400         7
55.410        27
55.420         0
55.430        13
55.440         7
55.450         7
55.460        13
55.470        13
55.480         7
55.490         7
55.500        33
55.510        13
55.520        13
55.530        27
55.540        27
55.550        13
55.560        40
55.570        27
55.580        13
55.590        13
55.600        27
55.610        53
55.620         7
55.630         0
55.640        13
55.650        20
55.660         7
55.670         7
55.680        27
55.690         7
55.700         7
55.710        33
55.720        27
55.730         0
55.740         7
55.750        20
55.760         7
55.770        27
55.780        47
55.790        20
55.800         7
55.810         7
55.820        20
55.830        13
55.840        20
55.850        27
55.860        13
55.870        13
55.880        13
55.890        27
55.900         0
55.910         7
55.920         0
55.930         0
55.940        20
55.950        20
55.960         0
55.970        20
55.980         0
55.990         7
56.000        13
56.010         0
56.020        13
56.030         7
56.040        13
56.050        20
56.060         7
56.070        20
56.080        27
56.090        27
56.100        13
56.110         7
56.120        40
56.130         7
56.140        13
56.150        13
56.160        20
56.170         7
56.180         7
56.190        13
56.200        27
56.210         0
56.220        33
56.230         7
56.240        13
56.250        13
56.260        13
56.270        27
56.280        20
56.290        27
56.300        27
56.310        20
56.320        13
56.330        20
56.340         0
56.350        20
56.360        13
56.370         7
56.380        20
56.390        33
56.400        13
56.410        20
56.420        20
56.430        33
56.440        13
56.450         7
56.460        13
56.470        13
56.480        20
56.490        13
56.500        20
56.510        27
56.520         7
56.530         7
56.540        27
56.550        13
56.560         7
56.570         7
56.580        20
56.590        27
56.600        20
56.610         7
56.620         7
56.630         7
56.640         0
56.650         7
56.660         7
56.670        13
56.680         7
56.690         7
56.700         0
56.710         7
56.720        40
56.730        13
56.740         7
56.750        40
56.760        13
56.770        20
56.780        13
56.790         0
56.800         7
56.810        13
56.820        20
56.830         0
56.840         7
56.850         7
56.860        33
56.870        13
56.880        20
56.890         7
56.900        13
56.910        27
56.920        20
56.930        20
56.940         7
56.950        13
56.960         0
56.970         0
56.980        20
56.990         7
57.000        13
57.010         0
57.020         0
57.030        20
57.040         7
57.050         7
57.060        20
57.070        27
57.080        13
57.090         7
57.100        27
57.110        20
57.120        13
57.130        40
57.140        27
57.150        33
57.160        13
57.170        20
57.180        20
57.190        27
57.200        20
57.210        13
57.220        20
57.230        33
57.240        40
57.250        20
57.260        40
57.270        13
57.280        53
57.290        67
57.300        40
57.310        47
57.320        40
57.330        53
57.340        40
57.350        27
57.360        53
57.370        33
57.380        53
57.390        27
57.400        53
57.410        53
57.420        73
57.430       140
57.440       100
57.450       207
57.460       147
57.470       220
57.480       207
57.490       280
57.500       460
57.510       486
57.520       686
57.530       720
57.540       906
57.550       773
57.560       553
57.570       520
57.580       446
57.590       267
57.600       280
57.610       160
57.620       120
57.630       180
57.640       200
57.650       187
57.660       253
57.670       280
57.680       253
57.690       426
57.700       500
57.710       387
57.720       373
57.730       353
57.740       173
57.750        87
57.760        60
57.770        73
57.780        80
57.790        27
57.800        60
57.810        27
57.820        53
57.830        20
57.840        53
57.850        47
57.860        27
57.870        20
57.880        27
57.890        13
57.900        20
57.910        13
57.920        20
57.930         7
57.940        27
57.950        13
57.960        40
57.970        13
57.980         7
57.990        27
58.000        40
58.010        13
58.020         7
58.030        27
58.040        27
58.050        20
58.060        13
58.070        33
58.080        13
58.090         7
58.100         7
58.110        13
58.120         0
58.130         7
58.140        13
58.150        20
58.160        13
58.170        27
58.180        13
58.190        20
58.200        27
58.210         7
58.220        47
58.230        20
58.240         7
58.250        20
58.260         7
58.270        13
58.280         0
58.290         0
58.300        20
58.310        20
58.320        33
58.330        27
58.340        33
58.350        20
58.360        27
58.370        13
58.380        13
58.390        33
58.400         7
58.410         0
58.420         7
58.430        13
58.440        20
58.450         0
58.460         0
58.470        27
58.480         0
58.490        27
58.500        20
58.510        20
58.520        13
58.530        27
58.540         7
58.550         0
58.560        27
58.570         7
58.580         7
58.590         0
58.600        33
58.610        20
58.620        20
58.630        13
58.640        33
58.650        13
58.660        13
58.670         0
58.680         7
58.690         0
58.700        20
58.710         7
58.720        13
58.730         0
58.740        13
58.750        13
58.760        20
58.770        13
58.780        13
58.790         7
58.800        33
58.810        20
58.820        13
58.830        20
58.840        27
58.850        13
58.860        13
58.870        27
58.880        27
58.890        20
58.900        20
58.910        20
58.920         0
58.930        27
58.940         7
58.950        27
58.960        13
58.970         0
58.980        13
58.990         7
59.000        13
59.010        13
59.020        13
59.030        27
59.040         7
59.050         7
59.060        20
59.070         7
59.080        13
59.090        20
59.100         7
59.110         0
59.120         7
59.130        13
59.140        27
59.150         7
59.160        13
59.170        20
59.180         0
59.190        20
59.200         7
59.210        20
59.220        13
59.230        13
59.240        13
59.250        13
59.260        20
59.270         7
59.280        13
59.290        40
59.300         0
59.310         7
59.320        20
59.330         0
59.340        27
59.350         7
59.360        27
59.370        13
59.380        27
59.390         7
59.400        27
59.410        13
59.420        13
59.430         7
59.440         7
59.450        13
59.460        27
59.470         7
59.480        27
59.490        13
59.500        33
59.510         0
59.520         7
59.530        27
59.540         7
59.550         7
59.560        40
59.570        13
59.580        13
59.590        20
59.600        27
59.610        13
59.620         7
59.630         7
59.640        33
59.650        13
59.660        27
59.670         7
59.680        27
59.690        33
59.700        20
59.710        13
59.720        20
59.730        13
59.740        20
59.750        13
59.760        33
59.770        13
59.780         7
59.790        20
59.800        20
59.810        13
59.820        13
59.830         7
59.840        20
59.850        20
59.860        20
59.870        33
59.880         7
59.890         0
59.900        33
59.910        53
59.920        20
59.930         0
59.940        27
59.950         7
59.960        13
59.970        20
59.980        13
59.990        13
60.000         7
