20.000        33
20.010        40
20.020        27
20.030        20
20.040        60
20.050        60
20.060        60
20.070        33
20.080       100
20.090        47
20.100        47
20.110        33
20.120        53
20.130        33
20.140         0
20.150        33
20.160        40
20.170        60
20.180        40
20.190        20
20.200        47
20.210        40
20.220        40
20.230        20
20.240        67
20.250        73
20.260        33
20.270        33
20.280        40
20.290        60
20.300        33
20.310        33
20.320        80
20.330        33
20.340        27
20.350        53
20.360        27
20.370        40
20.380        53
20.390        27
20.400        60
20.410        40
20.420        40
20.430        53
20.440        33
20.450        20
20.460        60
20.470        53
20.480        33
20.490        40
20.500        53
20.510        53
20.520        47
20.530        33
20.540        53
20.550        13
20.560        53
20.570        53
20.580        33
20.590        53
20.600        20
20.610        53
20.620        40
20.630        33
20.640        67
20.650        53
20.660        67
20.670        47
20.680        33
20.690        33
20.700        73
20.710        67
20.720        47
20.730        27
20.740        60
20.750        27
20.760        60
20.770        47
20.780        53
20.790        47
20.800        87
20.810        20
20.820        33
20.830        33
20.840        47
20.850        27
20.860        33
20.870        40
20.880        47
20.890        40
20.900        33
20.910        60
20.920        60
20.930        53
20.940        47
20.950        47
20.960        40
20.970        47
20.980        20
20.990        40
21.000        73
21.010        47
21.020        33
21.030        53
21.040        20
21.050        60
21.060        60
21.070        40
21.080        33
21.090        53
21.100        80
21.110        20
21.120        53
21.130       100
21.140        20
21.150        27
21.160        60
21.170        33
21.180        40
21.190        33
21.200        53
21.210        40
21.220        33
21.230        40
21.240        47
21.250        40
21.260        40
21.270        47
21.280        40
21.290        47
21.300        47
21.310        33
21.320        20
21.330        33
21.340        47
21.350        47
21.360        20
21.370        40
21.380        33
21.390        47
21.400        13
21.410        27
21.420        27
21.430        53
21.440        47
21.450        40
21.460        33
21.470        33
21.480        67
21.490        33
21.500        33
21.510        20
21.520        33
21.530        80
21.540        60
21.550        13
21.560       107
21.570        27
21.580        60
21.590        40
21.600        53
21.610        53
21.620        33
21.630        27
21.640        60
21.650        20
21.660        40
21.670        47
21.680        73
21.690        53
21.700        40
21.710        33
21.720        27
21.730        13
21.740        53
21.750        47
21.760        47
21.770        60
21.780        33
21.790        47
21.800        47
21.810        53
21.820        67
21.830        40
21.840        33
21.850        53
21.860        20
21.870        33
21.880        40
21.890        33
21.900        40
21.910        40
21.920        47
21.930        53
21.940        33
21.950        47
21.960        53
21.970        20
21.980        47
21.990        20
22.000        27
22.010        27
22.020        53
22.030        67
22.040        47
22.050        33
22.060        13
22.070        40
22.080        53
22.090        80
22.100        13
22.110        27
22.120        60
22.130        47
22.140        40
22.150        27
22.160        87
22.170        53
22.180        27
22.190        60
22.200        53
22.210        40
22.220        80
22.230        40
22.240        53
22.250        53
22.260        73
22.270        40
22.280        40
22.290        80
22.300        27
22.310        33
22.320        60
22.330        67
22.340        47
22.350        87
22.360        47
22.370        53
22.380        73
22.390        47
22.400        87
22.410        73
22.420        47
22.430        80
22.440       133
22.450       107
22.460       120
22.470       140
22.480       140
22.490        53
22.500        87
22.510       100
22.520       173
22.530       120
22.540       193
22.550       120
22.560       120
22.570       153
22.580       260
22.590       187
22.600       173
22.610       167
22.620       233
22.630       280
22.640       260
22.650       253
22.660       187
22.670       300
22.680       280
22.690       287
22.700       247
22.710       300
22.720       180
22.730       267
22.740       187
22.750       213
22.760       267
22.770       120
22.780       213
22.790       227
22.800       220
22.810       187
22.820       140
22.830       140
22.840       173
22.850       120
22.860       180
22.870       187
22.880       120
22.890        87
22.900       120
22.910        87
22.920        73
22.930       113
22.940       133
22.950        87
22.960        73
22.970        80
22.980       107
22.990        47
23.000        53
23.010        67
23.020        73
23.030        73
23.040        40
23.050        93
23.060        60
23.070        80
23.080        40
23.090        93
23.100        93
23.110        73
23.120        67
23.130        47
23.140        73
23.150        60
23.160        47
23.170        67
23.180        27
23.190        40
23.200        87
23.210        47
23.220        80
23.230        27
23.240        60
23.250        60
23.260        40
23.270        67
23.280        33
23.290        33
23.300        60
23.310        60
23.320        40
23.330        47
23.340        47
23.350        27
23.360        93
23.370        47
23.380        27
23.390        53
23.400        33
23.410        33
23.420        60
23.430        47
23.440        47
23.450        40
23.460        40
23.470        73
23.480        53
23.490        60
23.500        60
23.510        13
23.520        47
23.530        80
23.540        67
23.550        47
23.560        40
23.570        13
23.580        27
23.590        40
23.600         7
23.610        40
23.620        67
23.630        33
23.640        60
23.650        13
23.660        47
23.670        20
23.680         7
23.690        47
23.700        47
23.710        40
23.720        47
23.730        33
23.740        53
23.750        47
23.760         7
23.770        40
23.780        53
23.790        20
23.800        20
23.810        27
23.820        80
23.830        47
23.840        27
23.850        27
23.860        13
23.870        20
23.880        53
23.890        20
23.900        33
23.910        27
23.920        27
23.930        33
23.940        20
23.950        33
23.960        67
23.970        27
23.980        87
23.990        13
24.000        27
24.010        40
24.020        47
24.030        40
24.040        53
24.050        40
24.060        40
24.070        53
24.080        40
24.090        47
24.100        47
24.110        67
24.120        47
24.130        47
24.140        53
24.150        47
24.160        47
24.170         7
24.180        27
24.190        20
24.200        27
24.210        40
24.220        73
24.230        27
24.240        53
24.250        20
24.260        60
24.270        40
24.280        53
24.290        47
24.300        33
24.310        33
24.320        53
24.330        67
24.340        40
24.350        27
24.360        27
24.370        33
24.380        80
24.390        53
24.400        33
24.410        33
24.420        40
24.430        40
24.440        47
24.450        53
24.460        20
24.470        40
24.480        27
24.490        60
24.500        27
24.510        53
24.520        53
24.530        20
24.540        40
24.550        27
24.560        40
24.570        27
24.580        27
24.590        27
24.600        40
24.610        47
24.620         7
24.630        47
24.640        33
24.650         7
24.660        53
24.670        47
24.680        53
24.690        53
24.700        33
24.710        47
24.720        73
24.730        27
24.740         7
24.750        40
24.760        20
24.770        40
24.780        40
24.790        80
24.800        33
24.810        53
24.820        40
24.830        20
24.840        40
24.850        27
24.860        53
24.870        13
24.880        20
24.890        47
24.900        40
24.910        33
24.920        33
24.930        40
24.940        47
24.950        40
24.960        33
24.970        40
24.980        20
24.990        27
25.000        20
25.010        47
25.020        27
25.030        27
25.040        47
25.050        47
25.060        13
25.070        20
25.080        33
25.090        47
25.100        33
25.110        33
25.120        47
25.130        33
25.140         7
25.150        47
25.160        13
25.170         7
25.180        27
25.190        33
25.200        27
25.210        33
25.220        27
25.230        53
25.240        47
25.250        27
25.260        33
25.270        13
25.280        40
25.290        20
25.300        27
25.310        53
25.320         7
25.330        20
25.340        33
25.350        53
25.360        60
25.370        53
25.380        67
25.390        33
25.400        40
25.410        40
25.420        60
25.430       100
25.440        27
25.450        67
25.460        40
25.470        67
25.480        27
25.490        60
25.500        80
25.510        73
25.520       140
25.530       127
25.540        80
25.550       127
25.560       113
25.570        87
25.580       133
25.590       113
25.600       107
25.610       140
25.620        87
25.630       127
25.640       147
25.650        80
25.660        93
25.670        67
25.680        73
25.690        53
25.700       100
25.710        80
25.720       100
25.730        80
25.740        40
25.750        20
25.760        27
25.770        27
25.780        27
25.790        40
25.800        47
25.810        40
25.820        27
25.830        67
25.840        60
25.850        53
25.860        67
25.870        27
25.880        47
25.890        47
25.900        40
25.910        33
25.920        47
25.930        47
25.940         7
25.950        67
25.960        33
25.970        47
25.980        40
25.990        40
26.000         7
26.010        60
26.020        27
26.030        20
26.040        40
26.050        27
26.060        27
26.070        73
26.080        40
26.090        40
26.100        47
26.110        47
26.120        67
26.130        20
26.140        73
26.150        40
26.160        53
26.170        20
26.180        47
26.190        33
26.200        20
26.210        40
26.220        33
26.230        47
26.240        13
26.250        40
26.260        33
26.270        27
26.280        40
26.290        60
26.300        40
26.310        27
26.320        33
26.330        53
26.340        27
26.350        40
26.360        40
26.370        67
26.380        33
26.390        13
26.400        40
26.410        27
26.420         7
26.430        27
26.440        40
26.450        27
26.460        40
26.470        67
26.480        33
26.490        27
26.500        73
26.510        20
26.520         0
26.530        67
26.540        20
26.550        33
26.560        33
26.570        40
26.580        33
26.590        47
26.600        27
26.610        13
26.620        27
26.630        60
26.640        13
26.650        20
26.660        67
26.670        27
26.680        33
26.690        47
26.700        53
26.710         7
26.720        27
26.730        27
26.740        40
26.750        20
26.760        40
26.770        53
26.780        53
26.790         7
26.800        40
26.810        27
26.820        27
26.830         7
26.840        20
26.850        20
26.860        20
26.870        33
26.880        60
26.890        40
26.900        20
26.910        27
26.920        40
26.930        33
26.940        33
26.950        27
26.960        20
26.970        47
26.980        33
26.990        27
27.000        47
27.010        33
27.020        33
27.030        40
27.040        40
27.050        53
27.060         7
27.070        73
27.080        33
27.090        33
27.100        13
27.110        73
27.120        33
27.130        40
27.140        47
27.150         0
27.160        53
27.170        33
27.180        20
27.190        40
27.200        33
27.210        33
27.220        20
27.230        40
27.240        40
27.250        20
27.260        33
27.270        13
27.280        13
27.290        53
27.300        33
27.310        47
27.320        53
27.330        13
27.340        47
27.350        40
27.360        13
27.370        27
27.380        33
27.390        27
27.400        27
27.410        33
27.420        40
27.430        33
27.440         7
27.450        13
27.460        20
27.470        13
27.480        47
27.490        27
27.500        27
27.510        27
27.520        20
27.530        33
27.540        20
27.550        13
27.560        33
27.570        60
27.580        33
27.590        40
27.600        27
27.610        13
27.620        20
27.630        47
27.640        33
27.650        40
27.660        27
27.670        47
27.680        20
27.690        27
27.700        20
27.710        47
27.720        20
27.730        27
27.740         7
27.750        67
27.760        27
27.770        47
27.780        40
27.790        20
27.800        40
27.810        47
27.820        40
27.830        40
27.840        20
27.850        33
27.860        40
27.870        13
27.880        20
27.890        60
27.900        33
27.910        40
27.920         7
27.930        47
27.940        27
27.950        33
27.960        20
27.970        33
27.980        40
27.990        27
28.000        40
28.010        13
28.020        33
28.030        27
28.040        33
28.050        47
28.060        33
28.070        53
28.080        33
28.090        20
28.100         7
28.110        13
28.120        27
28.130        47
28.140        33
28.150        33
28.160        13
28.170        20
28.180        20
28.190        20
28.200         7
28.210        80
28.220        47
28.230        20
28.240        27
28.250        20
28.260        40
28.270        53
28.280        33
28.290         7
28.300        33
28.310        27
28.320        60
28.330        53
28.340        20
28.350        13
28.360        20
28.370        47
28.380        27
28.390        27
28.400        27
28.410        27
28.420        40
28.430         7
28.440        47
28.450        53
28.460        40
28.470        33
28.480        27
28.490        13
28.500        47
28.510         0
28.520        33
28.530        60
28.540        27
28.550        20
28.560        53
28.570        33
28.580        60
28.590        47
28.600        33
28.610        20
28.620        33
28.630        47
28.640        47
28.650        20
28.660        13
28.670        20
28.680        53
28.690        13
28.700        40
28.710        27
28.720        27
28.730        20
28.740        53
28.750        27
28.760        40
28.770        40
28.780        33
28.790        33
28.800        47
28.810        33
28.820        40
28.830        47
28.840        40
28.850        40
28.860        27
28.870        53
28.880        53
28.890        40
28.900        47
28.910        27
28.920        53
28.930        40
28.940        53
28.950        27
28.960        40
28.970        47
28.980        60
28.990        20
29.000        27
29.010        27
29.020        27
29.030        47
29.040        33
29.050        33
29.060        27
29.070        20
29.080        27
29.090        33
29.100        73
29.110        40
29.120        47
29.130        33
29.140        33
29.150        27
29.160        20
29.170        47
29.180        53
29.190         7
29.200        13
29.210        13
29.220        33
29.230        13
29.240        27
29.250        27
29.260        20
29.270        40
29.280         0
29.290        27
29.300        27
29.310        67
29.320        40
29.330        47
29.340        33
29.350        33
29.360        13
29.370        47
29.380        27
29.390        20
29.400        20
29.410        13
29.420        13
29.430        20
29.440        53
29.450         7
29.460        20
29.470        47
29.480        33
29.490        13
29.500         0
29.510        27
29.520        47
29.530        40
29.540        40
29.550        53
29.560        20
29.570        47
29.580        33
29.590        27
29.600        33
29.610        27
29.620        27
29.630        20
29.640        40
29.650        40
29.660        13
29.670        80
29.680        47
29.690        27
29.700        27
29.710        40
29.720        60
29.730        20
29.740        40
29.750        53
29.760         0
29.770        27
29.780        27
29.790        33
29.800        13
29.810        47
29.820         7
29.830        40
29.840        20
29.850        40
29.860        33
29.870        53
29.880        27
29.890        13
29.900        47
29.910        67
29.920        33
29.930        40
29.940        40
29.950        40
29.960        40
29.970        47
29.980        27
29.990        20
30.000        27
30.010        13
30.020        40
30.030        40
30.040        27
30.050        53
30.060        20
30.070        53
30.080        27
30.090        53
30.100        20
30.110        40
30.120        47
30.130         7
30.140         7
30.150        40
30.160        33
30.170        20
30.180        13
30.190        53
30.200        27
30.210        20
30.220        20
30.230        53
30.240        60
30.250        33
30.260        33
30.270         7
30.280        13
30.290        27
30.300        33
30.310        33
30.320        33
30.330        20
30.340        27
30.350        27
30.360        27
30.370        27
30.380        20
30.390        40
30.400        33
30.410        40
30.420        27
30.430        33
30.440        33
30.450        47
30.460        33
30.470        67
30.480        40
30.490        20
30.500        53
30.510         7
30.520        20
30.530        40
30.540        33
30.550        20
30.560        13
30.570        20
30.580        20
30.590        20
30.600        67
30.610        33
30.620        27
30.630        13
30.640        13
30.650        20
30.660        33
30.670        53
30.680        20
30.690         7
30.700        33
30.710        33
30.720        20
30.730        33
30.740        20
30.750        47
30.760        27
30.770        33
30.780         7
30.790        20
30.800        40
30.810        13
30.820        20
30.830        40
30.840        27
30.850        47
30.860        27
30.870        13
30.880        33
30.890        13
30.900        13
30.910        47
30.920        27
30.930        20
30.940        27
30.950        53
30.960        40
30.970        20
30.980        60
30.990        27
31.000        13
31.010        20
31.020        27
31.030        27
31.040        47
31.050        40
31.060        20
31.070        33
31.080        40
31.090        33
31.100        20
31.110        13
31.120        60
31.130        33
31.140        33
31.150        13
31.160        40
31.170         7
31.180        33
31.190        40
31.200        33
31.210        40
31.220        20
31.230        47
31.240        13
31.250        33
31.260        13
31.270        20
31.280        13
31.290         7
31.300        20
31.310        33
31.320        60
31.330        40
31.340        60
31.350        53
31.360        27
31.370        20
31.380        40
31.390        33
31.400        13
31.410        47
31.420        27
31.430        20
31.440        40
31.450        33
31.460        20
31.470        47
31.480        27
31.490         7
31.500        47
31.510        33
31.520        27
31.530        13
31.540        33
31.550        47
31.560        47
31.570        13
31.580        27
31.590        13
31.600        33
31.610        27
31.620        33
31.630        53
31.640        53
31.650        33
31.660        27
31.670        27
31.680        27
31.690        67
31.700        40
31.710         7
31.720        20
31.730        13
31.740        33
31.750        47
31.760        13
31.770        13
31.780        40
31.790        27
31.800        20
31.810        20
31.820        20
31.830        53
31.840        40
31.850        27
31.860        13
31.870        33
31.880        33
31.890        47
31.900        33
31.910        33
31.920        47
31.930        27
31.940        20
31.950        53
31.960        47
31.970        27
31.980        67
31.990        53
32.000        33
32.010        53
32.020        87
32.030        53
32.040        73
32.050        47
32.060        40
32.070        73
32.080        80
32.090        87
32.100        67
32.110        47
32.120       113
32.130        73
32.140       107
32.150        73
32.160        73
32.170       120
32.180       107
32.190       120
32.200       107
32.210        87
32.220       153
32.230       107
32.240       113
32.250       140
32.260       127
32.270       140
32.280       153
32.290       187
32.300       127
32.310       167
32.320       180
32.330       200
32.340       133
32.350       213
32.360       153
32.370       280
32.380       193
32.390       180
32.400       187
32.410       180
32.420       240
32.430       220
32.440       247
32.450       227
32.460       193
32.470       133
32.480       200
32.490       167
32.500       167
32.510       167
32.520       207
32.530       133
32.540       113
32.550       120
32.560        73
32.570       127
32.580       133
32.590       107
32.600       127
32.610        80
32.620        80
32.630       120
32.640        87
32.650       113
32.660        67
32.670        67
32.680        67
32.690        60
32.700        60
32.710        47
32.720        53
32.730        60
32.740        40
32.750        27
32.760        40
32.770        47
32.780        60
32.790        27
32.800        47
32.810        67
32.820        20
32.830        47
32.840        20
32.850        33
32.860        53
32.870        13
32.880        73
32.890        53
32.900        20
32.910        27
32.920        73
32.930        27
32.940        27
32.950        27
32.960        67
32.970        13
32.980        40
32.990        40
33.000        33
33.010        40
33.020        27
33.030        27
33.040        47
33.050        27
33.060        13
33.070        20
33.080         0
33.090        13
33.100        20
33.110        33
33.120        27
33.130        33
33.140        27
33.150         7
33.160        40
33.170        27
33.180        27
33.190        33
33.200        53
33.210        40
33.220        67
33.230        47
33.240        20
33.250        67
33.260        27
33.270        40
33.280         7
33.290        33
33.300        40
33.310        33
33.320        33
33.330         7
33.340        13
33.350        13
33.360         7
33.370        27
33.380        27
33.390        40
33.400        47
33.410        40
33.420        40
33.430        13
33.440        20
33.450        27
33.460        40
33.470        40
33.480        27
33.490        13
33.500        40
33.510        20
33.520        27
33.530        20
33.540        33
33.550        47
33.560        53
33.570        53
33.580        33
33.590        40
33.600        33
33.610        33
33.620        27
33.630        27
33.640        40
33.650        20
33.660        47
33.670        53
33.680        20
33.690        27
33.700        20
33.710        13
33.720         0
33.730        47
33.740        20
33.750        20
33.760        20
33.770        27
33.780        27
33.790        67
33.800        27
33.810        27
33.820         7
33.830        27
33.840        20
33.850        27
33.860        20
33.870        27
33.880        13
33.890        20
33.900        33
33.910        20
33.920        40
33.930        53
33.940        40
33.950         7
33.960         7
33.970        27
33.980        40
33.990        33
34.000        13
34.010        27
34.020        53
34.030        60
34.040        33
34.050        13
34.060        27
34.070        53
34.080        40
34.090        33
34.100         7
34.110        47
34.120        27
34.130        53
34.140        13
34.150        47
34.160         7
34.170        20
34.180        40
34.190        47
34.200        13
34.210         0
34.220        40
34.230        40
34.240        20
34.250        27
34.260        20
34.270        40
34.280        33
34.290        20
34.300        20
34.310        33
34.320        20
34.330        33
34.340        13
34.350        20
34.360        27
34.370        47
34.380        33
34.390        27
34.400        13
34.410        33
34.420        27
34.430        20
34.440        40
34.450         0
34.460        13
34.470        27
34.480        13
34.490        40
34.500        33
34.510         7
34.520        27
34.530         7
34.540        40
34.550        40
34.560        27
34.570         0
34.580        60
34.590        20
34.600        33
34.610        20
34.620        27
34.630        40
34.640        20
34.650        13
34.660        20
34.670        40
34.680        40
34.690        13
34.700        27
34.710        27
34.720        33
34.730        27
34.740        40
34.750        60
34.760        53
34.770        13
34.780        20
34.790        33
34.800        33
34.810        13
34.820        27
34.830         0
34.840        33
34.850        20
34.860        20
34.870         0
34.880        40
34.890        53
34.900        47
34.910        40
34.920        33
34.930        40
34.940        80
34.950        40
34.960        33
34.970        47
34.980        53
34.990        67
35.000        87
35.010       120
35.020        40
35.030        93
35.040        27
35.050       100
35.060        93
35.070        87
35.080       113
35.090       133
35.100       120
35.110       180
35.120       240
35.130       287
35.140       473
35.150       453
35.160       606
35.170       653
35.180       700
35.190       726
35.200       673
35.210       773
35.220       780
35.230       560
35.240       606
35.250       573
35.260       506
35.270       486
35.280       313
35.290       360
35.300       347
35.310       340
35.320       240
35.330       240
35.340       147
35.350       107
35.360        93
35.370        47
35.380        53
35.390        47
35.400        47
35.410        47
35.420        27
35.430        53
35.440        40
35.450        27
35.460        40
35.470        53
35.480        40
35.490        33
35.500        20
35.510        73
35.520         7
35.530        53
35.540        47
35.550        33
35.560        20
35.570        40
35.580        53
35.590        27
35.600         7
35.610        40
35.620        47
35.630        13
35.640        13
35.650        47
35.660        33
35.670        13
35.680        33
35.690        40
35.700        13
35.710        53
35.720        33
35.730        33
35.740        33
35.750        13
35.760        20
35.770        40
35.780        20
35.790        33
35.800        33
35.810        33
35.820        20
35.830        27
35.840        33
35.850        13
35.860        27
35.870         7
35.880        47
35.890        20
35.900        27
35.910        27
35.920        47
35.930        27
35.940        20
35.950        40
35.960        13
35.970        20
35.980        27
35.990        13
36.000        27
36.010        20
36.020        40
36.030        33
36.040        40
36.050        13
36.060        33
36.070        13
36.080        33
36.090        27
36.100        27
36.110        20
36.120        33
36.130        20
36.140        33
36.150        27
36.160        20
36.170        33
36.180        53
36.190        33
36.200        20
36.210        40
36.220        20
36.230        33
36.240        40
36.250        27
36.260        47
36.270         7
36.280        27
36.290         0
36.300        53
36.310        13
36.320         7
36.330         7
36.340         0
36.350        20
36.360        13
36.370         7
36.380        33
36.390        27
36.400        13
36.410         7
36.420        47
36.430        33
36.440        13
36.450        27
36.460        20
36.470        13
36.480        13
36.490        27
36.500        27
36.510        13
36.520        13
36.530        13
36.540        27
36.550        40
36.560        40
36.570        33
36.580        20
36.590        20
36.600        47
36.610        27
36.620        27
36.630         7
36.640        47
36.650        13
36.660        47
36.670         0
36.680        13
36.690        47
36.700        13
36.710         7
36.720        20
36.730        33
36.740        53
36.750        20
36.760        67
36.770        40
36.780        20
36.790        13
36.800         7
36.810        27
36.820         7
36.830        33
36.840        13
36.850        40
36.860        20
36.870        20
36.880        27
36.890        20
36.900        40
36.910        33
36.920        60
36.930        33
36.940        40
36.950        33
36.960        20
36.970        27
36.980        47
36.990        40
37.000        33
37.010        40
37.020        40
37.030        33
37.040        47
37.050        13
37.060        33
37.070        47
37.080        47
37.090        33
37.100        47
37.110         7
37.120        40
37.130        47
37.140        33
37.150        20
37.160        20
37.170        47
37.180        27
37.190        20
37.200        47
37.210        27
37.220        20
37.230        40
37.240        13
37.250        13
37.260        27
37.270        13
37.280        13
37.290        13
37.300        27
37.310        27
37.320        40
37.330         7
37.340        60
37.350        13
37.360        27
37.370        33
37.380        20
37.390        27
37.400        40
37.410        27
37.420        27
37.430        13
37.440        33
37.450        13
37.460        20
37.470        33
37.480        27
37.490        40
37.500        27
37.510        33
37.520        53
37.530        40
37.540        20
37.550         0
37.560        40
37.570         7
37.580        20
37.590        60
37.600        47
37.610        40
37.620        73
37.630        40
37.640        60
37.650        47
37.660        33
37.670        27
37.680        47
37.690        40
37.700        40
37.710        53
37.720       100
37.730        87
37.740        80
37.750       173
37.760       200
37.770       307
37.780       260
37.790       253
37.800       280
37.810       380
37.820       233
37.830       240
37.840       300
37.850       273
37.860       287
37.870       173
37.880       233
37.890       147
37.900       147
37.910       180
37.920       147
37.930       120
37.940       100
37.950        73
37.960        80
37.970        73
37.980        93
37.990        27
38.000        53
38.010        27
38.020        13
38.030        47
38.040        27
38.050        20
38.060        33
38.070         7
38.080        47
38.090        20
38.100        33
38.110        20
38.120        40
38.130        27
38.140        40
38.150        20
38.160         0
38.170        27
38.180        20
38.190        13
38.200        27
38.210        33
38.220        13
38.230        33
38.240         7
38.250        27
38.260        27
38.270        33
38.280         7
38.290        27
38.300        27
38.310        40
38.320         7
38.330        20
38.340        40
38.350        13
38.360        13
38.370        20
38.380         7
38.390         7
38.400        13
38.410        27
38.420        27
38.430         7
38.440         7
38.450         7
38.460         7
38.470        27
38.480        47
38.490        33
38.500        13
38.510        20
38.520        33
38.530        13
38.540        27
38.550        13
38.560        20
38.570        13
38.580         7
38.590        27
38.600        13
38.610        13
38.620        40
38.630        20
38.640         0
38.650         7
38.660        13
38.670        40
38.680        40
38.690        27
38.700        27
38.710         0
38.720        33
38.730        20
38.740        27
38.750        13
38.760        20
38.770        40
38.780        20
38.790        27
38.800        33
38.810         0
38.820        13
38.830        33
38.840        27
38.850        13
38.860        27
38.870        40
38.880         7
38.890        13
38.900        13
38.910        53
38.920        27
38.930        20
38.940        13
38.950        47
38.960         7
38.970        47
38.980        20
38.990        20
39.000        33
39.010        13
39.020        27
39.030         7
39.040        40
39.050        20
39.060        20
39.070        27
39.080         7
39.090         7
39.100        33
39.110        20
39.120        20
39.130        40
39.140        40
39.150        20
39.160        20
39.170        20
39.180        13
39.190         7
39.200        27
39.210        33
39.220        20
39.230        20
39.240        27
39.250        13
39.260        20
39.270        33
39.280        33
39.290         7
39.300        27
39.310        13
39.320        20
39.330        33
39.340        27
39.350        27
39.360        13
39.370        40
39.380        40
39.390        13
39.400        33
39.410        53
39.420        27
39.430         7
39.440        27
39.450         7
39.460        27
39.470        47
39.480        67
39.490        27
39.500        27
39.510        33
39.520        27
39.530         7
39.540         0
39.550        13
39.560        20
39.570        20
39.580        20
39.590        27
39.600        33
39.610        27
39.620        13
39.630        13
39.640        40
39.650        27
39.660        33
39.670        33
39.680        13
39.690        33
39.700        47
39.710        67
39.720        40
39.730        67
39.740        33
39.750        27
39.760        47
39.770        13
39.780        67
39.790        47
39.800        60
39.810        47
39.820        53
39.830        60
39.840        33
39.850        33
39.860        53
39.870        67
39.880        93
39.890       127
39.900       107
39.910       113
39.920       167
39.930       113
39.940       113
39.950       140
39.960       173
39.970       173
39.980       167
39.990       113
40.000       107
40.010       133
40.020       113
40.030       120
40.040       180
40.050       133
40.060       120
40.070       167
40.080       107
40.090        93
40.100        67
40.110       120
40.120       107
40.130        40
40.140        73
40.150       100
40.160        67
40.170        53
40.180        93
40.190        87
40.200        40
40.210        47
40.220        40
40.230        67
40.240        67
40.250        53
40.260        47
40.270        33
40.280        40
40.290        40
40.300        40
40.310        20
40.320        53
40.330         7
40.340        47
40.350        20
40.360        27
40.370        47
40.380        53
40.390        33
40.400        20
40.410        20
40.420        33
40.430        27
40.440        20
40.450        13
40.460        13
40.470        33
40.480        40
40.490        33
40.500        40
40.510        27
40.520        20
40.530        27
40.540        53
40.550        47
40.560         7
40.570        33
40.580        13
40.590         7
40.600        27
40.610        27
40.620        33
40.630        27
40.640        20
40.650        20
40.660        40
40.670        27
40.680        33
40.690        33
40.700        20
40.710        33
40.720        53
40.730        33
40.740        27
40.750        27
40.760        53
40.770        13
40.780        33
40.790         7
40.800        40
40.810        40
40.820        13
40.830        33
40.840        27
40.850        13
40.860        27
40.870        13
40.880        27
40.890        20
40.900        13
40.910        13
40.920        13
40.930        20
40.940        13
40.950        13
40.960        13
40.970        27
40.980        20
40.990        27
41.000        33
41.010         7
41.020        20
41.030        33
41.040        13
41.050        20
41.060        20
41.070        27
41.080         7
41.090        13
41.100        33
41.110        33
41.120        13
41.130        27
41.140        47
41.150        40
41.160        33
41.170        33
41.180        13
41.190        13
41.200        13
41.210         7
41.220        20
41.230        33
41.240        20
41.250        27
41.260        40
41.270        40
41.280         0
41.290        33
41.300        40
41.310        40
41.320        13
41.330        53
41.340        33
41.350        27
41.360        13
41.370        47
41.380        60
41.390        13
41.400        27
41.410        20
41.420        13
41.430        27
41.440        40
41.450        20
41.460        33
41.470        73
41.480        13
41.490        20
41.500        47
41.510        67
41.520        27
41.530        20
41.540        20
41.550        67
41.560        47
41.570        87
41.580        40
41.590        53
41.600        60
41.610        27
41.620        80
41.630        33
41.640        93
41.650        67
41.660       100
41.670        87
41.680       100
41.690       153
41.700       147
41.710       100
41.720       127
41.730       153
41.740       113
41.750        80
41.760       147
41.770        73
41.780       127
41.790        53
41.800        60
41.810        93
41.820        60
41.830        93
41.840        93
41.850        53
41.860        93
41.870        80
41.880        67
41.890        53
41.900        20
41.910        27
41.920        40
41.930        33
41.940        20
41.950        40
41.960        33
41.970        20
41.980        67
41.990        27
42.000        20
42.010        27
42.020        33
42.030         7
42.040        53
42.050        27
42.060         7
42.070        13
42.080        13
42.090        20
42.100        20
42.110        40
42.120        20
42.130        33
42.140        33
42.150        27
42.160         7
42.170        33
42.180         7
42.190        27
42.200        33
42.210        33
42.220        20
42.230        27
42.240        20
42.250        67
42.260        33
42.270        27
42.280        33
42.290        13
42.300        40
42.310        20
42.320        40
42.330        33
42.340        33
42.350        40
42.360        33
42.370        20
42.380         7
42.390         0
42.400        13
42.410        20
42.420        13
42.430        20
42.440        27
42.450        33
42.460         7
42.470        33
42.480        20
42.490        40
42.500         0
42.510        33
42.520        13
42.530        20
42.540         7
42.550        27
42.560         7
42.570        47
42.580        13
42.590        27
42.600        13
42.610        33
42.620        20
42.630        20
42.640        47
42.650        13
42.660        13
42.670        13
42.680        27
42.690        13
42.700        20
42.710        20
42.720        20
42.730         7
42.740        13
42.750        33
42.760         7
42.770         7
42.780        13
42.790        33
42.800        33
42.810        13
42.820        40
42.830        13
42.840        27
42.850        20
42.860         7
42.870        20
42.880        20
42.890        20
42.900        20
42.910        13
42.920        33
42.930         0
42.940        33
42.950        13
42.960        20
42.970        27
42.980         7
42.990         7
43.000        33
43.010        53
43.020        20
43.030        13
43.040         7
43.050        33
43.060        13
43.070        27
43.080        20
43.090        20
43.100        13
43.110        33
43.120        27
43.130        13
43.140        20
43.150        20
43.160         7
43.170        20
43.180        33
43.190        27
43.200        33
43.210        27
43.220        27
43.230        27
43.240        53
43.250        80
43.260        60
43.270        60
43.280        13
43.290        93
43.300        53
43.310        67
43.320        47
43.330        33
43.340       207
43.350       113
43.360       213
43.370       213
43.380       220
43.390       287
43.400       267
43.410       380
43.420       180
43.430       207
43.440       167
43.450       180
43.460       213
43.470        93
43.480       127
43.490       180
43.500       147
43.510       120
43.520       120
43.530       120
43.540       187
43.550       133
43.560        80
43.570        87
43.580        53
43.590        53
43.600        33
43.610        27
43.620        13
43.630        13
43.640        20
43.650        20
43.660        13
43.670        20
43.680        20
43.690        33
43.700        20
43.710        27
43.720        47
43.730        27
43.740        53
43.750        20
43.760        40
43.770        33
43.780        13
43.790        33
43.800        27
43.810        13
43.820        33
43.830        20
43.840        20
43.850        13
43.860        13
43.870        13
43.880        53
43.890        27
43.900        27
43.910        13
43.920        33
43.930        20
43.940        13
43.950        33
43.960        33
43.970        33
43.980        20
43.990        33
44.000        53
44.010        20
44.020        60
44.030        33
44.040        13
44.050        40
44.060         0
44.070        33
44.080        27
44.090        27
44.100        27
44.110        27
44.120        27
44.130        33
44.140        20
44.150        27
44.160        47
44.170        13
44.180        27
44.190        20
44.200        47
44.210        13
44.220        33
44.230        20
44.240        60
44.250        20
44.260         7
44.270        33
44.280        27
44.290        20
44.300         0
44.310        20
44.320         0
44.330        33
44.340        20
44.350        33
44.360        47
44.370        60
44.380        20
44.390        20
44.400        13
44.410        27
44.420        20
44.430        27
44.440        40
44.450        40
44.460        47
44.470        47
44.480        47
44.490        33
44.500        47
44.510        27
44.520        20
44.530        33
44.540        20
44.550        27
44.560        33
44.570        27
44.580        27
44.590        13
44.600        33
44.610        20
44.620        80
44.630        27
44.640        53
44.650        67
44.660        73
44.670        33
44.680        40
44.690        33
44.700        33
44.710        13
44.720        53
44.730        53
44.740        53
44.750        40
44.760        47
44.770        73
44.780        60
44.790        40
44.800        33
44.810        47
44.820        60
44.830        60
44.840        33
44.850        47
44.860        33
44.870        27
44.880        33
44.890        40
44.900        53
44.910        20
44.920        53
44.930        40
44.940        80
44.950        40
44.960        53
44.970        53
44.980        40
44.990        67
45.000        60
45.010        47
45.020        93
45.030        67
45.040        53
45.050        40
45.060        40
45.070        27
45.080        87
45.090        60
45.100        53
45.110        87
45.120        73
45.130        47
45.140        47
45.150        60
45.160        53
45.170        80
45.180        67
45.190        80
45.200       113
45.210        87
45.220        60
45.230        87
45.240        80
45.250        67
45.260        67
45.270        67
45.280        53
45.290        47
45.300       120
45.310        87
45.320       113
45.330        67
45.340       113
45.350        93
45.360       140
45.370       127
45.380        93
45.390        87
45.400        87
45.410        93
45.420       107
45.430       107
45.440       120
45.450        87
45.460        80
45.470       187
45.480       120
45.490       120
45.500       140
45.510       147
45.520        87
45.530       107
45.540       133
45.550       140
45.560       153
45.570       193
45.580       113
45.590       180
45.600       160
45.610       127
45.620       187
45.630       207
45.640       253
45.650       220
45.660       193
45.670       200
45.680       180
45.690       207
45.700       260
45.710       213
45.720       233
45.730       233
45.740       267
45.750       193
45.760       307
45.770       327
45.780       347
45.790       313
45.800       327
45.810       347
45.820       407
45.830       466
45.840       393
45.850       446
45.860       540
45.870       553
45.880       486
45.890       493
45.900       560
45.910       613
45.920       720
45.930       673
45.940       680
45.950       620
45.960       780
45.970       800
45.980       886
45.990       793
46.000       840
46.010       853
46.020       973
46.030       946
46.040      1100
46.050       980
46.060      1206
46.070      1006
46.080      1233
46.090      1339
46.100      1120
46.110      1160
46.120      1273
46.130      1466
46.140      1553
46.150      1253
46.160      1553
46.170      1459
46.180      1526
46.190      1546
46.200      1679
46.210      1693
46.220      1479
46.230      1813
46.240      1659
46.250      1779
46.260      1539
46.270      1833
46.280      1719
46.290      1759
46.300      1626
46.310      1793
46.320      1826
46.330      1659
46.340      1726
46.350      1719
46.360      1846
46.370      1439
46.380      1633
46.390      1766
46.400      1446
46.410      1626
46.420      1606
46.430      1633
46.440      1486
46.450      1526
46.460      1486
46.470      1346
46.480      1486
46.490      1319
46.500      1226
46.510      1419
46.520      1293
46.530      1213
46.540      1213
46.550      1186
46.560      1086
46.570      1253
46.580      1186
46.590      1000
46.600       893
46.610      1033
46.620       853
46.630       920
46.640       746
46.650       940
46.660       740
46.670       760
46.680       673
46.690       680
46.700       580
46.710       606
46.720       586
46.730       533
46.740       506
46.750       520
46.760       506
46.770       453
46.780       407
46.790       446
46.800       420
46.810       473
46.820       347
46.830       260
46.840       320
46.850       373
46.860       367
46.870       260
46.880       287
46.890       260
46.900       287
46.910       320
46.920       287
46.930       253
46.940       233
46.950       253
46.960       153
46.970       193
46.980       167
46.990       187
47.000       253
47.010       200
47.020       200
47.030       120
47.040       153
47.050       260
47.060       160
47.070       140
47.080       120
47.090       173
47.100        93
47.110       180
47.120       127
47.130       127
47.140       133
47.150       127
47.160       127
47.170       107
47.180       153
47.190       160
47.200       160
47.210       120
47.220        87
47.230       113
47.240       100
47.250       113
47.260       120
47.270       133
47.280       100
47.290        73
47.300       113
47.310       120
47.320        80
47.330        73
47.340        87
47.350        60
47.360        80
47.370        80
47.380        73
47.390        93
47.400        67
47.410        60
47.420       107
47.430       107
47.440        60
47.450        60
47.460        67
47.470        80
47.480        80
47.490        53
47.500        33
47.510        60
47.520        40
47.530        40
47.540        73
47.550       100
47.560        67
47.570       107
47.580        47
47.590        60
47.600        67
47.610        73
47.620        47
47.630        27
47.640        47
47.650        47
47.660        60
47.670        47
47.680        33
47.690        47
47.700        73
47.710        53
47.720        53
47.730        33
47.740        27
47.750        27
47.760        40
47.770        20
47.780        47
47.790        53
47.800        47
47.810        27
47.820        47
47.830        47
47.840        33
47.850        47
47.860        40
47.870        53
47.880        27
47.890        73
47.900        60
47.910        67
47.920        40
47.930         7
47.940        40
47.950        27
47.960        40
47.970        27
47.980        27
47.990        40
48.000        27
48.010        20
48.020        33
48.030        53
48.040        40
48.050        53
48.060         7
48.070        40
48.080        60
48.090        40
48.100        27
48.110        47
48.120        33
48.130        40
48.140        27
48.150        27
48.160        33
48.170        20
48.180        53
48.190        53
48.200        53
48.210        40
48.220        40
48.230        33
48.240        13
48.250        20
48.260         7
48.270        40
48.280        33
48.290        13
48.300        13
48.310        33
48.320        20
48.330        60
48.340        53
48.350        13
48.360        27
48.370        53
48.380        47
48.390        27
48.400        53
48.410        33
48.420        47
48.430        27
48.440        20
48.450        40
48.460        40
48.470        47
48.480        27
48.490        47
48.500        33
48.510        40
48.520        27
48.530        27
48.540        33
48.550        33
48.560        33
48.570        40
48.580        33
48.590        27
48.600        40
48.610         7
48.620        67
48.630        20
48.640        33
48.650        20
48.660        27
48.670        20
48.680        20
48.690        40
48.700        20
48.710        53
48.720        20
48.730        13
48.740        40
48.750        33
48.760        33
48.770        20
48.780        33
48.790         7
48.800        27
48.810        27
48.820        20
48.830        53
48.840        20
48.850         7
48.860         7
48.870        20
48.880        27
48.890        33
48.900        27
48.910        13
48.920        13
48.930        40
48.940        13
48.950        20
48.960         7
48.970        33
48.980        27
48.990        40
49.000        73
49.010        47
49.020        20
49.030        13
49.040        27
49.050        27
49.060        27
49.070        33
49.080        20
49.090        33
49.100        67
49.110        27
49.120        27
49.130        47
49.140        20
49.150        13
49.160         7
49.170         7
49.180        40
49.190        20
49.200        13
49.210        40
49.220        47
49.230        33
49.240        33
49.250        13
49.260        53
49.270        33
49.280        20
49.290        27
49.300        13
49.310        27
49.320        13
49.330        20
49.340         7
49.350        13
49.360        20
49.370        47
49.380        40
49.390        33
49.400        27
49.410        13
49.420        40
49.430        20
49.440        27
49.450        13
49.460        20
49.470        33
49.480        13
49.490        27
49.500        27
49.510        20
49.520         7
49.530        33
49.540        20
49.550        27
49.560        40
49.570        20
49.580        20
49.590        27
49.600        27
49.610         7
49.620         7
49.630        40
49.640        33
49.650        27
49.660        27
49.670        27
49.680        27
49.690        47
49.700        40
49.710        20
49.720        33
49.730        40
49.740        13
49.750        40
49.760        53
49.770        60
49.780        33
49.790        47
49.800        13
49.810        40
49.820        27
49.830        33
49.840        33
49.850        47
49.860        13
49.870        33
49.880        33
49.890        13
49.900        33
49.910        13
49.920         7
49.930        13
49.940        20
49.950        40
49.960        40
49.970        40
49.980        53
49.990        27
50.000        13
50.010        20
50.020        40
50.030        33
50.040        27
50.050        27
50.060        13
50.070        33
50.080        40
50.090         0
50.100        27
50.110        33
50.120        33
50.130        33
50.140        40
50.150        40
50.160        20
50.170        20
50.180        33
50.190        33
50.200        13
50.210        13
50.220        20
50.230        33
50.240         7
50.250        20
50.260        13
50.270        53
50.280        33
50.290         7
50.300        40
50.310        13
50.320        27
50.330        47
50.340        33
50.350        13
50.360        27
50.370        20
50.380        13
50.390        27
50.400        13
50.410        40
50.420        20
50.430        33
50.440        20
50.450        27
50.460        13
50.470        13
50.480        27
50.490        20
50.500        13
50.510        13
50.520         7
50.530         7
50.540        33
50.550         7
50.560        33
50.570         7
50.580        20
50.590        33
50.600        13
50.610        27
50.620        13
50.630        33
50.640        33
50.650        13
50.660        20
50.670        27
50.680        27
50.690        13
50.700        20
50.710        20
50.720        40
50.730        40
50.740        47
50.750        20
50.760        20
50.770        33
50.780        20
50.790        27
50.800        47
50.810        13
50.820        20
50.830        13
50.840        40
50.850         7
50.860        20
50.870        67
50.880        40
50.890         7
50.900        13
50.910        27
50.920        13
50.930        20
50.940        33
50.950        13
50.960         0
50.970        20
50.980        27
50.990        13
51.000        27
51.010        33
51.020        20
51.030        47
51.040        33
51.050        13
51.060        13
51.070        13
51.080         7
51.090        20
51.100         7
51.110        33
51.120        33
51.130        13
51.140        20
51.150        20
51.160        13
51.170         0
51.180        33
51.190        13
51.200         7
51.210         7
51.220        33
51.230        27
51.240         7
51.250        33
51.260        33
51.270         7
51.280        13
51.290        13
51.300        40
51.310        40
51.320        20
51.330        20
51.340        33
51.350        20
51.360        33
51.370        20
51.380        47
51.390        13
51.400        40
51.410         0
51.420        13
51.430        13
51.440        33
51.450        33
51.460        60
51.470        33
51.480        33
51.490        40
51.500        33
51.510        20
51.520         0
51.530         7
51.540        40
51.550         7
51.560        27
51.570        20
51.580        13
51.590        27
51.600        13
51.610        20
51.620        27
51.630        20
51.640        33
51.650        27
51.660        47
51.670        20
51.680        20
51.690        27
51.700        40
51.710        20
51.720        40
51.730        13
51.740         7
51.750        27
51.760        13
51.770        27
51.780        40
51.790        20
51.800        27
51.810        13
51.820        20
51.830         7
51.840        13
51.850        20
51.860        27
51.870         7
51.880        27
51.890        20
51.900        20
51.910         7
51.920        27
51.930        13
51.940        13
51.950         7
51.960        27
51.970        20
51.980        20
51.990        33
52.000        40
52.010        20
52.020        20
52.030        33
52.040        27
52.050        47
52.060        27
52.070         7
52.080         7
52.090        27
52.100        40
52.110         7
52.120        40
52.130        20
52.140        33
52.150        40
52.160        13
52.170        33
52.180        13
52.190        33
52.200        20
52.210         0
52.220         7
52.230        27
52.240         7
52.250         7
52.260        33
52.270        13
52.280        40
52.290        33
52.300        27
52.310        40
52.320        27
52.330        13
52.340        13
52.350        53
52.360        27
52.370        47
52.380        27
52.390         7
52.400        53
52.410        27
52.420        27
52.430        20
52.440        33
52.450        40
52.460        13
52.470        60
52.480        60
52.490        40
52.500        67
52.510        27
52.520        40
52.530        67
52.540        73
52.550        73
52.560       100
52.570       120
52.580       100
52.590       153
52.600       207
52.610       153
52.620        93
52.630       160
52.640       100
52.650       127
52.660       120
52.670        73
52.680        73
52.690        80
52.700       100
52.710       107
52.720        40
52.730        73
52.740       100
52.750        80
52.760        60
52.770        60
52.780       113
52.790        60
52.800        33
52.810        67
52.820        73
52.830        53
52.840        13
52.850        20
52.860        20
52.870        40
52.880        20
52.890        27
52.900        27
52.910        20
52.920        27
52.930        27
52.940        27
52.950         7
52.960        47
52.970         0
52.980        13
52.990        27
53.000         0
53.010        40
53.020        27
53.030        27
53.040        13
53.050        13
53.060        20
53.070        20
53.080         7
53.090        33
53.100        20
53.110        13
53.120        33
53.130        13
53.140        13
53.150         7
53.160        20
53.170        27
53.180         7
53.190        20
53.200        13
53.210        27
53.220         7
53.230        13
53.240        13
53.250        20
53.260         7
53.270         0
53.280        13
53.290        27
53.300        33
53.310        33
53.320        33
53.330        40
53.340        33
53.350        20
53.360        13
53.370        13
53.380        13
53.390        13
53.400         0
53.410        47
53.420         7
53.430        40
53.440        13
53.450        27
53.460        27
53.470        27
53.480        13
53.490        20
53.500        27
53.510         7
53.520         7
53.530        33
53.540         0
53.550        20
53.560         7
53.570        13
53.580        20
53.590         7
53.600        27
53.610        27
53.620        33
53.630        27
53.640         7
53.650        13
53.660        13
53.670        47
53.680        20
53.690        13
53.700        20
53.710         7
53.720         7
53.730         7
53.740        33
53.750         7
53.760        20
53.770        27
53.780        13
53.790        13
53.800        27
53.810        13
53.820         7
53.830        20
53.840        20
53.850        33
53.860         7
53.870        20
53.880        13
53.890        13
53.900        27
53.910        20
53.920        13
53.930        13
53.940         7
53.950         0
53.960         7
53.970         7
53.980         0
53.990        13
54.000        20
54.010        13
54.020        13
54.030        27
54.040        27
54.050        13
54.060         7
54.070        20
54.080        47
54.090        20
54.100        20
54.110        20
54.120        13
54.130        27
54.140         0
54.150        33
54.160         0
54.170         7
54.180        47
54.190         0
54.200        20
54.210        27
54.220         7
54.230         7
54.240        27
54.250        20
54.260         7
54.270        13
54.280         7
54.290         7
54.300        20
54.310        27
54.320         7
54.330        27
54.340        27
54.350        20
54.360        20
54.370        13
54.380        27
54.390        27
54.400        13
54.410        20
54.420         0
54.430         0
54.440        20
54.450        13
54.460        33
54.470         7
54.480        33
54.490        27
54.500        27
54.510        40
54.520        13
54.530        33
54.540        27
54.550        47
54.560        13
54.570        27
54.580         0
54.590        13
54.600        27
54.610         7
54.620        27
54.630        20
54.640        27
54.650        13
54.660        33
54.670        13
54.680        13
54.690        40
54.700        13
54.710        13
54.720        47
54.730        20
54.740        27
54.750        27
54.760        47
54.770         7
54.780        13
54.790         0
54.800        13
54.810        13
54.820        33
54.830        20
54.840        27
54.850         7
54.860        20
54.870         0
54.880        47
54.890        13
54.900        47
54.910        27
54.920        13
54.930        20
54.940        20
54.950        40
54.960        53
54.970        13
54.980         7
54.990        40
55.000        27
55.010         7
55.020        40
55.030        13
55.040        27
55.050        13
55.060        13
55.070        20
55.080         7
55.090        13
55.100        20
55.110        13
55.120         7
55.130        20
55.140         7
55.150         7
55.160        13
55.170        20
55.180        20
55.190        13
55.200        20
55.210        33
55.220        33
55.230        27
55.240        33
55.250        27
55.260         7
55.270         0
55.280         7
55.290        13
55.300         7
55.310         0
55.320        13
55.330        20
55.340         0
55.350         7
55.360        13
55.370        13
55.380        27
55.390        13
55.400         7
55.410        13
55.420        27
55.430        33
55.440        13
55.450        27
55.460        20
55.470        20
55.480         7
55.490         7
55.500        20
55.510         0
55.520        13
55.530        67
55.540        20
55.550        20
55.560         7
55.570         0
55.580        20
55.590        33
55.600        13
55.610        20
55.620         7
55.630        20
55.640        27
55.650        33
55.660        13
55.670         7
55.680        27
55.690        20
55.700        53
55.710        27
55.720        33
55.730         7
55.740        47
55.750         7
55.760        13
55.770        27
55.780        33
55.790         7
55.800        13
55.810        13
55.820        13
55.830        33
55.840        20
55.850        13
55.860        20
55.870         7
55.880        27
55.890        20
55.900         7
55.910        20
55.920        20
55.930        33
55.940        33
55.950        13
55.960        20
55.970         7
55.980        20
55.990        47
56.000        20
56.010        20
56.020        20
56.030        27
56.040        13
56.050        33
56.060        27
56.070        40
56.080        13
56.090         7
56.100        20
56.110        20
56.120        20
56.130         7
56.140         7
56.150        13
56.160        13
56.170        20
56.180        27
56.190        33
56.200        13
56.210         0
56.220        27
56.230        27
56.240        40
56.250        13
56.260        13
56.270         0
56.280        27
56.290         0
56.300         7
56.310        27
56.320         7
56.330        20
56.340        20
56.350        40
56.360         7
56.370         7
56.380        13
56.390         7
56.400        27
56.410         7
56.420        13
56.430        27
56.440         0
56.450         7
56.460         7
56.470         7
56.480         0
56.490        13
56.500        27
56.510         7
56.520        27
56.530         7
56.540        13
56.550        20
56.560        20
56.570        27
56.580        13
56.590        20
56.600         7
56.610         7
56.620        20
56.630        13
56.640         7
56.650        27
56.660        33
56.670         7
56.680        27
56.690        20
56.700        13
56.710        27
56.720         7
56.730        20
56.740        13
56.750         7
56.760        20
56.770        20
56.780         7
56.790        13
56.800         7
56.810        20
56.820         7
56.830        27
56.840        27
56.850        13
56.860        33
56.870         7
56.880        27
56.890        13
56.900        40
56.910         7
56.920         7
56.930        27
56.940        13
56.950         7
56.960        13
56.970        40
56.980        13
56.990         7
57.000         7
57.010         0
57.020        20
57.030        20
57.040         7
57.050         0
57.060        20
57.070        20
57.080        20
57.090        27
57.100        47
57.110        27
57.120        13
57.130        13
57.140        20
57.150        20
57.160        27
57.170        47
57.180        13
57.190         7
57.200        20
57.210        53
57.220        27
57.230        27
57.240        20
57.250        33
57.260        33
57.270        87
57.280        40
57.290        60
57.300        33
57.310         7
57.320        13
57.330        60
57.340        27
57.350        27
57.360         7
57.370        73
57.380        27
57.390        33
57.400        27
57.410        53
57.420        53
57.430        60
57.440        73
57.450       107
57.460       127
57.470       133
57.480       247
57.490       293
57.500       273
57.510       307
57.520       380
57.530       347
57.540       420
57.550       327
57.560       300
57.570       307
57.580       293
57.590       207
57.600       187
57.610       193
57.620       160
57.630       107
57.640       127
57.650       193
57.660       207
57.670       233
57.680       173
57.690       173
57.700       187
57.710       180
57.720       247
57.730       133
57.740       160
57.750        73
57.760       100
57.770        67
57.780        67
57.790        40
57.800        67
57.810        27
57.820        33
57.830        27
57.840        40
57.850        33
57.860        33
57.870        33
57.880        33
57.890        33
57.900        53
57.910        27
57.920        33
57.930        47
57.940        47
57.950        40
57.960        40
57.970        33
57.980        53
57.990        13
58.000        40
58.010        67
58.020        33
58.030        33
58.040        20
58.050        47
58.060        40
58.070        40
58.080        27
58.090        20
58.100        60
58.110        13
58.120        13
58.130        27
58.140        27
58.150        13
58.160        20
58.170        27
58.180        13
58.190        20
58.200        13
58.210        33
58.220        13
58.230        27
58.240        13
58.250        13
58.260        27
58.270         0
58.280        13
58.290        13
58.300        13
58.310        20
58.320         7
58.330        40
58.340         7
58.350        13
58.360         7
58.370        13
58.380        27
58.390         7
58.400         7
58.410        33
58.420        20
58.430        20
58.440        27
58.450         7
58.460         7
58.470        33
58.480         0
58.490         7
58.500        27
58.510        20
58.520        13
58.530        20
58.540        33
58.550        20
58.560         0
58.570        27
58.580         7
58.590        13
58.600        13
58.610         7
58.620         0
58.630         7
58.640         0
58.650         0
58.660        47
58.670        13
58.680        13
58.690         0
58.700        13
58.710         7
58.720         0
58.730        33
58.740        13
58.750        20
58.760        13
58.770         7
58.780        33
58.790        13
58.800        20
58.810        27
58.820        33
58.830        20
58.840        27
58.850         7
58.860        40
58.870         7
58.880        20
58.890        20
58.900        27
58.910         0
58.920         0
58.930        20
58.940        13
58.950        20
58.960        13
58.970        20
58.980        13
58.990        13
59.000        13
59.010        20
59.020         0
59.030        13
59.040         7
59.050        20
59.060        13
59.070        20
59.080        20
59.090         7
59.100        13
59.110        20
59.120        33
59.130        13
59.140        13
59.150        27
59.160        27
59.170        20
59.180         0
59.190        13
59.200         0
59.210        33
59.220         7
59.230         0
59.240         0
59.250        33
59.260         7
59.270        20
59.280        13
59.290         7
59.300        20
59.310        13
59.320        20
59.330         7
59.340        33
59.350        20
59.360         7
59.370        20
59.380         0
59.390         7
59.400        20
59.410        13
59.420        27
59.430        27
59.440        20
59.450        20
59.460        13
59.470        20
59.480         7
59.490        13
59.500        20
59.510        20
59.520         7
59.530         7
59.540        20
59.550        40
59.560        20
59.570        13
59.580        20
59.590        20
59.600        20
59.610         0
59.620        20
59.630        40
59.640        13
59.650         7
59.660        27
59.670        13
59.680        13
59.690         7
59.700         7
59.710        53
59.720        33
59.730        47
59.740        13
59.750        33
59.760        27
59.770        20
59.780         0
59.790        13
59.800        27
59.810         7
59.820        13
59.830        13
59.840        20
59.850         0
59.860        20
59.870        27
59.880         7
59.890        27
59.900        13
59.910        27
59.920         7
59.930         0
59.940        20
59.950        13
59.960         7
59.970        13
59.980        27
59.990        13
60.000        13
