20.000        47
20.010        47
20.020         7
20.030        47
20.040        53
20.050        40
20.060        20
20.070        20
20.080        60
20.090        53
20.100        60
20.110        53
20.120        27
20.130        33
20.140        20
20.150        33
20.160        27
20.170        47
20.180        27
20.190        20
20.200        47
20.210        33
20.220        33
20.230        27
20.240        60
20.250        53
20.260        87
20.270        27
20.280        80
20.290        47
20.300        53
20.310        27
20.320        53
20.330        60
20.340        67
20.350        53
20.360        20
20.370        47
20.380        33
20.390        60
20.400        40
20.410        20
20.420        87
20.430        33
20.440        33
20.450        47
20.460        73
20.470        27
20.480        33
20.490        40
20.500        20
20.510        20
20.520        47
20.530        67
20.540        40
20.550        53
20.560        47
20.570        33
20.580        40
20.590        33
20.600        67
20.610        60
20.620         7
20.630        53
20.640        40
20.650        20
20.660        27
20.670        47
20.680        53
20.690        33
20.700        27
20.710        13
20.720        33
20.730        27
20.740        27
20.750        27
20.760        27
20.770        27
20.780        40
20.790        60
20.800        33
20.810        33
20.820        47
20.830        33
20.840        47
20.850        47
20.860        60
20.870        53
20.880        13
20.890        40
20.900        27
20.910        53
20.920        33
20.930        33
20.940        40
20.950        33
20.960        13
20.970        33
20.980        40
20.990        53
21.000        40
21.010        40
21.020        40
21.030        20
21.040        53
21.050        20
21.060        33
21.070        40
21.080        33
21.090        20
21.100        47
21.110        40
21.120        33
21.130        53
21.140        40
21.150        40
21.160        20
21.170        47
21.180        53
21.190        33
21.200        27
21.210        47
21.220        40
21.230        47
21.240        33
21.250        33
21.260        33
21.270        40
21.280        33
21.290        47
21.300        27
21.310        60
21.320        40
21.330        67
21.340        33
21.350        40
21.360        20
21.370        13
21.380        33
21.390        53
21.400        80
21.410        40
21.420        33
21.430        53
21.440        47
21.450        47
21.460        67
21.470        53
21.480        40
21.490        27
21.500        20
21.510        53
21.520        27
21.530        20
21.540        33
21.550        33
21.560        40
21.570        13
21.580        47
21.590        73
21.600        60
21.610        27
21.620        33
21.630        33
21.640        67
21.650        33
21.660        13
21.670        33
21.680        27
21.690         7
21.700        33
21.710        33
21.720        33
21.730        13
21.740        20
21.750        33
21.760        67
21.770        40
21.780        27
21.790        33
21.800        40
21.810        40
21.820        27
21.830        20
21.840        53
21.850        33
21.860        40
21.870        53
21.880        67
21.890        20
21.900        67
21.910        40
21.920        33
21.930        47
21.940        47
21.950        20
21.960        40
21.970        33
21.980        40
21.990        40
22.000        27
22.010        53
22.020        33
22.030        27
22.040        53
22.050        47
22.060        67
22.070        40
22.080        33
22.090        27
22.100        40
22.110        33
22.120        33
22.130        20
22.140        27
22.150        40
22.160        40
22.170        33
22.180        33
22.190        53
22.200        40
22.210        40
22.220        40
22.230        27
22.240        20
22.250        73
22.260        67
22.270        13
22.280        60
22.290        27
22.300        67
22.310        33
22.320         7
22.330         7
22.340        20
22.350        33
22.360        47
22.370        13
22.380        60
22.390        47
22.400        27
22.410        47
22.420        47
22.430        27
22.440        27
22.450        40
22.460        20
22.470        60
22.480        20
22.490        13
22.500        47
22.510        33
22.520        20
22.530        40
22.540        33
22.550        40
22.560        33
22.570        40
22.580        27
22.590        27
22.600        40
22.610        27
22.620        47
22.630        60
22.640        20
22.650        60
22.660        73
22.670        47
22.680        67
22.690        27
22.700        33
22.710        27
22.720        33
22.730        27
22.740        20
22.750        60
22.760        53
22.770        13
22.780        33
22.790        40
22.800        33
22.810        40
22.820         7
22.830        40
22.840        47
22.850        33
22.860        40
22.870        53
22.880        40
22.890        13
22.900        33
22.910        47
22.920        47
22.930        20
22.940        47
22.950        40
22.960        33
22.970        40
22.980        47
22.990        13
23.000        33
23.010        33
23.020        47
23.030        33
23.040        27
23.050        33
23.060        27
23.070        47
23.080        27
23.090        27
23.100        20
23.110        33
23.120        33
23.130         7
23.140        60
23.150        13
23.160        13
23.170        40
23.180        20
23.190        73
23.200        20
23.210        13
23.220        40
23.230        20
23.240        53
23.250        47
23.260        20
23.270        20
23.280        60
23.290        33
23.300        47
23.310        33
23.320        60
23.330        33
23.340        47
23.350        40
23.360        47
23.370        20
23.380        40
23.390        33
23.400        53
23.410        53
23.420        33
23.430        40
23.440        13
23.450        27
23.460        27
23.470        40
23.480        47
23.490        47
23.500        40
23.510        27
23.520        47
23.530        20
23.540        53
23.550        27
23.560        20
23.570        33
23.580        73
23.590        33
23.600        27
23.610        53
23.620        53
23.630        27
23.640        27
23.650        67
23.660        53
23.670        27
23.680        20
23.690        53
23.700        47
23.710        20
23.720        33
23.730        33
23.740        47
23.750        33
23.760        53
23.770        60
23.780        40
23.790        53
23.800        47
23.810        47
23.820        20
23.830        33
23.840        40
23.850        27
23.860         7
23.870        27
23.880        67
23.890        20
23.900        20
23.910        27
23.920        13
23.930        33
23.940        20
23.950        47
23.960        33
23.970        20
23.980        20
23.990        33
24.000        53
24.010        33
24.020        53
24.030        33
24.040        20
24.050        13
24.060        47
24.070        47
24.080        20
24.090        27
24.100         7
24.110        40
24.120        13
24.130        27
24.140        33
24.150        60
24.160        27
24.170        40
24.180        27
24.190        67
24.200        20
24.210        53
24.220        27
24.230        40
24.240        40
24.250        33
24.260        33
24.270        13
24.280        33
24.290        40
24.300        53
24.310        47
24.320        33
24.330        20
24.340        27
24.350        33
24.360        20
24.370        33
24.380        27
24.390        40
24.400        53
24.410        13
24.420        20
24.430         0
24.440        47
24.450        13
24.460        33
24.470        20
24.480        53
24.490         7
24.500        13
24.510        27
24.520        20
24.530        27
24.540        20
24.550        47
24.560        60
24.570        20
24.580        20
24.590        60
24.600        27
24.610        13
24.620        40
24.630        20
24.640        27
24.650        40
24.660        13
24.670        33
24.680        33
24.690        27
24.700        40
24.710        27
24.720        27
24.730        40
24.740        53
24.750        20
24.760        27
24.770        60
24.780        13
24.790        27
24.800        27
24.810        33
24.820        40
24.830        27
24.840        53
24.850        33
24.860        20
24.870        27
24.880        20
24.890        40
24.900        40
24.910        33
24.920        40
24.930        53
24.940        27
24.950        27
24.960        33
24.970        40
24.980        20
24.990        47
25.000        27
25.010        33
25.020        40
25.030        33
25.040        47
25.050        27
25.060        53
25.070        40
25.080         0
25.090        27
25.100        40
25.110        20
25.120        47
25.130        40
25.140        33
25.150        27
25.160        40
25.170        33
25.180        20
25.190        33
25.200        40
25.210         7
25.220        33
25.230         7
25.240        27
25.250        67
25.260        20
25.270        53
25.280        13
25.290         7
25.300        47
25.310        27
25.320        53
25.330        20
25.340        60
25.350        27
25.360        20
25.370        20
25.380        20
25.390        47
25.400        20
25.410        47
25.420        80
25.430        80
25.440        53
25.450        67
25.460        73
25.470        33
25.480        47
25.490        47
25.500        67
25.510        60
25.520        40
25.530        87
25.540       140
25.550       133
25.560       100
25.570       273
25.580        93
25.590       120
25.600       133
25.610        80
25.620       140
25.630        80
25.640       127
25.650       100
25.660       100
25.670       113
25.680        80
25.690        80
25.700        53
25.710        67
25.720        60
25.730        40
25.740        67
25.750        27
25.760        33
25.770        60
25.780        53
25.790        53
25.800        47
25.810        27
25.820        20
25.830        27
25.840        20
25.850        13
25.860        47
25.870        27
25.880        40
25.890        33
25.900        27
25.910        27
25.920        20
25.930        47
25.940        40
25.950        53
25.960        27
25.970        33
25.980        13
25.990        13
26.000        47
26.010        27
26.020        27
26.030        53
26.040        20
26.050         7
26.060        13
26.070        20
26.080        47
26.090        40
26.100        47
26.110        80
26.120        33
26.130        47
26.140        27
26.150        20
26.160        33
26.170        27
26.180        20
26.190        20
26.200         7
26.210        33
26.220        47
26.230        73
26.240        47
26.250        27
26.260        20
26.270        20
26.280        27
26.290        33
26.300        53
26.310        33
26.320        13
26.330        27
26.340        47
26.350        20
26.360         7
26.370        13
26.380        33
26.390        33
26.400        47
26.410        33
26.420        20
26.430        20
26.440         7
26.450        47
26.460        40
26.470         0
26.480        20
26.490        47
26.500        40
26.510        33
26.520        53
26.530        20
26.540         7
26.550        27
26.560        40
26.570        40
26.580        47
26.590        20
26.600        33
26.610        13
26.620        27
26.630        20
26.640        27
26.650        13
26.660        27
26.670         7
26.680        33
26.690        20
26.700        33
26.710        27
26.720        40
26.730        33
26.740        27
26.750        40
26.760        40
26.770        27
26.780        40
26.790        27
26.800        47
26.810        20
26.820        27
26.830        33
26.840        20
26.850        27
26.860        60
26.870        53
26.880        33
26.890        20
26.900        13
26.910        40
26.920        40
26.930        40
26.940        27
26.950        47
26.960        27
26.970        20
26.980        47
26.990        13
27.000        20
27.010        47
27.020        40
27.030        53
27.040        20
27.050        20
27.060         0
27.070        53
27.080        53
27.090        27
27.100        27
27.110        27
27.120        13
27.130        27
27.140        20
27.150        13
27.160        13
27.170        27
27.180        13
27.190        40
27.200        27
27.210        33
27.220        27
27.230        20
27.240        20
27.250        80
27.260        13
27.270        33
27.280        40
27.290        13
27.300        40
27.310        20
27.320         7
27.330        40
27.340        13
27.350        40
27.360        73
27.370         7
27.380        13
27.390        47
27.400        20
27.410        27
27.420        27
27.430        13
27.440        47
27.450        47
27.460        20
27.470        47
27.480        13
27.490        33
27.500        20
27.510        20
27.520        33
27.530        40
27.540        40
27.550        13
27.560        33
27.570        33
27.580        33
27.590        33
27.600        13
27.610        47
27.620        13
27.630        27
27.640        40
27.650        47
27.660        27
27.670        27
27.680        33
27.690        27
27.700        27
27.710        13
27.720        20
27.730        27
27.740        47
27.750        40
27.760        20
27.770        20
27.780        27
27.790         0
27.800         7
27.810        33
27.820        27
27.830        33
27.840         7
27.850        20
27.860        20
27.870        47
27.880        27
27.890        47
27.900        20
27.910        27
27.920        20
27.930        20
27.940        60
27.950        60
27.960        20
27.970        20
27.980        20
27.990        33
28.000        27
28.010        47
28.020        33
28.030        13
28.040        33
28.050        40
28.060        27
28.070        33
28.080         7
28.090        27
28.100        40
28.110        40
28.120        27
28.130        73
28.140        27
28.150        27
28.160        27
28.170        33
28.180        27
28.190        27
28.200        27
28.210        47
28.220        20
28.230        33
28.240        33
28.250        13
28.260        20
28.270         7
28.280        20
28.290         7
28.300        40
28.310        13
28.320        20
28.330        33
28.340        33
28.350        13
28.360         7
28.370        13
28.380        53
28.390        20
28.400        40
28.410        20
28.420        53
28.430        13
28.440        40
28.450        13
28.460        27
28.470         7
28.480         7
28.490        40
28.500        27
28.510        47
28.520        20
28.530        27
28.540        27
28.550        27
28.560        40
28.570        13
28.580        33
28.590        13
28.600         7
28.610         7
28.620        20
28.630        20
28.640        33
28.650        40
28.660        33
28.670        27
28.680        27
28.690        27
28.700        13
28.710        20
28.720        20
28.730        20
28.740        33
28.750        27
28.760        53
28.770        33
28.780        20
28.790        27
28.800        53
28.810         7
28.820        33
28.830        20
28.840        40
28.850        27
28.860        33
28.870        20
28.880        27
28.890        27
28.900         7
28.910        20
28.920        33
28.930        20
28.940        33
28.950        40
28.960        33
28.970        27
28.980        20
28.990        47
29.000        27
29.010        67
29.020        47
29.030         7
29.040        27
29.050         7
29.060        20
29.070        27
29.080        13
29.090        13
29.100        13
29.110        33
29.120         0
29.130        13
29.140        13
29.150         7
29.160         7
29.170        13
29.180        40
29.190        47
29.200        27
29.210        20
29.220         7
29.230         7
29.240        20
29.250        33
29.260         7
29.270        27
29.280        13
29.290        33
29.300         7
29.310        20
29.320        27
29.330        27
29.340        13
29.350        47
29.360        20
29.370        33
29.380        27
29.390        27
29.400        13
29.410        27
29.420        20
29.430        13
29.440        27
29.450        27
29.460        13
29.470        40
29.480        27
29.490        20
29.500        20
29.510        27
29.520        27
29.530        20
29.540        33
29.550        33
29.560        33
29.570        33
29.580        33
29.590        20
29.600         0
29.610        13
29.620        27
29.630        27
29.640         7
29.650        47
29.660        20
29.670        27
29.680        33
29.690        20
29.700        13
29.710         0
29.720        13
29.730        33
29.740        40
29.750        27
29.760         7
29.770        47
29.780        27
29.790        53
29.800        27
29.810        13
29.820         7
29.830        40
29.840        40
29.850        27
29.860        13
29.870        20
29.880        47
29.890        13
29.900        40
29.910        67
29.920        20
29.930        33
29.940         0
29.950        27
29.960        40
29.970        33
29.980        60
29.990        13
30.000        27
30.010        53
30.020        47
30.030        13
30.040        33
30.050        13
30.060        47
30.070        27
30.080        33
30.090         7
30.100        13
30.110        20
30.120        33
30.130        13
30.140        20
30.150        33
30.160        20
30.170         7
30.180        33
30.190        40
30.200        33
30.210        13
30.220        27
30.230        27
30.240        20
30.250        27
30.260        40
30.270        20
30.280        33
30.290        13
30.300        13
30.310         7
30.320        20
30.330        40
30.340        13
30.350        13
30.360         0
30.370        40
30.380        47
30.390        53
30.400        33
30.410        13
30.420        20
30.430        20
30.440        33
30.450        33
30.460        20
30.470        13
30.480         0
30.490        47
30.500         0
30.510        27
30.520        27
30.530        20
30.540        33
30.550        20
30.560        40
30.570        27
30.580        20
30.590        47
30.600        13
30.610        33
30.620        13
30.630        27
30.640         7
30.650         7
30.660        20
30.670        20
30.680        20
30.690        13
30.700        27
30.710        33
30.720         0
30.730        27
30.740        20
30.750        27
30.760        13
30.770        20
30.780        20
30.790         7
30.800        13
30.810         7
30.820        27
30.830        27
30.840        53
30.850        60
30.860        47
30.870        13
30.880        40
30.890        27
30.900         0
30.910        13
30.920        47
30.930        20
30.940        13
30.950        27
30.960        33
30.970        27
30.980         7
30.990        40
31.000        27
31.010         7
31.020        20
31.030        40
31.040        13
31.050        13
31.060        20
31.070        13
31.080         7
31.090        20
31.100        27
31.110        47
31.120        33
31.130        27
31.140        13
31.150        33
31.160        27
31.170         0
31.180        13
31.190        13
31.200        13
31.210         7
31.220        27
31.230         7
31.240        20
31.250        27
31.260        20
31.270        27
31.280        20
31.290        20
31.300        33
31.310        20
31.320        40
31.330        47
31.340        27
31.350        20
31.360        20
31.370         7
31.380        27
31.390        20
31.400        20
31.410        27
31.420        13
31.430        40
31.440        27
31.450        40
31.460        33
31.470        20
31.480         7
31.490        13
31.500         7
31.510         0
31.520        33
31.530        20
31.540        27
31.550        20
31.560        33
31.570        40
31.580        40
31.590        27
31.600        33
31.610        33
31.620        13
31.630        40
31.640        27
31.650        27
31.660        33
31.670        27
31.680        47
31.690        13
31.700        20
31.710        67
31.720        40
31.730        20
31.740        27
31.750        20
31.760        33
31.770        47
31.780        27
31.790        40
31.800        40
31.810        33
31.820        13
31.830        13
31.840        33
31.850        27
31.860        20
31.870        13
31.880        27
31.890        20
31.900        20
31.910         7
31.920         7
31.930        33
31.940        20
31.950        33
31.960         7
31.970        27
31.980        20
31.990        20
32.000        27
32.010        33
32.020        47
32.030        13
32.040        20
32.050        33
32.060        47
32.070        33
32.080        33
32.090        27
32.100        40
32.110        60
32.120        20
32.130        40
32.140        53
32.150        47
32.160        67
32.170        53
32.180        67
32.190        60
32.200        47
32.210        53
32.220        87
32.230        47
32.240        47
32.250        40
32.260        47
32.270        53
32.280        40
32.290        73
32.300        47
32.310        33
32.320        20
32.330        47
32.340        27
32.350        27
32.360        27
32.370         7
32.380        27
32.390        60
32.400        47
32.410        40
32.420         7
32.430        33
32.440        20
32.450        27
32.460         7
32.470        53
32.480        13
32.490        13
32.500        40
32.510        13
32.520        27
32.530        47
32.540        40
32.550        27
32.560        20
32.570        20
32.580        27
32.590        13
32.600        13
32.610        13
32.620        27
32.630        13
32.640        13
32.650         7
32.660         7
32.670        40
32.680        13
32.690         7
32.700        13
32.710        27
32.720        40
32.730        20
32.740        20
32.750        40
32.760        27
32.770         0
32.780        13
32.790         7
32.800        20
32.810        13
32.820        20
32.830        20
32.840        33
32.850        27
32.860        13
32.870        47
32.880        47
32.890        33
32.900        27
32.910        20
32.920        13
32.930        27
32.940         0
32.950        13
32.960        40
32.970        20
32.980        33
32.990        20
33.000        13
33.010        20
33.020        13
33.030        20
33.040        27
33.050        40
33.060        20
33.070        13
33.080        47
33.090        20
33.100        40
33.110        13
33.120        33
33.130        27
33.140        20
33.150        33
33.160        47
33.170        13
33.180        13
33.190        27
33.200         7
33.210        20
33.220        47
33.230         7
33.240        13
33.250         7
33.260         0
33.270        33
33.280         7
33.290        13
33.300        27
33.310        20
33.320        40
33.330        13
33.340        20
33.350        13
33.360        20
33.370         0
33.380        33
33.390        13
33.400        40
33.410        27
33.420        33
33.430        33
33.440        13
33.450        40
33.460        13
33.470        20
33.480         7
33.490        27
33.500        33
33.510        60
33.520        47
33.530        33
33.540        20
33.550        20
33.560        27
33.570        20
33.580        20
33.590        20
33.600        27
33.610         7
33.620        40
33.630        13
33.640        33
33.650        27
33.660        40
33.670        13
33.680        20
33.690        13
33.700        20
33.710        20
33.720         7
33.730        33
33.740        13
33.750        40
33.760        33
33.770         7
33.780        20
33.790        27
33.800        27
33.810        20
33.820         0
33.830        27
33.840        13
33.850         7
33.860        20
33.870        33
33.880        33
33.890        27
33.900        27
33.910        13
33.920        47
33.930        27
33.940        33
33.950        20
33.960        27
33.970        20
33.980        20
33.990        33
34.000        20
34.010        20
34.020        33
34.030        27
34.040        33
34.050        13
34.060         7
34.070        27
34.080        33
34.090         7
34.100        27
34.110        33
34.120        27
34.130        33
34.140        33
34.150        27
34.160        20
34.170        13
34.180        47
34.190         7
34.200        33
34.210        13
34.220         7
34.230        13
34.240        20
34.250        40
34.260        20
34.270        13
34.280        53
34.290        20
34.300        20
34.310        27
34.320        27
34.330        20
34.340        20
34.350         7
34.360        13
34.370         7
34.380        20
34.390        20
34.400        40
34.410        40
34.420        27
34.430        27
34.440        33
34.450         7
34.460        27
34.470        20
34.480        20
34.490         0
34.500        40
34.510        20
34.520        20
34.530         7
34.540        13
34.550        33
34.560         7
34.570        20
34.580        40
34.590         7
34.600        20
34.610        20
34.620        27
34.630        13
34.640         7
34.650         0
34.660        13
34.670        20
34.680        13
34.690        27
34.700        20
34.710         0
34.720        20
34.730        20
34.740        33
34.750        27
34.760        13
34.770         7
34.780        20
34.790        27
34.800        20
34.810        20
34.820        13
34.830        33
34.840        27
34.850        33
34.860        20
34.870        20
34.880        47
34.890        27
34.900        40
34.910        47
34.920        27
34.930        33
34.940        40
34.950        33
34.960        33
34.970        40
34.980        27
34.990        13
35.000        40
35.010        60
35.020        13
35.030        80
35.040        80
35.050        73
35.060        67
35.070        87
35.080       113
35.090       147
35.100        93
35.110       107
35.120        80
35.130       127
35.140       120
35.150       100
35.160       167
35.170       167
35.180       127
35.190        93
35.200       140
35.210        93
35.220       173
35.230       107
35.240       107
35.250        93
35.260        67
35.270        40
35.280        93
35.290        53
35.300        67
35.310        47
35.320        67
35.330        33
35.340        13
35.350        47
35.360        40
35.370        40
35.380        33
35.390        33
35.400        40
35.410        13
35.420        13
35.430        20
35.440         7
35.450        33
35.460        13
35.470        33
35.480         7
35.490        20
35.500        13
35.510         7
35.520        13
35.530        20
35.540        13
35.550        33
35.560        20
35.570         0
35.580        27
35.590        13
35.600        20
35.610        20
35.620        20
35.630        33
35.640        33
35.650        20
35.660        20
35.670        33
35.680         7
35.690         7
35.700        13
35.710        20
35.720        27
35.730        40
35.740        20
35.750        40
35.760        27
35.770        53
35.780        27
35.790        27
35.800         7
35.810        20
35.820        27
35.830        33
35.840        20
35.850         7
35.860        20
35.870        13
35.880         7
35.890         7
35.900        13
35.910        27
35.920        13
35.930        27
35.940        20
35.950        20
35.960        13
35.970        13
35.980         7
35.990        27
36.000        13
36.010        20
36.020        13
36.030        13
36.040        13
36.050        20
36.060        27
36.070        20
36.080        33
36.090         7
36.100         7
36.110        27
36.120        13
36.130        20
36.140        27
36.150         0
36.160        13
36.170        13
36.180         0
36.190        20
36.200        20
36.210        20
36.220        27
36.230        20
36.240         7
36.250         7
36.260        13
36.270        33
36.280        27
36.290        20
36.300        20
36.310        27
36.320        27
36.330        20
36.340        20
36.350        33
36.360        13
36.370         7
36.380         7
36.390        20
36.400        20
36.410        40
36.420        20
36.430        40
36.440        20
36.450         0
36.460         7
36.470         7
36.480        20
36.490        13
36.500        33
36.510        13
36.520        20
36.530        20
36.540         7
36.550        13
36.560        20
36.570        13
36.580        33
36.590        20
36.600        33
36.610        13
36.620        27
36.630        13
36.640        33
36.650        13
36.660        47
36.670         7
36.680        13
36.690        13
36.700        20
36.710        13
36.720        33
36.730         7
36.740        27
36.750        27
36.760         7
36.770        40
36.780        13
36.790        20
36.800        40
36.810        40
36.820        20
36.830        27
36.840        13
36.850         7
36.860         7
36.870        20
36.880        40
36.890        20
36.900        13
36.910        20
36.920        20
36.930        13
36.940        47
36.950        13
36.960        20
36.970         7
36.980        53
36.990        33
37.000        33
37.010        33
37.020        27
37.030        13
37.040        40
37.050        40
37.060        20
37.070        27
37.080        27
37.090         7
37.100        33
37.110         0
37.120        13
37.130        27
37.140        40
37.150        33
37.160         0
37.170        33
37.180        27
37.190        27
37.200        33
37.210        27
37.220         7
37.230        33
37.240        13
37.250         7
37.260        47
37.270         7
37.280        33
37.290        27
37.300        13
37.310        27
37.320        20
37.330        13
37.340        13
37.350         7
37.360        13
37.370        40
37.380         7
37.390        33
37.400        20
37.410        20
37.420        13
37.430        27
37.440        27
37.450        27
37.460        13
37.470        13
37.480        27
37.490        13
37.500        13
37.510        13
37.520        20
37.530        20
37.540        13
37.550        13
37.560        47
37.570         7
37.580        13
37.590        13
37.600        13
37.610        40
37.620        40
37.630        27
37.640        53
37.650        33
37.660        53
37.670        20
37.680        27
37.690        33
37.700        67
37.710        47
37.720        47
37.730        33
37.740        27
37.750        40
37.760        53
37.770        60
37.780        47
37.790        67
37.800        27
37.810        53
37.820        60
37.830        60
37.840        27
37.850        27
37.860        27
37.870        53
37.880        20
37.890        53
37.900        13
37.910        33
37.920        40
37.930        27
37.940        20
37.950        27
37.960        27
37.970        20
37.980        20
37.990        20
38.000         7
38.010        27
38.020        40
38.030        20
38.040        13
38.050         7
38.060         7
38.070         0
38.080        20
38.090        13
38.100        33
38.110        33
38.120        20
38.130        33
38.140        27
38.150        20
38.160        20
38.170        13
38.180        13
38.190         7
38.200        47
38.210        33
38.220        13
38.230        40
38.240        13
38.250        20
38.260        20
38.270        13
38.280        40
38.290        13
38.300        13
38.310        20
38.320        20
38.330        20
38.340        53
38.350        13
38.360        33
38.370        13
38.380        40
38.390        13
38.400        20
38.410        20
38.420        20
38.430        47
38.440        20
38.450        47
38.460        33
38.470         0
38.480        13
38.490         7
38.500        20
38.510        40
38.520        20
38.530        27
38.540        27
38.550        13
38.560        20
38.570        33
38.580         7
38.590        20
38.600        13
38.610        13
38.620        47
38.630        13
38.640        33
38.650        27
38.660        53
38.670        13
38.680         7
38.690        27
38.700         7
38.710        27
38.720        20
38.730        13
38.740        27
38.750        13
38.760        20
38.770         7
38.780        13
38.790        40
38.800        13
38.810        47
38.820        20
38.830        27
38.840        20
38.850        13
38.860        33
38.870        20
38.880        20
38.890         7
38.900         7
38.910        40
38.920        27
38.930        27
38.940        27
38.950         7
38.960        27
38.970         7
38.980        13
38.990        33
39.000        20
39.010        20
39.020        13
39.030        20
39.040         0
39.050        27
39.060        27
39.070        40
39.080        27
39.090        40
39.100        20
39.110        40
39.120        20
39.130        20
39.140        13
39.150        27
39.160        13
39.170        40
39.180        20
39.190        13
39.200        20
39.210        13
39.220         0
39.230        13
39.240        47
39.250        20
39.260        33
39.270        13
39.280        27
39.290         7
39.300        13
39.310        13
39.320        40
39.330        13
39.340         0
39.350        20
39.360        13
39.370        20
39.380        33
39.390        20
39.400        20
39.410        33
39.420        27
39.430        20
39.440         0
39.450        40
39.460        20
39.470        13
39.480        20
39.490        13
39.500        20
39.510        40
39.520        13
39.530         7
39.540        20
39.550         7
39.560        13
39.570        20
39.580         7
39.590         7
39.600        27
39.610        20
39.620         7
39.630        27
39.640        40
39.650        33
39.660        13
39.670        20
39.680        13
39.690        27
39.700        27
39.710        47
39.720        27
39.730        27
39.740        27
39.750        27
39.760        13
39.770        27
39.780         0
39.790        13
39.800        53
39.810        27
39.820        13
39.830        27
39.840        20
39.850        20
39.860        27
39.870        13
39.880        27
39.890         7
39.900         7
39.910        13
39.920        27
39.930        20
39.940        20
39.950         0
39.960        27
39.970         0
39.980        47
39.990         7
40.000        13
40.010         7
40.020        33
40.030        27
40.040         7
40.050        20
40.060        27
40.070         7
40.080         7
40.090        33
40.100        47
40.110        33
40.120        20
40.130        27
40.140        20
40.150        13
40.160        13
40.170        40
40.180        13
40.190        27
40.200        13
40.210        13
40.220        27
40.230         7
40.240         7
40.250        60
40.260        13
40.270         0
40.280         7
40.290        20
40.300        13
40.310         7
40.320        27
40.330        33
40.340        47
40.350         7
40.360        27
40.370        13
40.380         7
40.390        40
40.400        27
40.410        27
40.420        40
40.430        20
40.440        20
40.450         7
40.460        20
40.470        40
40.480        20
40.490        40
40.500        13
40.510        13
40.520        20
40.530        47
40.540        20
40.550        13
40.560        27
40.570        13
40.580        20
40.590        27
40.600         7
40.610         7
40.620        33
40.630        27
40.640        20
40.650        20
40.660         0
40.670         7
40.680        40
40.690        40
40.700        27
40.710        33
40.720        20
40.730        13
40.740        40
40.750        27
40.760        13
40.770        47
40.780        20
40.790         7
40.800        20
40.810        40
40.820        20
40.830        13
40.840        27
40.850        33
40.860         7
40.870        20
40.880        27
40.890         7
40.900        13
40.910        27
40.920        13
40.930         0
40.940        27
40.950        40
40.960        33
40.970        20
40.980        27
40.990        20
41.000        27
41.010        20
41.020        47
41.030        27
41.040        20
41.050        20
41.060         0
41.070        40
41.080        20
41.090         0
41.100        27
41.110         7
41.120        27
41.130         7
41.140        33
41.150        13
41.160         7
41.170        40
41.180        13
41.190        13
41.200        60
41.210        33
41.220        20
41.230         0
41.240        20
41.250        40
41.260        20
41.270        40
41.280        40
41.290        27
41.300        40
41.310        33
41.320         7
41.330        27
41.340         7
41.350        20
41.360        27
41.370        33
41.380        13
41.390        13
41.400        20
41.410        33
41.420        20
41.430        13
41.440        20
41.450        33
41.460        20
41.470        47
41.480        40
41.490        40
41.500        33
41.510        20
41.520        47
41.530        20
41.540        33
41.550        67
41.560        53
41.570        13
41.580        80
41.590        47
41.600        73
41.610        93
41.620        87
41.630       100
41.640       180
41.650       147
41.660       167
41.670       233
41.680       247
41.690       247
41.700       333
41.710       287
41.720       307
41.730       300
41.740       347
41.750       267
41.760       267
41.770       200
41.780       167
41.790       147
41.800       107
41.810       187
41.820       147
41.830       140
41.840       180
41.850       127
41.860       167
41.870       133
41.880        73
41.890        73
41.900        33
41.910        33
41.920        40
41.930        13
41.940        27
41.950        27
41.960        13
41.970         7
41.980        20
41.990        13
42.000        27
42.010        13
42.020        27
42.030        20
42.040        13
42.050        27
42.060         7
42.070         7
42.080        20
42.090        20
42.100         0
42.110        13
42.120         7
42.130         0
42.140        20
42.150         7
42.160         7
42.170        13
42.180        20
42.190        27
42.200        47
42.210        13
42.220        27
42.230        27
42.240         7
42.250        33
42.260        27
42.270         7
42.280        27
42.290        40
42.300        27
42.310        20
42.320        27
42.330         7
42.340        13
42.350        13
42.360        40
42.370        20
42.380        13
42.390        33
42.400        20
42.410        47
42.420         0
42.430        27
42.440        13
42.450        40
42.460        27
42.470        47
42.480        27
42.490        20
42.500        20
42.510        27
42.520        53
42.530        40
42.540        27
42.550        20
42.560        20
42.570        13
42.580         0
42.590        13
42.600        13
42.610         0
42.620         0
42.630         7
42.640        20
42.650        20
42.660        53
42.670        27
42.680         7
42.690        20
42.700        27
42.710        20
42.720        27
42.730         7
42.740        13
42.750        20
42.760        47
42.770         0
42.780         7
42.790         7
42.800        13
42.810        33
42.820        13
42.830        20
42.840         7
42.850        27
42.860        20
42.870        20
42.880        20
42.890        27
42.900        27
42.910        13
42.920         7
42.930         7
42.940        40
42.950        27
42.960         7
42.970         7
42.980        13
42.990         7
43.000        33
43.010         7
43.020         7
43.030        13
43.040        13
43.050        53
43.060        20
43.070        27
43.080        33
43.090        20
43.100         0
43.110        13
43.120         0
43.130        27
43.140         7
43.150         7
43.160        40
43.170        33
43.180        33
43.190        13
43.200        33
43.210        20
43.220        40
43.230        13
43.240        33
43.250        20
43.260        27
43.270        33
43.280        33
43.290        60
43.300        67
43.310        80
43.320        73
43.330        73
43.340       113
43.350       113
43.360       140
43.370       167
43.380       187
43.390       120
43.400       113
43.410        73
43.420       100
43.430       140
43.440        47
43.450        53
43.460       113
43.470       113
43.480       133
43.490       107
43.500        67
43.510       133
43.520       113
43.530       113
43.540       133
43.550        53
43.560        33
43.570        33
43.580        40
43.590         0
43.600         7
43.610        20
43.620        27
43.630        20
43.640         0
43.650        27
43.660        27
43.670        13
43.680         7
43.690         7
43.700        27
43.710        20
43.720         7
43.730        20
43.740        27
43.750        13
43.760        27
43.770         7
43.780        33
43.790        27
43.800        13
43.810         0
43.820        33
43.830        13
43.840         7
43.850        13
43.860         7
43.870        27
43.880        13
43.890         0
43.900         7
43.910        33
43.920         7
43.930        13
43.940        33
43.950         7
43.960        27
43.970        33
43.980         7
43.990        20
44.000        13
44.010        20
44.020         7
44.030         7
44.040        13
44.050        13
44.060         0
44.070        27
44.080        20
44.090        20
44.100        20
44.110        20
44.120         0
44.130         7
44.140        33
44.150        20
44.160        13
44.170         0
44.180        33
44.190         0
44.200        13
44.210        27
44.220        13
44.230         7
44.240        13
44.250        27
44.260        27
44.270        27
44.280         7
44.290        27
44.300        27
44.310         7
44.320         7
44.330         0
44.340        13
44.350        20
44.360         7
44.370        13
44.380        27
44.390         7
44.400        40
44.410         7
44.420        20
44.430        20
44.440        13
44.450        13
44.460         0
44.470        13
44.480         7
44.490        20
44.500        20
44.510         0
44.520        33
44.530         0
44.540        13
44.550        13
44.560        20
44.570        27
44.580        13
44.590        27
44.600         7
44.610        13
44.620        13
44.630        13
44.640        20
44.650        47
44.660        20
44.670         7
44.680        20
44.690         7
44.700         7
44.710        20
44.720        13
44.730        20
44.740         7
44.750        13
44.760        20
44.770        27
44.780         7
44.790        53
44.800        13
44.810        40
44.820        33
44.830        13
44.840         0
44.850        20
44.860        20
44.870         7
44.880         7
44.890         0
44.900        13
44.910        20
44.920         7
44.930        20
44.940        40
44.950         0
44.960        20
44.970        20
44.980         7
44.990        33
45.000        27
45.010        33
45.020        20
45.030        20
45.040        33
45.050        13
45.060        13
45.070         7
45.080         7
45.090        27
45.100        20
45.110        20
45.120        27
45.130        13
45.140        13
45.150        20
45.160         7
45.170        20
45.180        13
45.190         7
45.200        13
45.210        13
45.220         7
45.230        33
45.240         7
45.250         7
45.260        33
45.270        27
45.280        33
45.290        13
45.300         0
45.310        27
45.320         7
45.330        20
45.340         7
45.350         7
45.360        13
45.370        47
45.380        40
45.390        13
45.400         7
45.410         7
45.420        13
45.430         7
45.440        27
45.450        20
45.460        33
45.470        20
45.480        13
45.490        13
45.500        13
45.510        33
45.520         7
45.530        40
45.540        27
45.550         0
45.560        13
45.570         7
45.580        27
45.590        13
45.600        40
45.610        33
45.620        13
45.630        13
45.640        27
45.650        53
45.660        13
45.670        40
45.680        33
45.690        13
45.700        27
45.710         7
45.720        27
45.730        60
45.740         7
45.750         7
45.760        60
45.770        27
45.780        47
45.790        13
45.800        47
45.810        40
45.820        13
45.830        40
45.840        27
45.850        47
45.860        53
45.870        33
45.880        40
45.890        47
45.900        33
45.910        53
45.920        73
45.930        60
45.940        20
45.950        53
45.960        53
45.970        53
45.980        73
45.990        60
46.000        40
46.010        53
46.020        27
46.030        47
46.040        27
46.050        87
46.060        20
46.070        60
46.080        27
46.090        33
46.100        47
46.110        33
46.120        40
46.130        47
46.140        20
46.150        27
46.160        27
46.170        40
46.180        40
46.190        53
46.200        27
46.210        20
46.220        33
46.230        27
46.240        27
46.250        53
46.260        47
46.270        20
46.280        40
46.290        27
46.300        27
46.310        27
46.320        13
46.330        40
46.340        20
46.350        13
46.360        27
46.370        27
46.380        20
46.390        20
46.400         0
46.410        20
46.420         0
46.430        27
46.440        20
46.450         7
46.460        40
46.470        13
46.480        20
46.490        27
46.500        47
46.510        20
46.520        20
46.530         7
46.540        13
46.550        53
46.560         7
46.570        20
46.580        27
46.590         7
46.600         0
46.610        20
46.620        27
46.630        33
46.640        20
46.650         0
46.660        13
46.670        20
46.680         7
46.690        27
46.700         7
46.710        27
46.720         0
46.730        13
46.740        13
46.750        13
46.760        27
46.770        13
46.780        20
46.790        20
46.800         0
46.810        13
46.820        20
46.830        20
46.840        13
46.850        13
46.860        40
46.870         7
46.880         7
46.890         7
46.900         7
46.910        13
46.920        20
46.930        13
46.940        40
46.950        13
46.960        27
46.970         7
46.980        13
46.990         7
47.000        20
47.010        13
47.020        27
47.030        33
47.040         7
47.050        20
47.060        13
47.070        13
47.080         7
47.090        13
47.100        20
47.110        47
47.120        33
47.130        27
47.140         7
47.150        20
47.160         7
47.170        20
47.180        33
47.190         0
47.200         7
47.210        20
47.220        27
47.230        20
47.240        13
47.250        47
47.260         7
47.270         7
47.280         7
47.290         0
47.300        33
47.310         7
47.320        13
47.330        40
47.340        20
47.350        13
47.360        20
47.370        20
47.380        33
47.390        13
47.400        20
47.410        13
47.420        20
47.430         7
47.440        27
47.450         7
47.460        20
47.470        20
47.480        13
47.490        20
47.500         7
47.510         7
47.520        27
47.530        20
47.540        13
47.550        13
47.560        27
47.570        20
47.580        20
47.590         0
47.600         7
47.610         7
47.620         7
47.630        20
47.640        20
47.650        33
47.660         7
47.670        13
47.680        13
47.690        20
47.700        20
47.710        13
47.720        20
47.730        13
47.740         7
47.750         7
47.760        20
47.770         7
47.780        13
47.790        13
47.800        13
47.810        13
47.820        27
47.830        33
47.840        20
47.850        27
47.860        13
47.870        13
47.880        33
47.890        13
47.900         0
47.910        27
47.920        40
47.930         7
47.940         7
47.950        20
47.960         7
47.970         0
47.980        20
47.990        13
48.000         7
48.010        20
48.020         7
48.030        13
48.040        13
48.050        13
48.060        20
48.070        13
48.080        13
48.090         0
48.100         0
48.110         0
48.120         0
48.130         7
48.140        13
48.150        20
48.160         0
48.170        27
48.180        13
48.190        27
48.200        33
48.210        27
48.220        13
48.230        20
48.240        33
48.250        13
48.260        20
48.270        20
48.280         7
48.290        33
48.300        13
48.310        27
48.320         7
48.330        20
48.340         0
48.350         7
48.360        20
48.370         7
48.380        20
48.390         0
48.400        20
48.410        20
48.420        20
48.430        13
48.440         7
48.450         7
48.460         0
48.470        20
48.480         7
48.490        13
48.500        13
48.510        27
48.520        20
48.530         7
48.540         0
48.550        13
48.560        33
48.570        13
48.580        13
48.590        13
48.600         7
48.610        13
48.620        13
48.630        27
48.640        13
48.650        13
48.660        33
48.670         7
48.680         0
48.690        13
48.700        13
48.710        40
48.720        13
48.730         0
48.740         7
48.750        13
48.760         7
48.770        13
48.780        27
48.790         7
48.800        13
48.810        13
48.820        40
48.830        13
48.840        13
48.850        13
48.860        33
48.870        13
48.880        40
48.890        13
48.900         0
48.910        20
48.920         7
48.930        20
48.940        13
48.950        53
48.960         7
48.970         7
48.980         0
48.990         0
49.000        20
49.010         0
49.020        20
49.030        13
49.040        13
49.050        20
49.060        20
49.070        13
49.080        20
49.090         7
49.100         7
49.110         7
49.120         0
49.130        13
49.140        27
49.150         7
49.160        33
49.170        20
49.180         7
49.190         0
49.200        20
49.210        13
49.220        13
49.230         7
49.240         7
49.250         7
49.260        13
49.270        33
49.280         0
49.290        27
49.300        13
49.310         7
49.320        13
49.330        20
49.340         0
49.350        20
49.360        13
49.370        27
49.380        27
49.390         7
49.400        20
49.410         0
49.420        27
49.430        13
49.440        13
49.450         7
49.460         7
49.470        20
49.480        27
49.490        27
49.500        13
49.510        13
49.520        27
49.530        27
49.540        27
49.550        13
49.560         7
49.570        20
49.580         0
49.590        20
49.600        13
49.610        13
49.620        13
49.630        33
49.640         7
49.650         7
49.660         0
49.670        20
49.680         0
49.690         7
49.700         0
49.710        20
49.720         0
49.730        40
49.740        27
49.750        20
49.760        13
49.770        13
49.780        20
49.790        20
49.800        13
49.810         7
49.820        13
49.830        20
49.840        13
49.850        13
49.860         7
49.870         7
49.880        27
49.890        27
49.900         0
49.910        13
49.920         7
49.930         0
49.940        20
49.950         0
49.960         7
49.970         7
49.980        20
49.990        20
50.000        13
50.010        13
50.020        13
50.030         0
50.040        13
50.050        13
50.060        27
50.070        13
50.080        20
50.090        13
50.100        20
50.110        20
50.120        20
50.130        27
50.140        13
50.150        20
50.160         7
50.170        40
50.180        33
50.190         7
50.200        13
50.210        13
50.220        13
50.230        13
50.240        47
50.250         0
50.260         7
50.270         7
50.280        13
50.290        27
50.300         7
50.310        27
50.320         0
50.330        13
50.340        20
50.350        20
50.360        13
50.370        27
50.380        27
50.390        13
50.400         7
50.410        27
50.420        27
50.430        13
50.440         0
50.450         7
50.460         0
50.470        33
50.480         7
50.490         0
50.500         7
50.510         7
50.520        13
50.530         0
50.540        13
50.550         0
50.560         7
50.570        13
50.580        27
50.590         7
50.600         0
50.610        13
50.620         7
50.630         7
50.640        20
50.650        20
50.660        13
50.670        20
50.680        20
50.690        13
50.700        27
50.710         0
50.720        13
50.730        13
50.740        20
50.750        13
50.760         7
50.770        13
50.780        13
50.790         0
50.800        13
50.810         7
50.820         7
50.830         7
50.840        13
50.850         7
50.860         7
50.870        13
50.880        20
50.890         7
50.900        13
50.910         0
50.920        13
50.930        13
50.940        20
50.950        53
50.960        33
50.970        20
50.980         7
50.990         0
51.000        13
51.010        13
51.020        13
51.030         7
51.040        33
51.050        20
51.060         7
51.070        13
51.080         0
51.090         0
51.100        20
51.110         7
51.120        27
51.130         0
51.140        20
51.150        33
51.160         7
51.170        27
51.180        33
51.190        13
51.200        20
51.210        27
51.220         7
51.230        13
51.240        13
51.250        13
51.260        13
51.270         7
51.280        20
51.290         7
51.300         7
51.310        27
51.320         7
51.330        33
51.340        13
51.350         7
51.360        20
51.370        53
51.380        20
51.390         0
51.400        27
51.410        13
51.420         7
51.430         7
51.440         0
51.450        13
51.460        20
51.470         7
51.480         7
51.490        13
51.500        27
51.510        13
51.520        13
51.530         7
51.540        27
51.550         7
51.560        13
51.570         7
51.580         0
51.590        27
51.600        13
51.610         7
51.620        27
51.630         7
51.640         7
51.650        27
51.660        20
51.670         7
51.680         0
51.690        13
51.700        13
51.710        20
51.720        20
51.730        27
51.740         7
51.750        40
51.760        13
51.770        20
51.780        27
51.790        20
51.800         7
51.810         0
51.820        13
51.830        27
51.840        13
51.850         0
51.860         0
51.870         0
51.880         7
51.890        33
51.900        40
51.910        13
51.920        20
51.930        13
51.940         0
51.950         7
51.960        13
51.970        20
51.980        20
51.990        20
52.000        27
52.010         7
52.020        13
52.030        27
52.040         0
52.050         7
52.060         7
52.070        13
52.080        20
52.090        33
52.100        20
52.110        13
52.120         0
52.130         7
52.140         7
52.150        13
52.160         7
52.170        13
52.180        13
52.190        13
52.200        13
52.210        13
52.220        20
52.230         7
52.240         7
52.250        20
52.260        13
52.270         7
52.280         7
52.290        20
52.300        13
52.310         7
52.320        33
52.330        20
52.340        27
52.350        27
52.360        20
52.370        13
52.380        13
52.390        13
52.400        20
52.410        33
52.420        20
52.430        13
52.440        20
52.450         7
52.460        27
52.470         7
52.480        40
52.490        27
52.500         7
52.510        13
52.520        33
52.530         0
52.540        20
52.550        47
52.560        27
52.570        40
52.580        47
52.590        73
52.600        47
52.610        27
52.620        20
52.630        60
52.640        47
52.650        33
52.660        27
52.670        47
52.680        27
52.690        33
52.700        33
52.710        53
52.720        47
52.730        33
52.740        20
52.750        47
52.760        13
52.770        13
52.780         7
52.790        40
52.800         0
52.810        20
52.820        13
52.830        33
52.840        20
52.850        13
52.860        33
52.870         7
52.880        27
52.890         7
52.900        13
52.910        27
52.920        27
52.930         7
52.940        13
52.950        13
52.960         7
52.970        27
52.980        20
52.990         0
53.000        13
53.010        13
53.020         7
53.030        47
53.040        13
53.050         7
53.060         7
53.070         7
53.080        20
53.090         7
53.100        20
53.110        13
53.120        13
53.130         0
53.140         7
53.150        20
53.160        33
53.170        27
53.180         0
53.190         0
53.200        20
53.210         7
53.220        13
53.230        27
53.240         7
53.250        20
53.260         7
53.270        13
53.280         0
53.290        20
53.300         7
53.310         0
53.320        13
53.330         0
53.340        20
53.350        13
53.360         0
53.370        13
53.380        13
53.390         7
53.400         0
53.410        27
53.420        13
53.430         7
53.440        13
53.450         0
53.460         0
53.470        20
53.480         7
53.490        20
53.500        13
53.510         7
53.520        13
53.530        13
53.540        13
53.550        13
53.560        13
53.570        33
53.580        33
53.590         0
53.600         7
53.610        13
53.620        13
53.630        20
53.640        20
53.650        13
53.660         0
53.670         0
53.680        33
53.690         7
53.700         0
53.710         0
53.720        20
53.730        33
53.740         7
53.750         0
53.760         7
53.770         7
53.780        13
53.790         7
53.800        20
53.810        20
53.820        13
53.830         7
53.840        13
53.850         7
53.860        27
53.870        20
53.880        13
53.890        40
53.900        13
53.910         0
53.920         0
53.930        13
53.940        13
53.950         7
53.960         0
53.970        13
53.980         7
53.990         7
54.000        13
54.010         7
54.020         0
54.030        20
54.040         7
54.050         7
54.060        20
54.070         7
54.080        13
54.090        13
54.100         7
54.110        20
54.120        20
54.130         7
54.140        13
54.150         0
54.160         7
54.170        27
54.180         0
54.190        33
54.200         7
54.210         7
54.220        13
54.230        13
54.240        27
54.250         7
54.260        27
54.270         0
54.280        13
54.290         7
54.300         7
54.310         0
54.320        20
54.330        20
54.340         7
54.350         0
54.360        13
54.370        20
54.380         7
54.390        13
54.400         7
54.410        13
54.420        20
54.430         7
54.440         7
54.450        13
54.460        13
54.470         7
54.480        27
54.490         7
54.500         7
54.510         7
54.520        13
54.530         7
54.540         0
54.550         7
54.560        27
54.570        13
54.580        13
54.590        27
54.600         0
54.610        20
54.620         0
54.630         7
54.640         0
54.650        13
54.660        13
54.670         7
54.680         0
54.690         7
54.700        13
54.710        33
54.720         7
54.730        20
54.740        13
54.750        13
54.760        20
54.770        20
54.780        27
54.790        27
54.800        13
54.810         7
54.820         7
54.830        20
54.840        13
54.850        13
54.860         0
54.870         7
54.880         7
54.890         7
54.900        13
54.910        13
54.920         7
54.930         7
54.940         7
54.950        13
54.960         7
54.970         7
54.980         7
54.990        20
55.000         0
55.010         0
55.020         0
55.030        13
55.040         7
55.050         7
55.060         7
55.070         0
55.080         7
55.090         7
55.100         7
55.110         7
55.120        13
55.130        20
55.140         7
55.150         7
55.160        13
55.170        13
55.180         7
55.190         0
55.200         7
55.210        13
55.220        13
55.230        13
55.240        13
55.250        33
55.260        27
55.270        13
55.280         0
55.290         0
55.300         7
55.310         7
55.320        13
55.330        33
55.340         7
55.350         7
55.360        27
55.370         0
55.380         0
55.390         7
55.400        33
55.410         7
55.420         7
55.430        33
55.440         7
55.450         0
55.460         7
55.470        27
55.480        13
55.490         7
55.500         0
55.510        13
55.520        13
55.530        13
55.540        13
55.550         7
55.560        20
55.570         7
55.580        13
55.590         7
55.600         7
55.610        47
55.620         0
55.630        13
55.640         7
55.650         7
55.660        27
55.670        20
55.680        13
55.690        20
55.700        13
55.710         7
55.720        20
55.730        20
55.740        20
55.750         0
55.760        13
55.770        13
55.780        27
55.790        20
55.800         7
55.810        20
55.820        13
55.830        20
55.840         0
55.850        13
55.860        20
55.870         0
55.880        20
55.890        13
55.900         7
55.910        13
55.920         7
55.930        13
55.940        13
55.950         0
55.960        13
55.970         0
55.980         7
55.990        27
56.000         7
56.010         7
56.020         0
56.030         0
56.040         0
56.050         0
56.060        13
56.070         7
56.080         7
56.090        13
56.100         0
56.110        20
56.120        13
56.130        13
56.140        13
56.150         0
56.160         7
56.170         0
56.180        20
56.190        27
56.200        13
56.210         0
56.220         0
56.230         0
56.240         7
56.250         7
56.260         7
56.270         7
56.280        13
56.290         7
56.300        13
56.310        13
56.320        27
56.330        27
56.340        20
56.350         0
56.360        27
56.370        13
56.380        13
56.390         7
56.400         0
56.410        13
56.420         7
56.430         7
56.440         7
56.450         7
56.460         0
56.470        13
56.480         7
56.490        13
56.500        20
56.510         7
56.520        13
56.530        20
56.540        13
56.550         7
56.560        20
56.570        13
56.580        13
56.590         7
56.600        13
56.610        13
56.620        27
56.630         7
56.640         7
56.650        13
56.660        13
56.670        20
56.680        13
56.690         7
56.700         0
56.710         0
56.720         7
56.730         7
56.740        27
56.750        27
56.760         0
56.770         7
56.780        13
56.790        13
56.800         0
56.810        40
56.820        20
56.830        13
56.840         7
56.850        20
56.860        27
56.870        20
56.880        13
56.890        13
56.900        27
56.910        40
56.920        27
56.930         7
56.940        33
56.950        13
56.960        20
56.970        20
56.980         7
56.990        20
57.000        13
57.010        13
57.020        13
57.030        20
57.040        13
57.050        20
57.060         7
57.070        20
57.080         0
57.090        13
57.100        20
57.110        20
57.120        13
57.130        13
57.140        13
57.150        13
57.160        13
57.170         7
57.180        20
57.190         7
57.200        13
57.210        20
57.220        20
57.230        13
57.240        27
57.250        13
57.260        20
57.270        20
57.280         0
57.290        20
57.300        13
57.310         7
57.320        47
57.330        13
57.340        20
57.350        20
57.360        13
57.370        33
57.380        27
57.390        13
57.400        33
57.410        27
57.420        27
57.430        53
57.440        47
57.450        40
57.460        60
57.470        87
57.480        87
57.490       147
57.500       140
57.510       193
57.520       180
57.530       167
57.540       260
57.550       200
57.560       253
57.570       227
57.580       187
57.590       193
57.600       120
57.610       100
57.620       113
57.630        40
57.640       107
57.650       113
57.660        87
57.670       167
57.680        80
57.690        80
57.700       127
57.710       120
57.720       107
57.730        87
57.740       140
57.750        40
57.760        87
57.770        93
57.780        47
57.790        53
57.800        33
57.810        60
57.820        33
57.830        27
57.840        13
57.850        33
57.860        13
57.870        27
57.880        27
57.890        20
57.900        20
57.910        27
57.920        27
57.930         0
57.940        27
57.950         0
57.960         0
57.970        20
57.980        13
57.990        73
58.000         7
58.010        13
58.020         7
58.030        33
58.040         0
58.050         7
58.060        13
58.070        27
58.080         7
58.090         7
58.100         7
58.110        20
58.120        13
58.130        13
58.140         7
58.150        27
58.160         0
58.170         0
58.180        13
58.190         7
58.200        13
58.210        13
58.220         7
58.230        27
58.240        27
58.250         0
58.260         7
58.270         0
58.280         7
58.290        20
58.300        20
58.310         7
58.320         7
58.330        20
58.340        20
58.350         7
58.360         7
58.370        13
58.380        20
58.390         7
58.400         0
58.410         7
58.420        27
58.430        20
58.440        13
58.450        20
58.460         7
58.470         7
58.480        13
58.490        20
58.500        27
58.510        13
58.520         0
58.530        20
58.540        27
58.550        13
58.560        13
58.570         0
58.580        13
58.590         7
58.600         7
58.610        13
58.620        13
58.630        13
58.640        13
58.650         7
58.660        27
58.670         0
58.680         0
58.690         7
58.700         7
58.710         7
58.720         0
58.730        20
58.740         0
58.750         0
58.760         7
58.770        13
58.780         0
58.790        20
58.800        13
58.810        27
58.820         7
58.830        20
58.840         0
58.850        20
58.860         7
58.870         7
58.880         0
58.890        13
58.900         0
58.910        13
58.920        13
58.930        13
58.940         7
58.950        20
58.960         7
58.970         7
58.980        27
58.990        13
59.000        13
59.010        20
59.020         7
59.030         7
59.040        27
59.050         7
59.060         7
59.070         7
59.080         7
59.090         7
59.100        13
59.110        13
59.120        13
59.130         0
59.140         7
59.150        13
59.160         7
59.170        33
59.180         7
59.190        27
59.200        20
59.210        20
59.220         7
59.230         7
59.240         7
59.250        27
59.260        20
59.270         7
59.280        20
59.290         7
59.300        13
59.310         0
59.320         7
59.330         7
59.340        13
59.350        27
59.360         0
59.370         7
59.380        13
59.390        13
59.400        20
59.410        13
59.420        13
59.430         7
59.440        13
59.450         7
59.460         7
59.470        20
59.480        20
59.490         0
59.500        13
59.510        27
59.520        20
59.530         7
59.540        13
59.550        20
59.560        20
59.570         0
59.580        13
59.590        13
59.600         7
59.610        13
59.620        13
59.630         7
59.640         7
59.650        13
59.660         7
59.670        20
59.680         0
59.690         7
59.700         7
59.710        27
59.720        20
59.730        13
59.740        20
59.750        20
59.760        20
59.770         7
59.780        20
59.790        20
59.800        20
59.810        20
59.820        27
59.830         7
59.840         0
59.850        20
59.860         0
59.870        13
59.880        13
59.890         7
59.900        13
59.910        20
59.920        27
59.930         7
59.940        13
59.950        13
59.960         0
59.970        13
59.980        13
59.990         7
60.000        13
