20.000        47
20.010        47
20.020        67
20.030        47
20.040        33
20.050        33
20.060        40
20.070        27
20.080        60
20.090        27
20.100        67
20.110        67
20.120        33
20.130        87
20.140        53
20.150        20
20.160        20
20.170        20
20.180        60
20.190        60
20.200        20
20.210        47
20.220        33
20.230        53
20.240        27
20.250        47
20.260        53
20.270        53
20.280        47
20.290        27
20.300        27
20.310        67
20.320        53
20.330        67
20.340        60
20.350        60
20.360        47
20.370        67
20.380        53
20.390        33
20.400        40
20.410        60
20.420        53
20.430        27
20.440        40
20.450        20
20.460        67
20.470        47
20.480        33
20.490        40
20.500        20
20.510        40
20.520        40
20.530        53
20.540        20
20.550        47
20.560        33
20.570        40
20.580        33
20.590        13
20.600        20
20.610        53
20.620        47
20.630        93
20.640        33
20.650        53
20.660        60
20.670        53
20.680        67
20.690        47
20.700        27
20.710        27
20.720        53
20.730        67
20.740        33
20.750        33
20.760        40
20.770        47
20.780        53
20.790        40
20.800        40
20.810        33
20.820        60
20.830        40
20.840        40
20.850        20
20.860        53
20.870        60
20.880        73
20.890        20
20.900        40
20.910        47
20.920        47
20.930        33
20.940        67
20.950        40
20.960        73
20.970        40
20.980        20
20.990        33
21.000        40
21.010        80
21.020        27
21.030        47
21.040        20
21.050        47
21.060        13
21.070         0
21.080        33
21.090        73
21.100        27
21.110        40
21.120        27
21.130        40
21.140        53
21.150        47
21.160        27
21.170        53
21.180        27
21.190        13
21.200        33
21.210        60
21.220        27
21.230        67
21.240        27
21.250        40
21.260        40
21.270        33
21.280        20
21.290        60
21.300        53
21.310        47
21.320        53
21.330        27
21.340        47
21.350        27
21.360        47
21.370         7
21.380        60
21.390        47
21.400        40
21.410        13
21.420        20
21.430        80
21.440        27
21.450        33
21.460        47
21.470        53
21.480        40
21.490        60
21.500        33
21.510        60
21.520        47
21.530        53
21.540        40
21.550        47
21.560        47
21.570        53
21.580        60
21.590        47
21.600        27
21.610        27
21.620        33
21.630        47
21.640        27
21.650        73
21.660        20
21.670        33
21.680        60
21.690        53
21.700        27
21.710        53
21.720        47
21.730        47
21.740        33
21.750        60
21.760        27
21.770        47
21.780        33
21.790        47
21.800        27
21.810        47
21.820        27
21.830        60
21.840        47
21.850        33
21.860        33
21.870        73
21.880        60
21.890        13
21.900        20
21.910        27
21.920        47
21.930        40
21.940         7
21.950        67
21.960        40
21.970        53
21.980        60
21.990        33
22.000        40
22.010        27
22.020        60
22.030        13
22.040        40
22.050        93
22.060        27
22.070        40
22.080        87
22.090        13
22.100         7
22.110        47
22.120        33
22.130        33
22.140        67
22.150        47
22.160        47
22.170        13
22.180        53
22.190        53
22.200        40
22.210        67
22.220        40
22.230       100
22.240        53
22.250        40
22.260        80
22.270        33
22.280        53
22.290        33
22.300        33
22.310        53
22.320        60
22.330        47
22.340        33
22.350        53
22.360        47
22.370        33
22.380        33
22.390        67
22.400        53
22.410        27
22.420        47
22.430        87
22.440        27
22.450        27
22.460        73
22.470        40
22.480        87
22.490        60
22.500        40
22.510        60
22.520        60
22.530        73
22.540       100
22.550        33
22.560        73
22.570        73
22.580       100
22.590        73
22.600       100
22.610       113
22.620       113
22.630       160
22.640       120
22.650       120
22.660       220
22.670       233
22.680       233
22.690       227
22.700       193
22.710       247
22.720       293
22.730       287
22.740       320
22.750       300
22.760       327
22.770       347
22.780       360
22.790       426
22.800       486
22.810       446
22.820       307
22.830       353
22.840       287
22.850       167
22.860       247
22.870       260
22.880       147
22.890       173
22.900       133
22.910       127
22.920       147
22.930       133
22.940       113
22.950       100
22.960       107
22.970        93
22.980       107
22.990        80
23.000        73
23.010        47
23.020        40
23.030        53
23.040        53
23.050        47
23.060        27
23.070        60
23.080        60
23.090        33
23.100        27
23.110        40
23.120        73
23.130        47
23.140        53
23.150        53
23.160        13
23.170        33
23.180        33
23.190        47
23.200        40
23.210        40
23.220        60
23.230        53
23.240        47
23.250        53
23.260        33
23.270        47
23.280        53
23.290        13
23.300        33
23.310        80
23.320        47
23.330        40
23.340        33
23.350        67
23.360        33
23.370        40
23.380        60
23.390        80
23.400        53
23.410        33
23.420        40
23.430        53
23.440        20
23.450        53
23.460        60
23.470        20
23.480        20
23.490        53
23.500        27
23.510        40
23.520        53
23.530        27
23.540        33
23.550        60
23.560        60
23.570        33
23.580        40
23.590        60
23.600        40
23.610        27
23.620        40
23.630        53
23.640        53
23.650        33
23.660        40
23.670        33
23.680        67
23.690        27
23.700        20
23.710        60
23.720        27
23.730        53
23.740        27
23.750        53
23.760        33
23.770        40
23.780        53
23.790        40
23.800        33
23.810        33
23.820        40
23.830        40
23.840        47
23.850        20
23.860        33
23.870        27
23.880        40
23.890        67
23.900        67
23.910        53
23.920        47
23.930        20
23.940        33
23.950        27
23.960        40
23.970        33
23.980        13
23.990        47
24.000        93
24.010        27
24.020        47
24.030        53
24.040        27
24.050        60
24.060        27
24.070        33
24.080        27
24.090        20
24.100        27
24.110        67
24.120        67
24.130        47
24.140        20
24.150        53
24.160        33
24.170        40
24.180        47
24.190        53
24.200         7
24.210        33
24.220        20
24.230        87
24.240        53
24.250        53
24.260        47
24.270        53
24.280        20
24.290        47
24.300        40
24.310        33
24.320        53
24.330        80
24.340        47
24.350        33
24.360        40
24.370        33
24.380        53
24.390        20
24.400        27
24.410        40
24.420        33
24.430        40
24.440        40
24.450        27
24.460        40
24.470        40
24.480        53
24.490        33
24.500        33
24.510        40
24.520        27
24.530        60
24.540        73
24.550        80
24.560        67
24.570        33
24.580        33
24.590        53
24.600        60
24.610        33
24.620        27
24.630        80
24.640        60
24.650        27
24.660        33
24.670        20
24.680        20
24.690        27
24.700        47
24.710        40
24.720        60
24.730        20
24.740        27
24.750        53
24.760        27
24.770        40
24.780        40
24.790        40
24.800        93
24.810        33
24.820        40
24.830        20
24.840        60
24.850        47
24.860        40
24.870        47
24.880        40
24.890        33
24.900        27
24.910        27
24.920        27
24.930        13
24.940        47
24.950        13
24.960        53
24.970        53
24.980        27
24.990        33
25.000        33
25.010        27
25.020        47
25.030        47
25.040        20
25.050        20
25.060        60
25.070        20
25.080        40
25.090        13
25.100        40
25.110        60
25.120        27
25.130        47
25.140        33
25.150        27
25.160        33
25.170        33
25.180        27
25.190         0
25.200        20
25.210        53
25.220        60
25.230        67
25.240        20
25.250        27
25.260        40
25.270        67
25.280        67
25.290        67
25.300        53
25.310        40
25.320        33
25.330        40
25.340        40
25.350        73
25.360        47
25.370        33
25.380        20
25.390        47
25.400        53
25.410        47
25.420        67
25.430        20
25.440        67
25.450        40
25.460        27
25.470        27
25.480        60
25.490        67
25.500        47
25.510        67
25.520        80
25.530        80
25.540        53
25.550        87
25.560        47
25.570        87
25.580        87
25.590       113
25.600        93
25.610       113
25.620        80
25.630       120
25.640        67
25.650        47
25.660        60
25.670        47
25.680        73
25.690        20
25.700        53
25.710        60
25.720        40
25.730        33
25.740        67
25.750        47
25.760        33
25.770        40
25.780        67
25.790        33
25.800        60
25.810        53
25.820        60
25.830        53
25.840        40
25.850        67
25.860        33
25.870        40
25.880        40
25.890        53
25.900        33
25.910        53
25.920        27
25.930        33
25.940        47
25.950        40
25.960        27
25.970        33
25.980        60
25.990        20
26.000        27
26.010        53
26.020        40
26.030        13
26.040        47
26.050        13
26.060        67
26.070        53
26.080        53
26.090        27
26.100        27
26.110        40
26.120        40
26.130        40
26.140        27
26.150        47
26.160        40
26.170        13
26.180        60
26.190        47
26.200        40
26.210        40
26.220        20
26.230        40
26.240        60
26.250        33
26.260        47
26.270        73
26.280         7
26.290        47
26.300        27
26.310        53
26.320        33
26.330        53
26.340        27
26.350        27
26.360        20
26.370        40
26.380        40
26.390        27
26.400        40
26.410        40
26.420        13
26.430        20
26.440        13
26.450        40
26.460        40
26.470        20
26.480        40
26.490        13
26.500        33
26.510        40
26.520        27
26.530        40
26.540        27
26.550        47
26.560        13
26.570        27
26.580        13
26.590        33
26.600        53
26.610        40
26.620        13
26.630        13
26.640        33
26.650        33
26.660        20
26.670        40
26.680        20
26.690        33
26.700        47
26.710        27
26.720        27
26.730        33
26.740        33
26.750        40
26.760        40
26.770        40
26.780        27
26.790        53
26.800        13
26.810        73
26.820        40
26.830        13
26.840        60
26.850        33
26.860        20
26.870        47
26.880        13
26.890        27
26.900        27
26.910        40
26.920        40
26.930        47
26.940        27
26.950        47
26.960        27
26.970        27
26.980        60
26.990        20
27.000        40
27.010        33
27.020        40
27.030        20
27.040        13
27.050        40
27.060        33
27.070        27
27.080        47
27.090        53
27.100        27
27.110        13
27.120        40
27.130        40
27.140        20
27.150        33
27.160        60
27.170        20
27.180        33
27.190        13
27.200        53
27.210        13
27.220        53
27.230        13
27.240        20
27.250        40
27.260        53
27.270        53
27.280        20
27.290        40
27.300        40
27.310        33
27.320        27
27.330        27
27.340        33
27.350        40
27.360        40
27.370        53
27.380        33
27.390        40
27.400        27
27.410        40
27.420        27
27.430        33
27.440        13
27.450        13
27.460        33
27.470        47
27.480        33
27.490        40
27.500        13
27.510        40
27.520        53
27.530        40
27.540        33
27.550        13
27.560        53
27.570        27
27.580        40
27.590        33
27.600        40
27.610        33
27.620        33
27.630        13
27.640        33
27.650        40
27.660        20
27.670        67
27.680         7
27.690         7
27.700        47
27.710         7
27.720        33
27.730        20
27.740        20
27.750         0
27.760        60
27.770        40
27.780        33
27.790        40
27.800        40
27.810        20
27.820        60
27.830        20
27.840        20
27.850        27
27.860        60
27.870        27
27.880        33
27.890        27
27.900        40
27.910        53
27.920        60
27.930        40
27.940        20
27.950        53
27.960         7
27.970        13
27.980        20
27.990        33
28.000        40
28.010        20
28.020        53
28.030        33
28.040        27
28.050        27
28.060        40
28.070        40
28.080        33
28.090        40
28.100        47
28.110        13
28.120        53
28.130        40
28.140        20
28.150        67
28.160        27
28.170        27
28.180        20
28.190        40
28.200        27
28.210        27
28.220        47
28.230        33
28.240        53
28.250        33
28.260        33
28.270        13
28.280        53
28.290        67
28.300        13
28.310        33
28.320        33
28.330        47
28.340        47
28.350        13
28.360        40
28.370        60
28.380        33
28.390        33
28.400        33
28.410        40
28.420        33
28.430        27
28.440        33
28.450        40
28.460        20
28.470        47
28.480         7
28.490        47
28.500        27
28.510        47
28.520        47
28.530        47
28.540        33
28.550        33
28.560        20
28.570        33
28.580        40
28.590        47
28.600        53
28.610        33
28.620        27
28.630        33
28.640        33
28.650        13
28.660        27
28.670        20
28.680        20
28.690        33
28.700        53
28.710        40
28.720        13
28.730        73
28.740        13
28.750        40
28.760        20
28.770        67
28.780        33
28.790        13
28.800        33
28.810        53
28.820        20
28.830        53
28.840        13
28.850        47
28.860        13
28.870        33
28.880        20
28.890        33
28.900        20
28.910        40
28.920        20
28.930        33
28.940        40
28.950        33
28.960        27
28.970        20
28.980        27
28.990        47
29.000        27
29.010        20
29.020        27
29.030        27
29.040        20
29.050        40
29.060        60
29.070        27
29.080        27
29.090        27
29.100        47
29.110        20
29.120        33
29.130        20
29.140        60
29.150         7
29.160        13
29.170        67
29.180        27
29.190        27
29.200        47
29.210        27
29.220         7
29.230        47
29.240         7
29.250        53
29.260        33
29.270        53
29.280        20
29.290        27
29.300        27
29.310        40
29.320        40
29.330        33
29.340        47
29.350        20
29.360        20
29.370        33
29.380        40
29.390        67
29.400        33
29.410        53
29.420        53
29.430        13
29.440        33
29.450        40
29.460        27
29.470        20
29.480        33
29.490        33
29.500        40
29.510        53
29.520        47
29.530        27
29.540        27
29.550         7
29.560        13
29.570        27
29.580        20
29.590        20
29.600        20
29.610        13
29.620        20
29.630         0
29.640        27
29.650        27
29.660        33
29.670        13
29.680        47
29.690        40
29.700        33
29.710        47
29.720        27
29.730         7
29.740        20
29.750        20
29.760        33
29.770        13
29.780        13
29.790        20
29.800        33
29.810        40
29.820        27
29.830        33
29.840        20
29.850        13
29.860        13
29.870        53
29.880        67
29.890        33
29.900        33
29.910        33
29.920        27
29.930        27
29.940        20
29.950        27
29.960        47
29.970        27
29.980        20
29.990        20
30.000        20
30.010        47
30.020        47
30.030         7
30.040        20
30.050        20
30.060        40
30.070        47
30.080        13
30.090        27
30.100        40
30.110        27
30.120         7
30.130        33
30.140        13
30.150        47
30.160        73
30.170        27
30.180        33
30.190        20
30.200        40
30.210        33
30.220         7
30.230        13
30.240        40
30.250        27
30.260        47
30.270        13
30.280        47
30.290        20
30.300        27
30.310        27
30.320        20
30.330        13
30.340         7
30.350        13
30.360        27
30.370        20
30.380        20
30.390         7
30.400        27
30.410        20
30.420        20
30.430        20
30.440        27
30.450        27
30.460        73
30.470        47
30.480        33
30.490        20
30.500        33
30.510        27
30.520        33
30.530        20
30.540        27
30.550        27
30.560        27
30.570        47
30.580        13
30.590        60
30.600        13
30.610        33
30.620        33
30.630        33
30.640        20
30.650        20
30.660        20
30.670        33
30.680        47
30.690        33
30.700        33
30.710        20
30.720        27
30.730        40
30.740        27
30.750         7
30.760        13
30.770        27
30.780        33
30.790        27
30.800        33
30.810        33
30.820        47
30.830        13
30.840        60
30.850        27
30.860        27
30.870        47
30.880        13
30.890         7
30.900         7
30.910        13
30.920        27
30.930        67
30.940        20
30.950        27
30.960        20
30.970         7
30.980        27
30.990        20
31.000        20
31.010         0
31.020        20
31.030         7
31.040         7
31.050        20
31.060        27
31.070        20
31.080        20
31.090         7
31.100        40
31.110        40
31.120        20
31.130        27
31.140        27
31.150        20
31.160        20
31.170         7
31.180        27
31.190        40
31.200        27
31.210        13
31.220        27
31.230        20
31.240         7
31.250        20
31.260        13
31.270        33
31.280        33
31.290        60
31.300        13
31.310        20
31.320        40
31.330        40
31.340         7
31.350        47
31.360        60
31.370        27
31.380        67
31.390        47
31.400        60
31.410        47
31.420        27
31.430        53
31.440        33
31.450        60
31.460        27
31.470        53
31.480        27
31.490         7
31.500         7
31.510        47
31.520        33
31.530        40
31.540        27
31.550        13
31.560        53
31.570        40
31.580        27
31.590        40
31.600        27
31.610        33
31.620        13
31.630        33
31.640        20
31.650        33
31.660        40
31.670        47
31.680        27
31.690        33
31.700        40
31.710        47
31.720        13
31.730        27
31.740        13
31.750        33
31.760        13
31.770        33
31.780        20
31.790        27
31.800        33
31.810        27
31.820        40
31.830        13
31.840        40
31.850        20
31.860        33
31.870         0
31.880        53
31.890        33
31.900        13
31.910         7
31.920        53
31.930        53
31.940        13
31.950        33
31.960        20
31.970        47
31.980        67
31.990        60
32.000        47
32.010        27
32.020        53
32.030         7
32.040        27
32.050        20
32.060        40
32.070        27
32.080        33
32.090        33
32.100        53
32.110        20
32.120        27
32.130        27
32.140        33
32.150        47
32.160        53
32.170        67
32.180        47
32.190        27
32.200        53
32.210        53
32.220        87
32.230        93
32.240        93
32.250       107
32.260        87
32.270        93
32.280       133
32.290       147
32.300       180
32.310       187
32.320       167
32.330       167
32.340       127
32.350       173
32.360       220
32.370       213
32.380       187
32.390       233
32.400       213
32.410       287
32.420       213
32.430       213
32.440       273
32.450       273
32.460       253
32.470       160
32.480       253
32.490       227
32.500       220
32.510       247
32.520       140
32.530       193
32.540       147
32.550       153
32.560       120
32.570       147
32.580        80
32.590        87
32.600       120
32.610        80
32.620        73
32.630        53
32.640        93
32.650        73
32.660       100
32.670        47
32.680        53
32.690        53
32.700        47
32.710        33
32.720        53
32.730        33
32.740        20
32.750        40
32.760        27
32.770        80
32.780        53
32.790        20
32.800        27
32.810        47
32.820        20
32.830        27
32.840        27
32.850        20
32.860        40
32.870        53
32.880        20
32.890        47
32.900        47
32.910        13
32.920         7
32.930        27
32.940         0
32.950         7
32.960        33
32.970        33
32.980        27
32.990        20
33.000        27
33.010        27
33.020        13
33.030        27
33.040        13
33.050        27
33.060        40
33.070        27
33.080        20
33.090        40
33.100        20
33.110        20
33.120        27
33.130        33
33.140        27
33.150        60
33.160        27
33.170        33
33.180        13
33.190        20
33.200        40
33.210        13
33.220        13
33.230        33
33.240        53
33.250        40
33.260        27
33.270        33
33.280         0
33.290        20
33.300         7
33.310        33
33.320        20
33.330        20
33.340        53
33.350        13
33.360        27
33.370        20
33.380        33
33.390        13
33.400        27
33.410        20
33.420        20
33.430        53
33.440        20
33.450        20
33.460        27
33.470         7
33.480        40
33.490        33
33.500        27
33.510         7
33.520        27
33.530        27
33.540        33
33.550        20
33.560        13
33.570        27
33.580         7
33.590        27
33.600        33
33.610        33
33.620        20
33.630         7
33.640         7
33.650        33
33.660        40
33.670         7
33.680        33
33.690        33
33.700        27
33.710        20
33.720        33
33.730        20
33.740        53
33.750        20
33.760        27
33.770        33
33.780         7
33.790        20
33.800        53
33.810        27
33.820        33
33.830        20
33.840        27
33.850        27
33.860        33
33.870        20
33.880        33
33.890        27
33.900        20
33.910        33
33.920        27
33.930        33
33.940        20
33.950        20
33.960        13
33.970        40
33.980        27
33.990        40
34.000        47
34.010        27
34.020        40
34.030        27
34.040         7
34.050        27
34.060        20
34.070        20
34.080        13
34.090        47
34.100        13
34.110        33
34.120        20
34.130         7
34.140        60
34.150        20
34.160        33
34.170        27
34.180        20
34.190        27
34.200        20
34.210        47
34.220        20
34.230        33
34.240        20
34.250        40
34.260        27
34.270        20
34.280        33
34.290        27
34.300        27
34.310        13
34.320        33
34.330        40
34.340        13
34.350        20
34.360        27
34.370        20
34.380         7
34.390        47
34.400         7
34.410        40
34.420        33
34.430         0
34.440        40
34.450        27
34.460        20
34.470        47
34.480        20
34.490        13
34.500        33
34.510        20
34.520        33
34.530        20
34.540        47
34.550        40
34.560        20
34.570        20
34.580         7
34.590        20
34.600        27
34.610         7
34.620        20
34.630        27
34.640        47
34.650        47
34.660        53
34.670        20
34.680         7
34.690        20
34.700        13
34.710        27
34.720        27
34.730        27
34.740        33
34.750        47
34.760        40
34.770        27
34.780        33
34.790        40
34.800        27
34.810        53
34.820         0
34.830        20
34.840        33
34.850        27
34.860        20
34.870        27
34.880        33
34.890        33
34.900        47
34.910        67
34.920        40
34.930        13
34.940        33
34.950        53
34.960        60
34.970        27
34.980        60
34.990        40
35.000        53
35.010        53
35.020        60
35.030        87
35.040       127
35.050       153
35.060       107
35.070       133
35.080       153
35.090       233
35.100       213
35.110       193
35.120       193
35.130       187
35.140       313
35.150       513
35.160       573
35.170       533
35.180       600
35.190       713
35.200       700
35.210       486
35.220       613
35.230       460
35.240       453
35.250       333
35.260       293
35.270       260
35.280       253
35.290       340
35.300       220
35.310       220
35.320       180
35.330       107
35.340        80
35.350        53
35.360        40
35.370        40
35.380        53
35.390        73
35.400        40
35.410        40
35.420        33
35.430        27
35.440        27
35.450        27
35.460        20
35.470        47
35.480        33
35.490        47
35.500        13
35.510         7
35.520        27
35.530        13
35.540        40
35.550        40
35.560        13
35.570        27
35.580        27
35.590        20
35.600        13
35.610        20
35.620        40
35.630        13
35.640        20
35.650         7
35.660        33
35.670        20
35.680        27
35.690        33
35.700        13
35.710         7
35.720        33
35.730        27
35.740        20
35.750        20
35.760        20
35.770        27
35.780        27
35.790        33
35.800        33
35.810        13
35.820        20
35.830         7
35.840        20
35.850        27
35.860         7
35.870        27
35.880        47
35.890        13
35.900        33
35.910         7
35.920        27
35.930        13
35.940        27
35.950        47
35.960        20
35.970         7
35.980         7
35.990        20
36.000        33
36.010        20
36.020        13
36.030        20
36.040        40
36.050        20
36.060         7
36.070        20
36.080        13
36.090        47
36.100        33
36.110        47
36.120        20
36.130        33
36.140        33
36.150        47
36.160        20
36.170        33
36.180        20
36.190        67
36.200        13
36.210        67
36.220        20
36.230        27
36.240        20
36.250        40
36.260        20
36.270        33
36.280        33
36.290        60
36.300        20
36.310        13
36.320        20
36.330        27
36.340         7
36.350        20
36.360        13
36.370        27
36.380        20
36.390        13
36.400        33
36.410         7
36.420        40
36.430        33
36.440        40
36.450         7
36.460        20
36.470        20
36.480        20
36.490        13
36.500        40
36.510        60
36.520        40
36.530        20
36.540        40
36.550        13
36.560        40
36.570        40
36.580        20
36.590        27
36.600        27
36.610        40
36.620        27
36.630        13
36.640         7
36.650        33
36.660        20
36.670        40
36.680         7
36.690        40
36.700        33
36.710        33
36.720        40
36.730        33
36.740        33
36.750        20
36.760        47
36.770         0
36.780        60
36.790        33
36.800         0
36.810        13
36.820        47
36.830        33
36.840        27
36.850        20
36.860        40
36.870         7
36.880        53
36.890        27
36.900        20
36.910        53
36.920        27
36.930        40
36.940        40
36.950        40
36.960        13
36.970        73
36.980        47
36.990        53
37.000        40
37.010        40
37.020        47
37.030        33
37.040        33
37.050        13
37.060        33
37.070        20
37.080        27
37.090        13
37.100        40
37.110        40
37.120        20
37.130        20
37.140        33
37.150        33
37.160        13
37.170        13
37.180        33
37.190        87
37.200        13
37.210        20
37.220        27
37.230        27
37.240        33
37.250        27
37.260        20
37.270        33
37.280         7
37.290        13
37.300        53
37.310        20
37.320        20
37.330         0
37.340         7
37.350        27
37.360         7
37.370        20
37.380        53
37.390        20
37.400        20
37.410        27
37.420        20
37.430        27
37.440        33
37.450        13
37.460        40
37.470        13
37.480         7
37.490        53
37.500        13
37.510        53
37.520        20
37.530        67
37.540        33
37.550        13
37.560        20
37.570        13
37.580        27
37.590        53
37.600        40
37.610        13
37.620        13
37.630        27
37.640        27
37.650        20
37.660        33
37.670         7
37.680        27
37.690        53
37.700        73
37.710        27
37.720        13
37.730        47
37.740        47
37.750        47
37.760        73
37.770       100
37.780        93
37.790        80
37.800       107
37.810       133
37.820       120
37.830       147
37.840       107
37.850       160
37.860        47
37.870        93
37.880        73
37.890        47
37.900        53
37.910        60
37.920        73
37.930       107
37.940        47
37.950        47
37.960        20
37.970        33
37.980        20
37.990        53
38.000        13
38.010        47
38.020        20
38.030        13
38.040        27
38.050        40
38.060        40
38.070        20
38.080        20
38.090         7
38.100        13
38.110         7
38.120        27
38.130         7
38.140        53
38.150        27
38.160        53
38.170         7
38.180        13
38.190        27
38.200        33
38.210        13
38.220        27
38.230        40
38.240        40
38.250        27
38.260         7
38.270        40
38.280         7
38.290        20
38.300         7
38.310         7
38.320         7
38.330        40
38.340        40
38.350        20
38.360         7
38.370        27
38.380        27
38.390        27
38.400        13
38.410        40
38.420        27
38.430         0
38.440        20
38.450        20
38.460        13
38.470        27
38.480        33
38.490        53
38.500        13
38.510         7
38.520        20
38.530         0
38.540        33
38.550        13
38.560        27
38.570        27
38.580        13
38.590        33
38.600        27
38.610        13
38.620        40
38.630        13
38.640        20
38.650        20
38.660        20
38.670        13
38.680        40
38.690        27
38.700        33
38.710        27
38.720        33
38.730        20
38.740         7
38.750        27
38.760         0
38.770        27
38.780        20
38.790        20
38.800         7
38.810        13
38.820        13
38.830        33
38.840         7
38.850        33
38.860         7
38.870        33
38.880        33
38.890        13
38.900        13
38.910        13
38.920        27
38.930        40
38.940        27
38.950        27
38.960        20
38.970        20
38.980        47
38.990        13
39.000         7
39.010        60
39.020        53
39.030        13
39.040         7
39.050        53
39.060        20
39.070        33
39.080        27
39.090        27
39.100        27
39.110        33
39.120        27
39.130        13
39.140        20
39.150        13
39.160        20
39.170        13
39.180        27
39.190        20
39.200        33
39.210         7
39.220        33
39.230         7
39.240        47
39.250        20
39.260        27
39.270        20
39.280         0
39.290        20
39.300        27
39.310        47
39.320        13
39.330        13
39.340         7
39.350        20
39.360        13
39.370         7
39.380        20
39.390        27
39.400        13
39.410        40
39.420        20
39.430        20
39.440        40
39.450        27
39.460        40
39.470        13
39.480        40
39.490        40
39.500        27
39.510        33
39.520        27
39.530        33
39.540        13
39.550         7
39.560        33
39.570        33
39.580        13
39.590        20
39.600         7
39.610        47
39.620        47
39.630        33
39.640        27
39.650        40
39.660        40
39.670        27
39.680        20
39.690        27
39.700        13
39.710        33
39.720        33
39.730        40
39.740        33
39.750        27
39.760        20
39.770        53
39.780        40
39.790        40
39.800        40
39.810        47
39.820        53
39.830        73
39.840        53
39.850        33
39.860        73
39.870       107
39.880        67
39.890       107
39.900        60
39.910       173
39.920       120
39.930       113
39.940       120
39.950       187
39.960       127
39.970       153
39.980       147
39.990       193
40.000       153
40.010       100
40.020       153
40.030       147
40.040       107
40.050       120
40.060       120
40.070        87
40.080       133
40.090       113
40.100       113
40.110       107
40.120        87
40.130       120
40.140        73
40.150        60
40.160        53
40.170        73
40.180        47
40.190        60
40.200        20
40.210        60
40.220        27
40.230        40
40.240        13
40.250        33
40.260        20
40.270        20
40.280        20
40.290        13
40.300        40
40.310        13
40.320        53
40.330        33
40.340        27
40.350        47
40.360        13
40.370         7
40.380        27
40.390        20
40.400        27
40.410        27
40.420        33
40.430        33
40.440        53
40.450        13
40.460        13
40.470        20
40.480        27
40.490        27
40.500         7
40.510         7
40.520        13
40.530        20
40.540        27
40.550        33
40.560        20
40.570         7
40.580        20
40.590        27
40.600        27
40.610        20
40.620        13
40.630        20
40.640        40
40.650        33
40.660        13
40.670        27
40.680        33
40.690        20
40.700        13
40.710        27
40.720        27
40.730        13
40.740        20
40.750        27
40.760        33
40.770         7
40.780        33
40.790        20
40.800        33
40.810        27
40.820        53
40.830        27
40.840        27
40.850        40
40.860        40
40.870        47
40.880        27
40.890        27
40.900        13
40.910        20
40.920        13
40.930        33
40.940        13
40.950        27
40.960        13
40.970         7
40.980        13
40.990        13
41.000        27
41.010        20
41.020        40
41.030        27
41.040        13
41.050         7
41.060        20
41.070        20
41.080        13
41.090        20
41.100        13
41.110        20
41.120        27
41.130        20
41.140        20
41.150        27
41.160        27
41.170        27
41.180        27
41.190        20
41.200        27
41.210        20
41.220        20
41.230        40
41.240        33
41.250         7
41.260        40
41.270        33
41.280        20
41.290        40
41.300        27
41.310        20
41.320        20
41.330        20
41.340         7
41.350        27
41.360        13
41.370        27
41.380        20
41.390        20
41.400        53
41.410        27
41.420        33
41.430        40
41.440        27
41.450        60
41.460        27
41.470        47
41.480        60
41.490        27
41.500        73
41.510        40
41.520        40
41.530        53
41.540        33
41.550        33
41.560        53
41.570        27
41.580        53
41.590        60
41.600        47
41.610        73
41.620        73
41.630        40
41.640        80
41.650        93
41.660       120
41.670        93
41.680       187
41.690       133
41.700       207
41.710       147
41.720       140
41.730       133
41.740       127
41.750       113
41.760       120
41.770        60
41.780       120
41.790       120
41.800       120
41.810        87
41.820        93
41.830        73
41.840        47
41.850        47
41.860        47
41.870        33
41.880        13
41.890        27
41.900        53
41.910         7
41.920        47
41.930        27
41.940        27
41.950        40
41.960        13
41.970        13
41.980        20
41.990        20
42.000        47
42.010         0
42.020        27
42.030        53
42.040         7
42.050        20
42.060        60
42.070        40
42.080        13
42.090        13
42.100        27
42.110        53
42.120        40
42.130        27
42.140        27
42.150        27
42.160        27
42.170        27
42.180        20
42.190        20
42.200         7
42.210        20
42.220        27
42.230        27
42.240        27
42.250        27
42.260        13
42.270         7
42.280        33
42.290        47
42.300        27
42.310         7
42.320        27
42.330        20
42.340        60
42.350        27
42.360        13
42.370        13
42.380         7
42.390        40
42.400        20
42.410        20
42.420        40
42.430        47
42.440        33
42.450        27
42.460        20
42.470        27
42.480        27
42.490         7
42.500        33
42.510        33
42.520        40
42.530        47
42.540        20
42.550        27
42.560        13
42.570        40
42.580        40
42.590        27
42.600         7
42.610        20
42.620        33
42.630         7
42.640        27
42.650        33
42.660        33
42.670        40
42.680        40
42.690        27
42.700        27
42.710         7
42.720         0
42.730         0
42.740        13
42.750         7
42.760        27
42.770        20
42.780        27
42.790        20
42.800        13
42.810         7
42.820        27
42.830        33
42.840        13
42.850         7
42.860        33
42.870        40
42.880        33
42.890         7
42.900        40
42.910        40
42.920        33
42.930        20
42.940        27
42.950        20
42.960        20
42.970        33
42.980         7
42.990        33
43.000         0
43.010        20
43.020        13
43.030        20
43.040        20
43.050        20
43.060         7
43.070        33
43.080         7
43.090        40
43.100        33
43.110        20
43.120         7
43.130        20
43.140        40
43.150        40
43.160        33
43.170        27
43.180        40
43.190        27
43.200        20
43.210        33
43.220        20
43.230        67
43.240        33
43.250        80
43.260        67
43.270        53
43.280        67
43.290       100
43.300        53
43.310       167
43.320        80
43.330       133
43.340       207
43.350       220
43.360       213
43.370       273
43.380       240
43.390       200
43.400       227
43.410       173
43.420       220
43.430        87
43.440        93
43.450       127
43.460       160
43.470       200
43.480       120
43.490        73
43.500       133
43.510       147
43.520        73
43.530        73
43.540       147
43.550        73
43.560        80
43.570        47
43.580        47
43.590        40
43.600        53
43.610        40
43.620        47
43.630        40
43.640        13
43.650        20
43.660        20
43.670        27
43.680        27
43.690        40
43.700        27
43.710        27
43.720        27
43.730         7
43.740        20
43.750         7
43.760        13
43.770        33
43.780        27
43.790        33
43.800        27
43.810        13
43.820        20
43.830         0
43.840        47
43.850        20
43.860        20
43.870        27
43.880        13
43.890        20
43.900        20
43.910        27
43.920        27
43.930        40
43.940         7
43.950        20
43.960        13
43.970        33
43.980        13
43.990        33
44.000        13
44.010        53
44.020        27
44.030         7
44.040        40
44.050        40
44.060        13
44.070        27
44.080        27
44.090         7
44.100         7
44.110        27
44.120        27
44.130        20
44.140        33
44.150        40
44.160         7
44.170        33
44.180         7
44.190        13
44.200        27
44.210        20
44.220        27
44.230         7
44.240        40
44.250        27
44.260        13
44.270        33
44.280        13
44.290        13
44.300        13
44.310        13
44.320        27
44.330        20
44.340        47
44.350        20
44.360        33
44.370        20
44.380        13
44.390        40
44.400        13
44.410        20
44.420        13
44.430        27
44.440        13
44.450        33
44.460        40
44.470         7
44.480        13
44.490        53
44.500        20
44.510        20
44.520        27
44.530        13
44.540        33
44.550        67
44.560        13
44.570        27
44.580        20
44.590        20
44.600        20
44.610        13
44.620        13
44.630        27
44.640        27
44.650        27
44.660        67
44.670        33
44.680        27
44.690         0
44.700        13
44.710        33
44.720        33
44.730        40
44.740        13
44.750        27
44.760        33
44.770         7
44.780        20
44.790        27
44.800        27
44.810        27
44.820        27
44.830        27
44.840        20
44.850        33
44.860        33
44.870        27
44.880        27
44.890        20
44.900        60
44.910        13
44.920        40
44.930        47
44.940        53
44.950        33
44.960        67
44.970         7
44.980        47
44.990        33
45.000        53
45.010        87
45.020        27
45.030        20
45.040        40
45.050        20
45.060        20
45.070        27
45.080        67
45.090        33
45.100        73
45.110        27
45.120        47
45.130        27
45.140        80
45.150        47
45.160        13
45.170        60
45.180        47
45.190        27
45.200        60
45.210        40
45.220        47
45.230        33
45.240        33
45.250        53
45.260        40
45.270        60
45.280        27
45.290        80
45.300        20
45.310        40
45.320        47
45.330        33
45.340        73
45.350        33
45.360        60
45.370       100
45.380        80
45.390        47
45.400        20
45.410        53
45.420        33
45.430        33
45.440        53
45.450        47
45.460        33
45.470        73
45.480        67
45.490        33
45.500        60
45.510        33
45.520        80
45.530        80
45.540        67
45.550        80
45.560        60
45.570        27
45.580        53
45.590        67
45.600        53
45.610        73
45.620        87
45.630        47
45.640        53
45.650        80
45.660       100
45.670        80
45.680        47
45.690        67
45.700        80
45.710        73
45.720        73
45.730       140
45.740        87
45.750        87
45.760        67
45.770        67
45.780       120
45.790        80
45.800        73
45.810       100
45.820        80
45.830        67
45.840        87
45.850        33
45.860       147
45.870        93
45.880       107
45.890       113
45.900       120
45.910       107
45.920       120
45.930       140
45.940       127
45.950       113
45.960       127
45.970       253
45.980       133
45.990       213
46.000       133
46.010       220
46.020       173
46.030       133
46.040       173
46.050       293
46.060       240
46.070       213
46.080       260
46.090       293
46.100       313
46.110       293
46.120       273
46.130       373
46.140       307
46.150       300
46.160       387
46.170       433
46.180       546
46.190       520
46.200       660
46.210       600
46.220       760
46.230       706
46.240       786
46.250       713
46.260       853
46.270      1026
46.280      1160
46.290      1053
46.300      1259
46.310      1286
46.320      1439
46.330      1526
46.340      1779
46.350      1733
46.360      1873
46.370      2092
46.380      2159
46.390      2212
46.400      2352
46.410      2479
46.420      2499
46.430      2492
46.440      2726
46.450      2579
46.460      2992
46.470      2786
46.480      2859
46.490      3005
46.500      2859
46.510      2906
46.520      3072
46.530      2872
46.540      2872
46.550      2752
46.560      2539
46.570      2552
46.580      2632
46.590      2312
46.600      2299
46.610      2099
46.620      2239
46.630      2112
46.640      1833
46.650      1759
46.660      1533
46.670      1359
46.680      1346
46.690      1459
46.700      1246
46.710      1279
46.720      1073
46.730      1053
46.740      1140
46.750       826
46.760       940
46.770       753
46.780       726
46.790       686
46.800       526
46.810       486
46.820       566
46.830       466
46.840       440
46.850       440
46.860       473
46.870       340
46.880       373
46.890       300
46.900       313
46.910       253
46.920       293
46.930       387
46.940       273
46.950       260
46.960       287
46.970       160
46.980       227
46.990       227
47.000       160
47.010       147
47.020       173
47.030       167
47.040       127
47.050       227
47.060       100
47.070       120
47.080       200
47.090        73
47.100       133
47.110       100
47.120       120
47.130       133
47.140        60
47.150       127
47.160       127
47.170       107
47.180       113
47.190        60
47.200        87
47.210       100
47.220       120
47.230       100
47.240        67
47.250       100
47.260        87
47.270        93
47.280        60
47.290       127
47.300       113
47.310        53
47.320        80
47.330        87
47.340        73
47.350        80
47.360        67
47.370        93
47.380        93
47.390        27
47.400        53
47.410        60
47.420        67
47.430        27
47.440        53
47.450        73
47.460        47
47.470        53
47.480        60
47.490        53
47.500        47
47.510        67
47.520        80
47.530        60
47.540        60
47.550        47
47.560        47
47.570        73
47.580        47
47.590        53
47.600        73
47.610        47
47.620        33
47.630        80
47.640        53
47.650        67
47.660        40
47.670        67
47.680        53
47.690        27
47.700        33
47.710        40
47.720        60
47.730        67
47.740        40
47.750        40
47.760        40
47.770        53
47.780        53
47.790        67
47.800        40
47.810        40
47.820        47
47.830        33
47.840        20
47.850        40
47.860        27
47.870        13
47.880        40
47.890        33
47.900        33
47.910        20
47.920        60
47.930        27
47.940        27
47.950        47
47.960        33
47.970        33
47.980        33
47.990        27
48.000        40
48.010        47
48.020        40
48.030        20
48.040        73
48.050        27
48.060        33
48.070        20
48.080        47
48.090        47
48.100        53
48.110        33
48.120        27
48.130        33
48.140        40
48.150        20
48.160        47
48.170        27
48.180        33
48.190        53
48.200        20
48.210        33
48.220        40
48.230        27
48.240        47
48.250        53
48.260        13
48.270         7
48.280        33
48.290        60
48.300        53
48.310         0
48.320        27
48.330        20
48.340         7
48.350        13
48.360        40
48.370        27
48.380        13
48.390        13
48.400        47
48.410        20
48.420        13
48.430        27
48.440        13
48.450        20
48.460        20
48.470        40
48.480        27
48.490        27
48.500        33
48.510        27
48.520        33
48.530         0
48.540        33
48.550        47
48.560        33
48.570        47
48.580        47
48.590        73
48.600        33
48.610        27
48.620        27
48.630        47
48.640        33
48.650        13
48.660        13
48.670        33
48.680        27
48.690        33
48.700        40
48.710        67
48.720        20
48.730        40
48.740        40
48.750        20
48.760         7
48.770         7
48.780        13
48.790        20
48.800        20
48.810        13
48.820        53
48.830        27
48.840        33
48.850        20
48.860         0
48.870        53
48.880        27
48.890        40
48.900        27
48.910        33
48.920        47
48.930        20
48.940        27
48.950        33
48.960        20
48.970        20
48.980        27
48.990        40
49.000        20
49.010         0
49.020        40
49.030         7
49.040         7
49.050        20
49.060        20
49.070        13
49.080        27
49.090         7
49.100        13
49.110        13
49.120        20
49.130        33
49.140        27
49.150        33
49.160        20
49.170         7
49.180        27
49.190        53
49.200        40
49.210         0
49.220        47
49.230        27
49.240        27
49.250        13
49.260        13
49.270        40
49.280        20
49.290        73
49.300        33
49.310        20
49.320        33
49.330        33
49.340        60
49.350        53
49.360        20
49.370        40
49.380        67
49.390        13
49.400         0
49.410        20
49.420        20
49.430         7
49.440         7
49.450        27
49.460        27
49.470        27
49.480         0
49.490        13
49.500        20
49.510        20
49.520        47
49.530        33
49.540        40
49.550        27
49.560        33
49.570        13
49.580        33
49.590        40
49.600        33
49.610        13
49.620        33
49.630        33
49.640         7
49.650        27
49.660        27
49.670        13
49.680        13
49.690        40
49.700        33
49.710        27
49.720        53
49.730        13
49.740         7
49.750        13
49.760        27
49.770        27
49.780        47
49.790        40
49.800        20
49.810        27
49.820        27
49.830        13
49.840        13
49.850        20
49.860        47
49.870         7
49.880         7
49.890        20
49.900        27
49.910        13
49.920        20
49.930        47
49.940        33
49.950        53
49.960        33
49.970        47
49.980         7
49.990        13
50.000        13
50.010        40
50.020        20
50.030        13
50.040         7
50.050        27
50.060        20
50.070        20
50.080        13
50.090        33
50.100        20
50.110         7
50.120        40
50.130        13
50.140        47
50.150        27
50.160        27
50.170        20
50.180        47
50.190        40
50.200        13
50.210        13
50.220        13
50.230        20
50.240         7
50.250        33
50.260         7
50.270        27
50.280         0
50.290         7
50.300         7
50.310        20
50.320        33
50.330         7
50.340        27
50.350        13
50.360        27
50.370        20
50.380        13
50.390        20
50.400        33
50.410        27
50.420        40
50.430        33
50.440        40
50.450        27
50.460        33
50.470        27
50.480        20
50.490         7
50.500        20
50.510         7
50.520        53
50.530         7
50.540        40
50.550        20
50.560        27
50.570         7
50.580        33
50.590        13
50.600        27
50.610        47
50.620        27
50.630        13
50.640        67
50.650        33
50.660        20
50.670         7
50.680        27
50.690        13
50.700        13
50.710         7
50.720        20
50.730        27
50.740         7
50.750        40
50.760        13
50.770        47
50.780        27
50.790         7
50.800        13
50.810        47
50.820         7
50.830        20
50.840        13
50.850        20
50.860        53
50.870        40
50.880        33
50.890        20
50.900        13
50.910        13
50.920        13
50.930        47
50.940        40
50.950        20
50.960        40
50.970        27
50.980        13
50.990        27
51.000         7
51.010        33
51.020        33
51.030         0
51.040        53
51.050        13
51.060         0
51.070        27
51.080        13
51.090         7
51.100        13
51.110        20
51.120        13
51.130        20
51.140        27
51.150         7
51.160        13
51.170        27
51.180         7
51.190        47
51.200        13
51.210        13
51.220        20
51.230         7
51.240        13
51.250        40
51.260        20
51.270        33
51.280         7
51.290        20
51.300        20
51.310        40
51.320         7
51.330        53
51.340        47
51.350        20
51.360        20
51.370        13
51.380        13
51.390        33
51.400        33
51.410        20
51.420        47
51.430        13
51.440        13
51.450        20
51.460        20
51.470        20
51.480        20
51.490        33
51.500        27
51.510        13
51.520         0
51.530         7
51.540        27
51.550        33
51.560         7
51.570        33
51.580        40
51.590         7
51.600        13
51.610        13
51.620        13
51.630        27
51.640        27
51.650        20
51.660        13
51.670        13
51.680        20
51.690        20
51.700        27
51.710         7
51.720        27
51.730        27
51.740        33
51.750        33
51.760         7
51.770        27
51.780         7
51.790        33
51.800        13
51.810        33
51.820        13
51.830        27
51.840        13
51.850        13
51.860        20
51.870        33
51.880        40
51.890         0
51.900        13
51.910         7
51.920        33
51.930        13
51.940        20
51.950        27
51.960         0
51.970        40
51.980        20
51.990         7
52.000        13
52.010         7
52.020        20
52.030         7
52.040        20
52.050        33
52.060        47
52.070        20
52.080        13
52.090        20
52.100        20
52.110        33
52.120        27
52.130        27
52.140        27
52.150         7
52.160         0
52.170        47
52.180        13
52.190        33
52.200        27
52.210        27
52.220        20
52.230        33
52.240        20
52.250        20
52.260        13
52.270        27
52.280        40
52.290        20
52.300        20
52.310        13
52.320        33
52.330        13
52.340        20
52.350        33
52.360        13
52.370        27
52.380        40
52.390        40
52.400        27
52.410        13
52.420        27
52.430        13
52.440         7
52.450        73
52.460        47
52.470        40
52.480        67
52.490        80
52.500        67
52.510        27
52.520        80
52.530        80
52.540       107
52.550       100
52.560       107
52.570       167
52.580       107
52.590       127
52.600       107
52.610        87
52.620        93
52.630       113
52.640       100
52.650        67
52.660        47
52.670        20
52.680       113
52.690       100
52.700        67
52.710        27
52.720        67
52.730        93
52.740        93
52.750        80
52.760        80
52.770        73
52.780        40
52.790        27
52.800        33
52.810        40
52.820        27
52.830        27
52.840        40
52.850        13
52.860        27
52.870         7
52.880        20
52.890        20
52.900        33
52.910        20
52.920        13
52.930        33
52.940        27
52.950         0
52.960        27
52.970        53
52.980        27
52.990        13
53.000        33
53.010         7
53.020        13
53.030        13
53.040        20
53.050        13
53.060        33
53.070        33
53.080        53
53.090        13
53.100        20
53.110         0
53.120        40
53.130        13
53.140         7
53.150         7
53.160         7
53.170        27
53.180        20
53.190        13
53.200        27
53.210        27
53.220        40
53.230        27
53.240        27
53.250        20
53.260         7
53.270        27
53.280        20
53.290        27
53.300        20
53.310        27
53.320        13
53.330        27
53.340        27
53.350        20
53.360        20
53.370        13
53.380        33
53.390        27
53.400        40
53.410        20
53.420        33
53.430        20
53.440         7
53.450        33
53.460        33
53.470        20
53.480         0
53.490        33
53.500        13
53.510        27
53.520        40
53.530         0
53.540        20
53.550        27
53.560        13
53.570        20
53.580        13
53.590        13
53.600        33
53.610        20
53.620        33
53.630        27
53.640        33
53.650        20
53.660        27
53.670        27
53.680        13
53.690        20
53.700        47
53.710        27
53.720         0
53.730        20
53.740        13
53.750        13
53.760         7
53.770        20
53.780        13
53.790        20
53.800        13
53.810         7
53.820         0
53.830         0
53.840        27
53.850         0
53.860        13
53.870        40
53.880         7
53.890        27
53.900         7
53.910        20
53.920        27
53.930        20
53.940        20
53.950         7
53.960        13
53.970         0
53.980         7
53.990        20
54.000         7
54.010        27
54.020        13
54.030        20
54.040        27
54.050        20
54.060        13
54.070        20
54.080        13
54.090        20
54.100         7
54.110        20
54.120         0
54.130        40
54.140        40
54.150         7
54.160        13
54.170         7
54.180        13
54.190        20
54.200        27
54.210        33
54.220        13
54.230        13
54.240         0
54.250        20
54.260        27
54.270        13
54.280        33
54.290         7
54.300        13
54.310         7
54.320        13
54.330        47
54.340         7
54.350         7
54.360        27
54.370         7
54.380         7
54.390        27
54.400        20
54.410         0
54.420        27
54.430        20
54.440        27
54.450        13
54.460         7
54.470        13
54.480        13
54.490         7
54.500        13
54.510        27
54.520        13
54.530        13
54.540         7
54.550        13
54.560        13
54.570         7
54.580        47
54.590         7
54.600        20
54.610         0
54.620        20
54.630        33
54.640         7
54.650         7
54.660        27
54.670        33
54.680         7
54.690        20
54.700        13
54.710        13
54.720        13
54.730         7
54.740        27
54.750        13
54.760        13
54.770        27
54.780         0
54.790        27
54.800        20
54.810        27
54.820         7
54.830        27
54.840        20
54.850        20
54.860        33
54.870         7
54.880        13
54.890         7
54.900        27
54.910         7
54.920        33
54.930         7
54.940        13
54.950        13
54.960        13
54.970        13
54.980        13
54.990        20
55.000        27
55.010        13
55.020        13
55.030        20
55.040         7
55.050        13
55.060        20
55.070        20
55.080         7
55.090        20
55.100        20
55.110        13
55.120        33
55.130         7
55.140        20
55.150         7
55.160         7
55.170        13
55.180        13
55.190        13
55.200        13
55.210         7
55.220         0
55.230        13
55.240        13
55.250        13
55.260        20
55.270         7
55.280        47
55.290        40
55.300        27
55.310         0
55.320        20
55.330         7
55.340         7
55.350        13
55.360        53
55.370        27
55.380        20
55.390        27
55.400         7
55.410        13
55.420        13
55.430        27
55.440        13
55.450         7
55.460        40
55.470        20
55.480         7
55.490        13
55.500         7
55.510        13
55.520        13
55.530        20
55.540        13
55.550         7
55.560        27
55.570        13
55.580        20
55.590        40
55.600        33
55.610        27
55.620         0
55.630        20
55.640         7
55.650        13
55.660         7
55.670        27
55.680         7
55.690        27
55.700         7
55.710         7
55.720        27
55.730        13
55.740         7
55.750        20
55.760         7
55.770         7
55.780        40
55.790        20
55.800        13
55.810        20
55.820        13
55.830        33
55.840        27
55.850         7
55.860        13
55.870        20
55.880        20
55.890        20
55.900        13
55.910        27
55.920        13
55.930        13
55.940         0
55.950        20
55.960        13
55.970         7
55.980        33
55.990        27
56.000        13
56.010        33
56.020        20
56.030        33
56.040        20
56.050         7
56.060         7
56.070         0
56.080         7
56.090        33
56.100        40
56.110        20
56.120        13
56.130        13
56.140        20
56.150        20
56.160        20
56.170        33
56.180         0
56.190        47
56.200        20
56.210        13
56.220        20
56.230         0
56.240        33
56.250         7
56.260        20
56.270        27
56.280         0
56.290        20
56.300        13
56.310        20
56.320         0
56.330        20
56.340        40
56.350        13
56.360        13
56.370        27
56.380        13
56.390         7
56.400         7
56.410        33
56.420        27
56.430         7
56.440        13
56.450         0
56.460        13
56.470        40
56.480        13
56.490         7
56.500        20
56.510        33
56.520        13
56.530        40
56.540        13
56.550        20
56.560        27
56.570        20
56.580         7
56.590        20
56.600         0
56.610        20
56.620         7
56.630        27
56.640        27
56.650         7
56.660         0
56.670         7
56.680        40
56.690        47
56.700        13
56.710        20
56.720         7
56.730        13
56.740        13
56.750         7
56.760        20
56.770         7
56.780        20
56.790        13
56.800        13
56.810        20
56.820         7
56.830        33
56.840        33
56.850         7
56.860        40
56.870        20
56.880        33
56.890        13
56.900         7
56.910        27
56.920        53
56.930        13
56.940        20
56.950         7
56.960        27
56.970        27
56.980         7
56.990         7
57.000         0
57.010        13
57.020         7
57.030        27
57.040         7
57.050         7
57.060         7
57.070        27
57.080        33
57.090        13
57.100        33
57.110        13
57.120        20
57.130        13
57.140         7
57.150        20
57.160        20
57.170        20
57.180        33
57.190        33
57.200         7
57.210        20
57.220        27
57.230        13
57.240        40
57.250        20
57.260        20
57.270        27
57.280        27
57.290        20
57.300        33
57.310        33
57.320        27
57.330        20
57.340        27
57.350        33
57.360        53
57.370        67
57.380         7
57.390        60
57.400        40
57.410        60
57.420        47
57.430       100
57.440       107
57.450        87
57.460       120
57.470       113
57.480       153
57.490       240
57.500       207
57.510       260
57.520       340
57.530       373
57.540       293
57.550       353
57.560       220
57.570       233
57.580       133
57.590       187
57.600       100
57.610       133
57.620        87
57.630        67
57.640        87
57.650       153
57.660       167
57.670       200
57.680       193
57.690       167
57.700       167
57.710       147
57.720       147
57.730       133
57.740        87
57.750        67
57.760        53
57.770        80
57.780        60
57.790        80
57.800        80
57.810        40
57.820        53
57.830        27
57.840        40
57.850        40
57.860         0
57.870        40
57.880        13
57.890        27
57.900        33
57.910        47
57.920        40
57.930        20
57.940        27
57.950        20
57.960        40
57.970        20
57.980        27
57.990        20
58.000        13
58.010        27
58.020        20
58.030        20
58.040         7
58.050        13
58.060        27
58.070        33
58.080        33
58.090        27
58.100        27
58.110        27
58.120        40
58.130        47
58.140        20
58.150        33
58.160        20
58.170        27
58.180        13
58.190        27
58.200        27
58.210         7
58.220        20
58.230         0
58.240         7
58.250         7
58.260         0
58.270        20
58.280        13
58.290        27
58.300        13
58.310        13
58.320        27
58.330         7
58.340        13
58.350        27
58.360         7
58.370        20
58.380        13
58.390         7
58.400        27
58.410        27
58.420        13
58.430        20
58.440        13
58.450        27
58.460        27
58.470        13
58.480        13
58.490        13
58.500         7
58.510        40
58.520        20
58.530         7
58.540         0
58.550         7
58.560        20
58.570        27
58.580         7
58.590         7
58.600        13
58.610         0
58.620         0
58.630        13
58.640        13
58.650        13
58.660         0
58.670        60
58.680        27
58.690        20
58.700         0
58.710         7
58.720        27
58.730        20
58.740        13
58.750         7
58.760        20
58.770         0
58.780        20
58.790        13
58.800        27
58.810         0
58.820        40
58.830        27
58.840        20
58.850        20
58.860        13
58.870         7
58.880        20
58.890        33
58.900        20
58.910        13
58.920        20
58.930         0
58.940         7
58.950        40
58.960        20
58.970         7
58.980        13
58.990        20
59.000        13
59.010        13
59.020        40
59.030         0
59.040        13
59.050        20
59.060        13
59.070        13
59.080        27
59.090         7
59.100        13
59.110        13
59.120         7
59.130        13
59.140        27
59.150        13
59.160         7
59.170         7
59.180         7
59.190         7
59.200        40
59.210         7
59.220        13
59.230        27
59.240        20
59.250         7
59.260        13
59.270         0
59.280        33
59.290         7
59.300         7
59.310        20
59.320        13
59.330        13
59.340        27
59.350        13
59.360        13
59.370        27
59.380         7
59.390        20
59.400        27
59.410        13
59.420         7
59.430        33
59.440        27
59.450        20
59.460        33
59.470        13
59.480         7
59.490        40
59.500         7
59.510        13
59.520        20
59.530        13
59.540         7
59.550        13
59.560        27
59.570        20
59.580        13
59.590        13
59.600        20
59.610        13
59.620        40
59.630        47
59.640        13
59.650        20
59.660        27
59.670         7
59.680        20
59.690        27
59.700        20
59.710         7
59.720        27
59.730        20
59.740         7
59.750        13
59.760        33
59.770        13
59.780        13
59.790        60
59.800        47
59.810        40
59.820        20
59.830         7
59.840        13
59.850        20
59.860        20
59.870        13
59.880         7
59.890        33
59.900         7
59.910        53
59.920        27
59.930        13
59.940        13
59.950         0
59.960        13
59.970        13
59.980        13
59.990        13
60.000        33
