20.000        47
20.010        47
20.020        53
20.030        40
20.040        40
20.050        53
20.060        20
20.070        33
20.080        53
20.090        53
20.100        67
20.110        47
20.120        60
20.130         7
20.140        67
20.150        40
20.160        13
20.170        60
20.180        13
20.190        33
20.200        33
20.210        40
20.220        27
20.230        20
20.240        60
20.250        60
20.260        87
20.270        53
20.280        53
20.290        73
20.300        33
20.310        67
20.320        67
20.330        47
20.340        47
20.350        73
20.360        47
20.370        73
20.380        33
20.390        67
20.400        67
20.410        33
20.420        53
20.430        60
20.440        40
20.450        80
20.460        27
20.470        40
20.480        73
20.490        40
20.500        60
20.510        53
20.520        53
20.530        33
20.540        60
20.550        40
20.560        47
20.570        33
20.580        33
20.590        93
20.600        40
20.610        33
20.620        67
20.630        73
20.640        27
20.650        80
20.660        20
20.670        40
20.680        47
20.690       113
20.700        67
20.710        40
20.720        13
20.730        27
20.740        47
20.750        33
20.760        33
20.770        33
20.780        53
20.790        40
20.800        60
20.810        33
20.820        33
20.830        20
20.840        20
20.850        40
20.860        60
20.870        40
20.880        53
20.890        33
20.900         7
20.910        73
20.920        33
20.930        53
20.940        67
20.950        13
20.960        27
20.970        47
20.980        33
20.990        53
21.000        47
21.010        33
21.020        53
21.030        20
21.040        27
21.050        67
21.060        47
21.070        80
21.080        47
21.090        27
21.100        40
21.110        47
21.120        47
21.130        73
21.140        33
21.150        73
21.160        40
21.170        47
21.180        20
21.190        47
21.200        40
21.210        13
21.220        33
21.230        47
21.240        60
21.250        47
21.260        40
21.270        47
21.280        47
21.290        33
21.300        33
21.310        20
21.320        33
21.330        27
21.340        40
21.350        33
21.360        40
21.370        27
21.380        33
21.390        60
21.400        60
21.410        20
21.420        33
21.430        53
21.440        33
21.450        67
21.460        40
21.470        13
21.480        20
21.490        53
21.500        40
21.510        33
21.520        40
21.530        40
21.540        47
21.550        27
21.560        47
21.570        53
21.580        67
21.590        53
21.600        80
21.610        87
21.620        53
21.630        53
21.640        13
21.650        40
21.660        47
21.670        47
21.680        53
21.690        53
21.700        33
21.710        33
21.720        40
21.730        20
21.740        60
21.750        47
21.760        47
21.770        47
21.780        40
21.790        53
21.800        53
21.810        33
21.820        47
21.830        40
21.840        60
21.850        47
21.860        47
21.870        27
21.880        33
21.890        53
21.900        27
21.910        40
21.920        27
21.930        33
21.940        20
21.950        47
21.960        27
21.970        27
21.980        60
21.990        93
22.000        20
22.010        40
22.020        20
22.030        53
22.040        33
22.050        73
22.060        33
22.070        20
22.080        40
22.090        60
22.100        27
22.110        47
22.120        87
22.130        60
22.140        20
22.150        20
22.160        53
22.170        40
22.180        40
22.190        47
22.200        27
22.210        47
22.220       107
22.230        33
22.240        47
22.250        27
22.260        40
22.270        80
22.280        27
22.290        47
22.300        40
22.310        73
22.320        73
22.330        67
22.340        73
22.350        73
22.360        73
22.370        80
22.380        73
22.390        67
22.400        80
22.410       107
22.420       120
22.430        87
22.440        73
22.450       160
22.460       113
22.470        80
22.480       153
22.490        87
22.500       107
22.510       140
22.520       180
22.530       100
22.540       240
22.550       167
22.560       200
22.570       233
22.580       233
22.590       307
22.600       233
22.610       333
22.620       267
22.630       213
22.640       260
22.650       327
22.660       440
22.670       340
22.680       240
22.690       313
22.700       387
22.710       327
22.720       347
22.730       300
22.740       327
22.750       247
22.760       253
22.770       340
22.780       273
22.790       260
22.800       253
22.810       220
22.820       193
22.830       247
22.840       133
22.850       227
22.860       187
22.870       180
22.880       107
22.890       160
22.900       113
22.910       167
22.920       107
22.930       120
22.940       140
22.950       100
22.960       153
22.970       100
22.980        93
22.990        87
23.000        40
23.010       107
23.020       127
23.030        93
23.040       113
23.050        73
23.060        60
23.070        47
23.080        60
23.090        73
23.100        67
23.110        40
23.120        67
23.130       113
23.140        53
23.150        67
23.160        80
23.170        80
23.180        40
23.190        53
23.200        47
23.210        53
23.220       100
23.230        40
23.240        40
23.250        53
23.260        60
23.270        73
23.280        47
23.290        53
23.300        67
23.310        67
23.320        20
23.330        67
23.340        33
23.350        53
23.360        20
23.370        53
23.380        20
23.390        80
23.400        87
23.410        40
23.420        47
23.430        53
23.440        33
23.450        27
23.460        33
23.470        87
23.480        40
23.490        13
23.500        67
23.510        67
23.520       127
23.530        67
23.540        47
23.550        73
23.560        40
23.570        60
23.580        40
23.590        67
23.600        20
23.610        27
23.620        33
23.630        40
23.640        53
23.650        33
23.660        33
23.670        67
23.680        53
23.690        40
23.700        20
23.710        73
23.720        27
23.730        67
23.740        53
23.750        53
23.760        33
23.770        27
23.780        13
23.790        60
23.800        60
23.810        53
23.820        47
23.830        33
23.840        20
23.850        27
23.860        13
23.870        40
23.880        53
23.890        60
23.900        47
23.910        33
23.920        53
23.930        53
23.940        20
23.950        47
23.960        33
23.970        60
23.980        40
23.990        40
24.000        20
24.010        53
24.020        27
24.030        27
24.040        40
24.050        40
24.060        33
24.070        40
24.080        33
24.090        47
24.100        27
24.110        60
24.120        47
24.130        27
24.140        47
24.150        60
24.160        80
24.170        40
24.180        47
24.190        40
24.200        40
24.210        40
24.220        47
24.230        27
24.240        40
24.250        47
24.260        60
24.270        53
24.280        40
24.290        27
24.300        27
24.310        27
24.320        33
24.330        67
24.340        13
24.350        40
24.360        47
24.370        40
24.380        60
24.390        47
24.400        20
24.410        60
24.420        33
24.430        40
24.440        27
24.450        20
24.460        40
24.470        47
24.480        47
24.490        53
24.500        40
24.510        33
24.520        80
24.530        13
24.540        47
24.550        53
24.560        60
24.570        20
24.580         7
24.590        33
24.600        47
24.610        93
24.620        20
24.630        40
24.640        60
24.650        20
24.660        27
24.670        47
24.680        53
24.690         7
24.700        47
24.710        33
24.720        40
24.730        53
24.740        53
24.750        33
24.760        47
24.770        47
24.780        60
24.790        27
24.800        20
24.810        53
24.820        20
24.830        47
24.840        73
24.850        33
24.860        40
24.870        53
24.880        33
24.890        13
24.900        27
24.910        47
24.920        53
24.930        40
24.940        53
24.950        20
24.960        40
24.970        47
24.980        60
24.990        53
25.000        80
25.010        47
25.020        67
25.030        40
25.040        47
25.050        13
25.060        27
25.070        20
25.080        53
25.090        27
25.100        53
25.110        60
25.120        27
25.130        33
25.140        27
25.150        47
25.160        33
25.170        27
25.180        67
25.190        53
25.200        13
25.210        27
25.220        53
25.230        27
25.240        47
25.250        27
25.260        47
25.270        53
25.280        53
25.290        33
25.300        40
25.310        67
25.320        13
25.330        47
25.340        40
25.350        47
25.360        27
25.370        60
25.380        67
25.390        47
25.400        53
25.410        40
25.420        53
25.430        53
25.440       100
25.450       107
25.460        60
25.470        33
25.480       100
25.490        87
25.500        87
25.510        80
25.520        67
25.530        73
25.540        73
25.550        60
25.560        73
25.570        93
25.580       160
25.590       240
25.600       207
25.610       253
25.620       187
25.630       213
25.640       167
25.650       200
25.660       187
25.670       207
25.680       140
25.690       107
25.700       127
25.710        60
25.720        60
25.730        87
25.740        47
25.750        53
25.760        60
25.770        47
25.780        67
25.790        73
25.800        47
25.810        27
25.820        20
25.830        47
25.840        40
25.850        40
25.860        40
25.870        60
25.880        33
25.890        27
25.900        67
25.910        47
25.920        60
25.930        53
25.940        40
25.950        40
25.960        33
25.970        27
25.980        27
25.990        47
26.000        40
26.010        53
26.020        13
26.030        40
26.040        40
26.050        40
26.060        33
26.070        53
26.080        40
26.090        47
26.100        13
26.110        40
26.120        47
26.130        40
26.140        33
26.150        40
26.160        53
26.170        47
26.180        20
26.190        27
26.200        33
26.210        60
26.220        53
26.230        27
26.240        33
26.250        53
26.260        20
26.270        40
26.280        33
26.290        20
26.300        47
26.310        40
26.320        27
26.330        40
26.340        80
26.350        20
26.360        47
26.370        33
26.380        40
26.390        13
26.400        27
26.410        87
26.420        67
26.430        27
26.440        20
26.450        33
26.460        33
26.470        20
26.480        67
26.490        60
26.500        73
26.510        53
26.520        33
26.530        73
26.540        20
26.550        60
26.560        40
26.570        40
26.580        20
26.590        53
26.600        60
26.610        33
26.620        27
26.630        80
26.640        27
26.650        33
26.660        60
26.670        40
26.680        40
26.690        27
26.700        40
26.710        33
26.720        20
26.730        47
26.740        53
26.750        67
26.760        33
26.770        53
26.780        27
26.790        40
26.800        47
26.810        53
26.820        33
26.830        27
26.840        40
26.850        40
26.860        40
26.870        20
26.880        33
26.890         7
26.900        20
26.910        47
26.920        13
26.930        20
26.940        13
26.950        47
26.960        73
26.970        33
26.980        60
26.990        20
27.000        13
27.010        60
27.020        73
27.030        27
27.040        20
27.050        27
27.060        40
27.070        20
27.080        40
27.090        27
27.100        20
27.110        20
27.120        40
27.130        47
27.140        53
27.150        20
27.160        33
27.170        40
27.180         7
27.190        20
27.200        53
27.210        40
27.220        20
27.230        67
27.240        67
27.250        53
27.260        20
27.270        47
27.280        40
27.290        40
27.300        20
27.310        13
27.320        33
27.330        20
27.340        40
27.350        60
27.360        13
27.370        47
27.380        13
27.390        27
27.400        47
27.410        47
27.420        47
27.430        53
27.440        27
27.450        27
27.460        13
27.470        27
27.480        53
27.490        33
27.500         7
27.510        47
27.520        13
27.530        27
27.540        53
27.550        40
27.560        20
27.570        47
27.580        27
27.590        47
27.600        27
27.610        27
27.620        27
27.630        53
27.640        47
27.650        27
27.660        40
27.670        87
27.680        27
27.690        20
27.700        27
27.710        40
27.720        27
27.730        53
27.740        53
27.750        53
27.760        40
27.770        40
27.780        33
27.790        40
27.800        27
27.810        27
27.820        27
27.830        40
27.840        33
27.850        40
27.860        60
27.870        27
27.880        33
27.890        47
27.900        20
27.910        27
27.920        20
27.930        53
27.940        40
27.950        60
27.960        27
27.970        13
27.980        20
27.990        20
28.000        47
28.010        27
28.020        33
28.030        60
28.040        20
28.050        33
28.060        67
28.070        27
28.080        20
28.090        40
28.100        27
28.110        13
28.120        47
28.130        47
28.140        33
28.150        33
28.160        27
28.170        33
28.180        33
28.190        27
28.200        27
28.210        47
28.220        47
28.230        47
28.240         7
28.250        20
28.260        13
28.270        73
28.280        33
28.290        20
28.300        13
28.310        20
28.320        40
28.330        40
28.340        53
28.350        47
28.360        40
28.370        27
28.380        47
28.390        53
28.400         7
28.410         7
28.420        27
28.430        27
28.440        27
28.450        53
28.460         7
28.470        47
28.480        60
28.490        13
28.500        33
28.510        60
28.520        53
28.530        20
28.540        40
28.550        20
28.560        40
28.570        47
28.580        40
28.590        33
28.600        20
28.610        53
28.620        33
28.630        33
28.640        20
28.650        47
28.660        20
28.670        33
28.680        33
28.690        40
28.700        27
28.710        33
28.720        27
28.730        27
28.740        40
28.750        67
28.760        47
28.770        33
28.780        80
28.790        27
28.800        20
28.810        20
28.820        20
28.830        33
28.840        60
28.850        13
28.860        27
28.870        20
28.880        47
28.890        47
28.900        40
28.910        27
28.920        20
28.930        40
28.940        27
28.950        33
28.960        60
28.970        40
28.980        40
28.990        40
29.000        40
29.010        27
29.020        33
29.030        20
29.040        20
29.050        40
29.060        20
29.070        33
29.080        40
29.090         7
29.100        20
29.110        20
29.120        27
29.130        40
29.140        20
29.150        53
29.160        47
29.170        47
29.180        53
29.190        33
29.200        27
29.210        27
29.220        27
29.230        20
29.240        27
29.250        40
29.260        40
29.270        67
29.280        40
29.290        27
29.300        40
29.310        53
29.320        33
29.330        40
29.340        20
29.350        40
29.360        40
29.370        20
29.380        27
29.390        60
29.400        27
29.410        20
29.420        47
29.430         7
29.440        40
29.450        20
29.460        13
29.470        13
29.480        53
29.490        33
29.500        53
29.510        20
29.520        20
29.530        53
29.540        80
29.550        27
29.560        53
29.570        33
29.580        27
29.590        33
29.600        20
29.610         7
29.620        27
29.630         7
29.640        13
29.650        33
29.660        33
29.670        40
29.680        27
29.690        27
29.700        27
29.710        27
29.720        33
29.730        20
29.740        33
29.750        40
29.760        27
29.770        20
29.780        20
29.790        53
29.800        60
29.810        87
29.820        40
29.830        40
29.840        47
29.850        40
29.860        40
29.870        47
29.880        27
29.890        27
29.900        27
29.910        27
29.920        20
29.930        40
29.940        33
29.950        20
29.960        40
29.970        33
29.980        27
29.990        20
30.000        27
30.010        40
30.020        33
30.030        20
30.040        33
30.050        20
30.060        33
30.070        27
30.080        47
30.090        13
30.100        40
30.110         0
30.120        27
30.130        27
30.140        27
30.150        27
30.160        47
30.170        27
30.180        20
30.190        33
30.200        33
30.210        27
30.220         7
30.230        33
30.240        40
30.250        20
30.260         7
30.270        20
30.280         7
30.290        40
30.300        33
30.310        33
30.320        53
30.330        33
30.340        33
30.350        13
30.360        53
30.370        20
30.380        53
30.390        33
30.400        20
30.410        33
30.420        27
30.430        40
30.440        27
30.450        47
30.460        33
30.470        20
30.480        53
30.490        53
30.500        13
30.510        53
30.520        13
30.530        13
30.540        13
30.550        33
30.560        27
30.570        53
30.580        60
30.590        20
30.600        33
30.610        20
30.620        47
30.630        20
30.640        20
30.650         0
30.660        33
30.670        33
30.680        40
30.690        47
30.700        27
30.710        13
30.720        27
30.730        27
30.740        13
30.750        47
30.760        33
30.770        33
30.780        13
30.790        53
30.800        40
30.810        40
30.820        33
30.830        67
30.840        13
30.850        40
30.860        47
30.870        27
30.880        27
30.890        13
30.900        33
30.910        20
30.920        27
30.930        27
30.940        47
30.950        13
30.960        27
30.970        20
30.980        33
30.990        13
31.000        20
31.010        27
31.020        13
31.030        27
31.040        20
31.050        47
31.060        27
31.070        13
31.080        27
31.090        20
31.100        13
31.110        13
31.120        33
31.130        27
31.140        47
31.150        20
31.160        27
31.170        33
31.180        20
31.190        33
31.200        53
31.210         7
31.220        73
31.230        47
31.240        27
31.250        47
31.260        40
31.270        40
31.280        53
31.290        80
31.300        47
31.310        13
31.320        53
31.330        13
31.340        53
31.350        40
31.360        53
31.370        53
31.380        40
31.390        40
31.400        53
31.410        33
31.420        80
31.430        40
31.440         7
31.450        33
31.460        27
31.470        67
31.480        47
31.490        33
31.500        27
31.510        40
31.520         0
31.530        13
31.540        13
31.550        27
31.560        13
31.570         7
31.580        33
31.590        27
31.600        33
31.610        13
31.620        47
31.630         7
31.640        73
31.650        13
31.660        27
31.670        40
31.680        27
31.690        53
31.700        47
31.710        53
31.720        40
31.730        33
31.740        40
31.750        80
31.760        27
31.770        13
31.780        27
31.790        33
31.800        40
31.810        47
31.820        27
31.830        20
31.840        13
31.850        53
31.860        60
31.870        47
31.880         7
31.890        60
31.900        27
31.910        13
31.920        47
31.930        47
31.940        40
31.950        60
31.960        20
31.970        73
31.980        47
31.990        67
32.000        60
32.010        33
32.020        40
32.030        67
32.040        40
32.050        33
32.060        60
32.070        87
32.080        80
32.090        53
32.100        47
32.110        80
32.120        73
32.130       113
32.140        93
32.150       127
32.160       113
32.170       120
32.180       147
32.190       153
32.200       167
32.210       160
32.220       120
32.230       213
32.240       227
32.250       187
32.260       140
32.270       173
32.280       220
32.290       200
32.300       273
32.310       253
32.320       213
32.330       247
32.340       287
32.350       253
32.360       300
32.370       340
32.380       240
32.390       353
32.400       320
32.410       267
32.420       267
32.430       380
32.440       260
32.450       340
32.460       260
32.470       220
32.480       233
32.490       220
32.500       233
32.510       293
32.520       220
32.530       220
32.540       167
32.550       187
32.560       173
32.570       133
32.580       173
32.590       160
32.600       200
32.610       173
32.620       100
32.630        87
32.640        67
32.650        87
32.660        40
32.670        53
32.680       107
32.690        73
32.700        80
32.710        73
32.720        33
32.730        20
32.740        53
32.750        73
32.760        47
32.770        33
32.780        87
32.790        40
32.800        40
32.810        47
32.820        47
32.830        33
32.840        40
32.850        33
32.860        33
32.870        40
32.880        27
32.890        60
32.900        40
32.910        13
32.920         7
32.930        40
32.940        33
32.950        27
32.960        27
32.970        33
32.980        40
32.990        27
33.000        53
33.010        47
33.020        13
33.030        20
33.040        40
33.050        27
33.060        67
33.070        40
33.080        20
33.090        13
33.100        40
33.110        67
33.120        33
33.130        20
33.140        20
33.150        20
33.160        40
33.170        73
33.180        13
33.190       100
33.200        13
33.210        40
33.220        33
33.230        20
33.240        33
33.250        20
33.260        27
33.270        33
33.280        47
33.290        40
33.300        33
33.310        13
33.320        20
33.330        20
33.340        40
33.350        20
33.360        40
33.370        33
33.380        40
33.390        20
33.400        47
33.410        13
33.420        33
33.430        27
33.440         7
33.450        40
33.460        33
33.470        33
33.480        13
33.490        33
33.500         7
33.510        27
33.520        40
33.530        20
33.540        13
33.550        13
33.560        33
33.570        20
33.580        53
33.590        47
33.600        40
33.610        27
33.620        27
33.630        47
33.640        53
33.650        20
33.660        13
33.670        27
33.680        40
33.690        40
33.700        20
33.710        53
33.720        20
33.730        33
33.740        27
33.750        40
33.760        20
33.770        53
33.780        33
33.790        27
33.800        27
33.810        33
33.820        20
33.830        53
33.840        40
33.850        20
33.860        27
33.870        47
33.880        27
33.890         7
33.900        40
33.910        27
33.920        13
33.930        47
33.940        13
33.950        33
33.960        33
33.970        20
33.980        33
33.990        20
34.000         0
34.010        13
34.020        40
34.030        27
34.040        27
34.050        33
34.060         7
34.070        47
34.080        27
34.090        73
34.100        20
34.110        53
34.120        27
34.130        20
34.140         7
34.150        53
34.160        47
34.170        40
34.180        47
34.190        27
34.200        20
34.210        27
34.220        47
34.230        20
34.240        27
34.250        20
34.260        33
34.270        27
34.280        40
34.290        40
34.300        53
34.310        13
34.320        53
34.330        13
34.340        33
34.350        20
34.360        33
34.370        20
34.380        20
34.390         7
34.400        33
34.410        13
34.420        40
34.430        73
34.440        67
34.450        53
34.460        27
34.470        40
34.480        40
34.490        13
34.500        27
34.510        40
34.520         7
34.530        27
34.540        13
34.550         7
34.560        20
34.570        13
34.580        67
34.590        13
34.600        53
34.610        40
34.620        20
34.630        53
34.640        40
34.650        20
34.660        27
34.670        33
34.680        40
34.690        47
34.700        27
34.710        27
34.720        13
34.730        27
34.740        13
34.750        20
34.760        60
34.770        33
34.780         7
34.790        27
34.800        33
34.810        27
34.820        40
34.830        27
34.840        33
34.850        27
34.860        20
34.870        40
34.880        13
34.890        27
34.900        27
34.910        40
34.920        40
34.930        47
34.940        40
34.950        73
34.960        53
34.970       107
34.980        27
34.990        87
35.000        60
35.010        67
35.020        47
35.030        87
35.040        87
35.050       107
35.060        60
35.070       173
35.080       127
35.090       227
35.100       187
35.110       153
35.120       240
35.130       253
35.140       353
35.150       573
35.160       506
35.170       680
35.180       806
35.190      1073
35.200       820
35.210       740
35.220       706
35.230       473
35.240       407
35.250       387
35.260       440
35.270       526
35.280       380
35.290       307
35.300       360
35.310       347
35.320       260
35.330       227
35.340       107
35.350        53
35.360        33
35.370        80
35.380        47
35.390        47
35.400        20
35.410        33
35.420        13
35.430        20
35.440        20
35.450        33
35.460        53
35.470        33
35.480        27
35.490        13
35.500        40
35.510        20
35.520        33
35.530        33
35.540        53
35.550        20
35.560        20
35.570        47
35.580        27
35.590        13
35.600        40
35.610        20
35.620        60
35.630        33
35.640        20
35.650        20
35.660        27
35.670        20
35.680        27
35.690        40
35.700        40
35.710        13
35.720         0
35.730        20
35.740        60
35.750         0
35.760        27
35.770         0
35.780        13
35.790        27
35.800        20
35.810         0
35.820        20
35.830        40
35.840        27
35.850        60
35.860         7
35.870        33
35.880         0
35.890        47
35.900        20
35.910        20
35.920        20
35.930        13
35.940        13
35.950        47
35.960        20
35.970        27
35.980        27
35.990        27
36.000        53
36.010        13
36.020        40
36.030        20
36.040        13
36.050        27
36.060        33
36.070        27
36.080        27
36.090        27
36.100        47
36.110        27
36.120        13
36.130        53
36.140        13
36.150        20
36.160         7
36.170        27
36.180        40
36.190        33
36.200        13
36.210         7
36.220         7
36.230        33
36.240        40
36.250        20
36.260        33
36.270        33
36.280        33
36.290        40
36.300        40
36.310        33
36.320        20
36.330        40
36.340         7
36.350        40
36.360        33
36.370        47
36.380        53
36.390        40
36.400        13
36.410        27
36.420        47
36.430        40
36.440        33
36.450        20
36.460        20
36.470        20
36.480        13
36.490        20
36.500        33
36.510        27
36.520        13
36.530        33
36.540        40
36.550        33
36.560        33
36.570        33
36.580        13
36.590        27
36.600        33
36.610         7
36.620        27
36.630        20
36.640        13
36.650        20
36.660        27
36.670        20
36.680         7
36.690        20
36.700        13
36.710        27
36.720        40
36.730        47
36.740        27
36.750        40
36.760        33
36.770        13
36.780        27
36.790        33
36.800        33
36.810        33
36.820        27
36.830        13
36.840        53
36.850        27
36.860        13
36.870        60
36.880        67
36.890        53
36.900        33
36.910        47
36.920        40
36.930        33
36.940        47
36.950        20
36.960        40
36.970        47
36.980        20
36.990        27
37.000        33
37.010        27
37.020         7
37.030        33
37.040        13
37.050        20
37.060        13
37.070        27
37.080        20
37.090        33
37.100        13
37.110        20
37.120        13
37.130        20
37.140        53
37.150        20
37.160         7
37.170        20
37.180        13
37.190        20
37.200        13
37.210         0
37.220        27
37.230         7
37.240        33
37.250         7
37.260        13
37.270        33
37.280        20
37.290        33
37.300        27
37.310        13
37.320        20
37.330        33
37.340        27
37.350        27
37.360        47
37.370        27
37.380        20
37.390        20
37.400        20
37.410        13
37.420        13
37.430        33
37.440        13
37.450        40
37.460        20
37.470        40
37.480        33
37.490        27
37.500        40
37.510        13
37.520        27
37.530        13
37.540        47
37.550        13
37.560        47
37.570        33
37.580         7
37.590        33
37.600        40
37.610        13
37.620        53
37.630        47
37.640        27
37.650        40
37.660        40
37.670        20
37.680        60
37.690        60
37.700        80
37.710       120
37.720        93
37.730       100
37.740       107
37.750       173
37.760       140
37.770       147
37.780       220
37.790       247
37.800       167
37.810       207
37.820       267
37.830       253
37.840       300
37.850       260
37.860       247
37.870       133
37.880       153
37.890       120
37.900       147
37.910        73
37.920       213
37.930       167
37.940       120
37.950       100
37.960        73
37.970        53
37.980        40
37.990        47
38.000        33
38.010         7
38.020        33
38.030        47
38.040        47
38.050        27
38.060        33
38.070        47
38.080        27
38.090        40
38.100        20
38.110        33
38.120        33
38.130        27
38.140        47
38.150        33
38.160        33
38.170        20
38.180        13
38.190        20
38.200         7
38.210        27
38.220         0
38.230        27
38.240        20
38.250        13
38.260        13
38.270        20
38.280        20
38.290        27
38.300        13
38.310        47
38.320        20
38.330        20
38.340        33
38.350        40
38.360        47
38.370         7
38.380        60
38.390        13
38.400        13
38.410        20
38.420        40
38.430        20
38.440        20
38.450        20
38.460        33
38.470        33
38.480        20
38.490        40
38.500        47
38.510        33
38.520        20
38.530        40
38.540        27
38.550        13
38.560        27
38.570        20
38.580        20
38.590         7
38.600        27
38.610        40
38.620        20
38.630        13
38.640         0
38.650        13
38.660        47
38.670        20
38.680        33
38.690        33
38.700        27
38.710        13
38.720        47
38.730        27
38.740         0
38.750        13
38.760         7
38.770        40
38.780        13
38.790        40
38.800         7
38.810        40
38.820        33
38.830        27
38.840        27
38.850        13
38.860        20
38.870        27
38.880        13
38.890        27
38.900        27
38.910        60
38.920        27
38.930        27
38.940        27
38.950        27
38.960         7
38.970        47
38.980        33
38.990        20
39.000        47
39.010        20
39.020         7
39.030        33
39.040        13
39.050        33
39.060        20
39.070        27
39.080        40
39.090        40
39.100        13
39.110        40
39.120        27
39.130        13
39.140        27
39.150        53
39.160        40
39.170        27
39.180        47
39.190        27
39.200        53
39.210        27
39.220        20
39.230        33
39.240        27
39.250        40
39.260         7
39.270        27
39.280        27
39.290        27
39.300        13
39.310        40
39.320        13
39.330        20
39.340        33
39.350        27
39.360        33
39.370         7
39.380        13
39.390         0
39.400        20
39.410        40
39.420        20
39.430        27
39.440        13
39.450         7
39.460        20
39.470        13
39.480        20
39.490        13
39.500        13
39.510        40
39.520        33
39.530        20
39.540        40
39.550        20
39.560        13
39.570        27
39.580        20
39.590        13
39.600        27
39.610        33
39.620        20
39.630        40
39.640         7
39.650        27
39.660        27
39.670        33
39.680        20
39.690        33
39.700        13
39.710        40
39.720        33
39.730        47
39.740        27
39.750        80
39.760        40
39.770        40
39.780        20
39.790        33
39.800        53
39.810        27
39.820        87
39.830        40
39.840        47
39.850        47
39.860        87
39.870        73
39.880        93
39.890       113
39.900        67
39.910        60
39.920       127
39.930       107
39.940       127
39.950       100
39.960        93
39.970        93
39.980       153
39.990       100
40.000       113
40.010       120
40.020       147
40.030       180
40.040       127
40.050       100
40.060       167
40.070       100
40.080        87
40.090       120
40.100        93
40.110        93
40.120       133
40.130        73
40.140        80
40.150        40
40.160        27
40.170        40
40.180        53
40.190        40
40.200        60
40.210        60
40.220        80
40.230        80
40.240        47
40.250        53
40.260        53
40.270        67
40.280        20
40.290        20
40.300        33
40.310        20
40.320        13
40.330        27
40.340        27
40.350         7
40.360        20
40.370        33
40.380        33
40.390        60
40.400        13
40.410         7
40.420        40
40.430        40
40.440        20
40.450        40
40.460        27
40.470        20
40.480        20
40.490        13
40.500         7
40.510        20
40.520        20
40.530        47
40.540         7
40.550        47
40.560        27
40.570        47
40.580        13
40.590        13
40.600        33
40.610        13
40.620        13
40.630        13
40.640        13
40.650         0
40.660        20
40.670        33
40.680        40
40.690        33
40.700        20
40.710         7
40.720         0
40.730        60
40.740        20
40.750        33
40.760        40
40.770        27
40.780        20
40.790        20
40.800        27
40.810        20
40.820         7
40.830        20
40.840        40
40.850        20
40.860        20
40.870        33
40.880        33
40.890        20
40.900        33
40.910        13
40.920        33
40.930        20
40.940        33
40.950        20
40.960        27
40.970        13
40.980        27
40.990        20
41.000         7
41.010        27
41.020        53
41.030        40
41.040        13
41.050        20
41.060        27
41.070        33
41.080        53
41.090        20
41.100        33
41.110         7
41.120        27
41.130        27
41.140        40
41.150        27
41.160        47
41.170        13
41.180        20
41.190        27
41.200        20
41.210        33
41.220         7
41.230        53
41.240        40
41.250        27
41.260        27
41.270        47
41.280        13
41.290        27
41.300        20
41.310        20
41.320        33
41.330        27
41.340        47
41.350        27
41.360        27
41.370        47
41.380        40
41.390        60
41.400        40
41.410        40
41.420        20
41.430        60
41.440        40
41.450        20
41.460        47
41.470        27
41.480        13
41.490        33
41.500        33
41.510         7
41.520        20
41.530       100
41.540        67
41.550        60
41.560        53
41.570        53
41.580        67
41.590        93
41.600        60
41.610        53
41.620        60
41.630       100
41.640        93
41.650       120
41.660       107
41.670       147
41.680       133
41.690       187
41.700       147
41.710       187
41.720       200
41.730       107
41.740       127
41.750        53
41.760        93
41.770       100
41.780        93
41.790       127
41.800        80
41.810        93
41.820        80
41.830        93
41.840       113
41.850        80
41.860        87
41.870        20
41.880        67
41.890        20
41.900        27
41.910        47
41.920        53
41.930         7
41.940        20
41.950        13
41.960        40
41.970        13
41.980        40
41.990        33
42.000         7
42.010        33
42.020        73
42.030        47
42.040        33
42.050        20
42.060        60
42.070        27
42.080        27
42.090         7
42.100        40
42.110        33
42.120         0
42.130        47
42.140        60
42.150        13
42.160        40
42.170        40
42.180        40
42.190        40
42.200        40
42.210        20
42.220        13
42.230        40
42.240        27
42.250        27
42.260        33
42.270        33
42.280        47
42.290        27
42.300        13
42.310        13
42.320        13
42.330        53
42.340        33
42.350        27
42.360        20
42.370        33
42.380         7
42.390        20
42.400        40
42.410        40
42.420        33
42.430        33
42.440        27
42.450        20
42.460         0
42.470        47
42.480        20
42.490        13
42.500        33
42.510         7
42.520        33
42.530        27
42.540         7
42.550        33
42.560        20
42.570        33
42.580        47
42.590        33
42.600        33
42.610        40
42.620         7
42.630        33
42.640         7
42.650        27
42.660        33
42.670        47
42.680        47
42.690        20
42.700        13
42.710        20
42.720        27
42.730        20
42.740        13
42.750        27
42.760        67
42.770        13
42.780        20
42.790        27
42.800        13
42.810        40
42.820        20
42.830        13
42.840        13
42.850        13
42.860        13
42.870         7
42.880        40
42.890        13
42.900        13
42.910        27
42.920         7
42.930        40
42.940        13
42.950        47
42.960        27
42.970        20
42.980        33
42.990         7
43.000        53
43.010        27
43.020        40
43.030        27
43.040        27
43.050         7
43.060        33
43.070         7
43.080        33
43.090        53
43.100        67
43.110        60
43.120        27
43.130        27
43.140        40
43.150        40
43.160        33
43.170        33
43.180        20
43.190        13
43.200        53
43.210        53
43.220        67
43.230        60
43.240       113
43.250        73
43.260        60
43.270        73
43.280       120
43.290        53
43.300       107
43.310        73
43.320       187
43.330       120
43.340       160
43.350       300
43.360       327
43.370       413
43.380       380
43.390       493
43.400       446
43.410       373
43.420       347
43.430       300
43.440       260
43.450       187
43.460       227
43.470       187
43.480       213
43.490       267
43.500       280
43.510       280
43.520       220
43.530       167
43.540       140
43.550       153
43.560       113
43.570        73
43.580        80
43.590        60
43.600        47
43.610        53
43.620        73
43.630        13
43.640        27
43.650        33
43.660        20
43.670        27
43.680        53
43.690        13
43.700        47
43.710        33
43.720        20
43.730        27
43.740        40
43.750        27
43.760        20
43.770        27
43.780        20
43.790        13
43.800         7
43.810        27
43.820        33
43.830        40
43.840        20
43.850        27
43.860        33
43.870        13
43.880        13
43.890        33
43.900        33
43.910         0
43.920        13
43.930        40
43.940        27
43.950        13
43.960        13
43.970        13
43.980        20
43.990        27
44.000        20
44.010        40
44.020        13
44.030        13
44.040        20
44.050        27
44.060        47
44.070        33
44.080         7
44.090        20
44.100        33
44.110        47
44.120        40
44.130        20
44.140        20
44.150        20
44.160        47
44.170        33
44.180        13
44.190        20
44.200        13
44.210        33
44.220        20
44.230        13
44.240        27
44.250        33
44.260        27
44.270        20
44.280        27
44.290        33
44.300        40
44.310        13
44.320        33
44.330        20
44.340        27
44.350        53
44.360        13
44.370        20
44.380        27
44.390        20
44.400        20
44.410        47
44.420        53
44.430        47
44.440        40
44.450        27
44.460        20
44.470        33
44.480        13
44.490        27
44.500        53
44.510        40
44.520        27
44.530        47
44.540        53
44.550        27
44.560        53
44.570        40
44.580        13
44.590        27
44.600        20
44.610        33
44.620        40
44.630        33
44.640        27
44.650        20
44.660        27
44.670        13
44.680        67
44.690        33
44.700        47
44.710        33
44.720        67
44.730        47
44.740        20
44.750        27
44.760        40
44.770        53
44.780        33
44.790        27
44.800        27
44.810        40
44.820        27
44.830        47
44.840        73
44.850       107
44.860        53
44.870        80
44.880        53
44.890        60
44.900        80
44.910        67
44.920        67
44.930        87
44.940        67
44.950        73
44.960        27
44.970        27
44.980        60
44.990        53
45.000        67
45.010        20
45.020        60
45.030        40
45.040        73
45.050        60
45.060        60
45.070        60
45.080        87
45.090        60
45.100        53
45.110        73
45.120        47
45.130        47
45.140        60
45.150        60
45.160       120
45.170        67
45.180        80
45.190        73
45.200        67
45.210        67
45.220        87
45.230        53
45.240        73
45.250        60
45.260       127
45.270       107
45.280        53
45.290        47
45.300        73
45.310        93
45.320       100
45.330        80
45.340        60
45.350        47
45.360        80
45.370        80
45.380        87
45.390       140
45.400        80
45.410       147
45.420        60
45.430       140
45.440       107
45.450       180
45.460       120
45.470        93
45.480       153
45.490       120
45.500       127
45.510       140
45.520       133
45.530        93
45.540       107
45.550       140
45.560       133
45.570       173
45.580       133
45.590        93
45.600       167
45.610       120
45.620       180
45.630       167
45.640       147
45.650       160
45.660       213
45.670       180
45.680       233
45.690       240
45.700       187
45.710       340
45.720       240
45.730       240
45.740       247
45.750       340
45.760       267
45.770       380
45.780       307
45.790       260
45.800       380
45.810       400
45.820       460
45.830       400
45.840       453
45.850       380
45.860       486
45.870       380
45.880       526
45.890       593
45.900       513
45.910       653
45.920       660
45.930       746
45.940       646
45.950       733
45.960       660
45.970       873
45.980       833
45.990       906
46.000       960
46.010      1046
46.020      1026
46.030       913
46.040      1013
46.050      1100
46.060      1180
46.070      1273
46.080      1359
46.090      1253
46.100      1326
46.110      1259
46.120      1499
46.130      1546
46.140      1579
46.150      1559
46.160      1673
46.170      1726
46.180      1786
46.190      1879
46.200      1726
46.210      1819
46.220      1893
46.230      1966
46.240      1893
46.250      2046
46.260      2179
46.270      1913
46.280      1993
46.290      2066
46.300      2079
46.310      2206
46.320      2252
46.330      2292
46.340      2026
46.350      2086
46.360      2119
46.370      2172
46.380      2332
46.390      2106
46.400      2026
46.410      2019
46.420      1966
46.430      2013
46.440      1859
46.450      2026
46.460      1753
46.470      1819
46.480      1766
46.490      1666
46.500      1746
46.510      1533
46.520      1579
46.530      1486
46.540      1453
46.550      1633
46.560      1293
46.570      1279
46.580      1419
46.590      1166
46.600      1206
46.610      1193
46.620      1013
46.630      1046
46.640      1006
46.650       926
46.660       846
46.670      1020
46.680       866
46.690       780
46.700       600
46.710       746
46.720       720
46.730       580
46.740       686
46.750       586
46.760       400
46.770       593
46.780       426
46.790       506
46.800       360
46.810       466
46.820       513
46.830       367
46.840       420
46.850       367
46.860       380
46.870       393
46.880       387
46.890       287
46.900       367
46.910       333
46.920       240
46.930       220
46.940       273
46.950       267
46.960       260
46.970       207
46.980       193
46.990       193
47.000       200
47.010       193
47.020       173
47.030       153
47.040       173
47.050       127
47.060       167
47.070       213
47.080       120
47.090       113
47.100       220
47.110       160
47.120       160
47.130       113
47.140        93
47.150       173
47.160       160
47.170       100
47.180        80
47.190       153
47.200       113
47.210        87
47.220        93
47.230       113
47.240        93
47.250        33
47.260       113
47.270       120
47.280       113
47.290       113
47.300        87
47.310        87
47.320        67
47.330       113
47.340        87
47.350       100
47.360        60
47.370       100
47.380        80
47.390        80
47.400        93
47.410        60
47.420        73
47.430        67
47.440        60
47.450        87
47.460        60
47.470        40
47.480        47
47.490        87
47.500        80
47.510        80
47.520        67
47.530        47
47.540        60
47.550        47
47.560        40
47.570        53
47.580        33
47.590        40
47.600       100
47.610        53
47.620        53
47.630        47
47.640        53
47.650        53
47.660        73
47.670        93
47.680        87
47.690        40
47.700        67
47.710        73
47.720        53
47.730        67
47.740        47
47.750        53
47.760        73
47.770        53
47.780        33
47.790        67
47.800        47
47.810       100
47.820        67
47.830        40
47.840        60
47.850        27
47.860        20
47.870        53
47.880        33
47.890        73
47.900        27
47.910        33
47.920        73
47.930        27
47.940        80
47.950        53
47.960        53
47.970        33
47.980        47
47.990        60
48.000        53
48.010        40
48.020        27
48.030        20
48.040        33
48.050        47
48.060        40
48.070        20
48.080        47
48.090        67
48.100        67
48.110        33
48.120        33
48.130        27
48.140        33
48.150        13
48.160        53
48.170        47
48.180        33
48.190        53
48.200        47
48.210        53
48.220        53
48.230        20
48.240        13
48.250        47
48.260        47
48.270        53
48.280        47
48.290        40
48.300        27
48.310        27
48.320        47
48.330        27
48.340        40
48.350        33
48.360        27
48.370        33
48.380        47
48.390        67
48.400        27
48.410        33
48.420        67
48.430        47
48.440        27
48.450        53
48.460        27
48.470        67
48.480        47
48.490        47
48.500        47
48.510        73
48.520        20
48.530        27
48.540        13
48.550        20
48.560        27
48.570        20
48.580        33
48.590        47
48.600        13
48.610        27
48.620        27
48.630         7
48.640        13
48.650        47
48.660        53
48.670        27
48.680        40
48.690        27
48.700        33
48.710        33
48.720        33
48.730        33
48.740        33
48.750        47
48.760         7
48.770        40
48.780        20
48.790        13
48.800        13
48.810        27
48.820        33
48.830         7
48.840        40
48.850        40
48.860        27
48.870        33
48.880        20
48.890        33
48.900        20
48.910        27
48.920        33
48.930        33
48.940        27
48.950        40
48.960         7
48.970        47
48.980        47
48.990        27
49.000        73
49.010        27
49.020        53
49.030        27
49.040        20
49.050         7
49.060        20
49.070         0
49.080        47
49.090        40
49.100        33
49.110        40
49.120        20
49.130        33
49.140        20
49.150        20
49.160        20
49.170        33
49.180        40
49.190        20
49.200        40
49.210        40
49.220        53
49.230        53
49.240        47
49.250        53
49.260        40
49.270        27
49.280        20
49.290        20
49.300        40
49.310        47
49.320        47
49.330        20
49.340        40
49.350        67
49.360        13
49.370        47
49.380        20
49.390        20
49.400        33
49.410        27
49.420        27
49.430        60
49.440        20
49.450        13
49.460        13
49.470        20
49.480        27
49.490        27
49.500        13
49.510        33
49.520        33
49.530        27
49.540        20
49.550        33
49.560        33
49.570        27
49.580        13
49.590         7
49.600        40
49.610        33
49.620        20
49.630        33
49.640        20
49.650        13
49.660        20
49.670        20
49.680        13
49.690         7
49.700        33
49.710        33
49.720        33
49.730        47
49.740        40
49.750        20
49.760        13
49.770        27
49.780        47
49.790        27
49.800        13
49.810         7
49.820        33
49.830        20
49.840        33
49.850        40
49.860         0
49.870        27
49.880        40
49.890        47
49.900        40
49.910        40
49.920        40
49.930        40
49.940        13
49.950        27
49.960        27
49.970        40
49.980        33
49.990        47
50.000        13
50.010        27
50.020        40
50.030         0
50.040        20
50.050        33
50.060        60
50.070         7
50.080        20
50.090        33
50.100        20
50.110        20
50.120        13
50.130        20
50.140        27
50.150        20
50.160        40
50.170        20
50.180        13
50.190        13
50.200         7
50.210        13
50.220        13
50.230        20
50.240        27
50.250        33
50.260        27
50.270        33
50.280        13
50.290        33
50.300        33
50.310        13
50.320        13
50.330        40
50.340        20
50.350        33
50.360        40
50.370        20
50.380        33
50.390        20
50.400        20
50.410        33
50.420        27
50.430        13
50.440        20
50.450        33
50.460         7
50.470        27
50.480        20
50.490        13
50.500        20
50.510         7
50.520        20
50.530        13
50.540        40
50.550        20
50.560        33
50.570         7
50.580        33
50.590        20
50.600         7
50.610        13
50.620        47
50.630        20
50.640        27
50.650        13
50.660        20
50.670        13
50.680        27
50.690         7
50.700        13
50.710        53
50.720         7
50.730         0
50.740        20
50.750        20
50.760        27
50.770        20
50.780        20
50.790        27
50.800         7
50.810        20
50.820        27
50.830        13
50.840        33
50.850        33
50.860        13
50.870        20
50.880        33
50.890        13
50.900        33
50.910        53
50.920        47
50.930        13
50.940        40
50.950        13
50.960         7
50.970        40
50.980        33
50.990         7
51.000        47
51.010        40
51.020        20
51.030        27
51.040        27
51.050        20
51.060        67
51.070        13
51.080        27
51.090        27
51.100        33
51.110        27
51.120        20
51.130        13
51.140         0
51.150        20
51.160        13
51.170         7
51.180        20
51.190        27
51.200        13
51.210        40
51.220        13
51.230         7
51.240         0
51.250         7
51.260        33
51.270        13
51.280        40
51.290        27
51.300        33
51.310        53
51.320        13
51.330        47
51.340         7
51.350        33
51.360        27
51.370        27
51.380        20
51.390         7
51.400         7
51.410        33
51.420        20
51.430        20
51.440        33
51.450        47
51.460        27
51.470        27
51.480        47
51.490        33
51.500        13
51.510        13
51.520        27
51.530        33
51.540        33
51.550        40
51.560        53
51.570        20
51.580        20
51.590        33
51.600        13
51.610        13
51.620        40
51.630        13
51.640        33
51.650         7
51.660        27
51.670        40
51.680         0
51.690        20
51.700        20
51.710         7
51.720        27
51.730        20
51.740        33
51.750         7
51.760        27
51.770        27
51.780        20
51.790        13
51.800         7
51.810         0
51.820        20
51.830        13
51.840        20
51.850         7
51.860        47
51.870         7
51.880        13
51.890        20
51.900        13
51.910        27
51.920        27
51.930        53
51.940        20
51.950        60
51.960        13
51.970         0
51.980        20
51.990         7
52.000        27
52.010        20
52.020        13
52.030         0
52.040        13
52.050        33
52.060         7
52.070        33
52.080        40
52.090         7
52.100        33
52.110        40
52.120        20
52.130        27
52.140        20
52.150        20
52.160        27
52.170        20
52.180        13
52.190        13
52.200        27
52.210        40
52.220        33
52.230         7
52.240        13
52.250        13
52.260        20
52.270        40
52.280        20
52.290        20
52.300        20
52.310        33
52.320        33
52.330        27
52.340        27
52.350        13
52.360        27
52.370        27
52.380        33
52.390        27
52.400        20
52.410        27
52.420        40
52.430        47
52.440        20
52.450        47
52.460        13
52.470        53
52.480        33
52.490        20
52.500        40
52.510        20
52.520        87
52.530        73
52.540       120
52.550       200
52.560       167
52.570       193
52.580       193
52.590       187
52.600       253
52.610       107
52.620       167
52.630       107
52.640        33
52.650        80
52.660        80
52.670        47
52.680        60
52.690        60
52.700        60
52.710       113
52.720       113
52.730       173
52.740        87
52.750        87
52.760        87
52.770       100
52.780        60
52.790        27
52.800        53
52.810         7
52.820         7
52.830        13
52.840        27
52.850         7
52.860        20
52.870        40
52.880         7
52.890         7
52.900        27
52.910        33
52.920        27
52.930        20
52.940        13
52.950        27
52.960        13
52.970        20
52.980        13
52.990        13
53.000        33
53.010        27
53.020        20
53.030         7
53.040        13
53.050         0
53.060         7
53.070         7
53.080        40
53.090         7
53.100        27
53.110        20
53.120        20
53.130        20
53.140        20
53.150        20
53.160         7
53.170         0
53.180        27
53.190        20
53.200        27
53.210         0
53.220        27
53.230        47
53.240         7
53.250        20
53.260        20
53.270        33
53.280        20
53.290        13
53.300        67
53.310        13
53.320        33
53.330        13
53.340        13
53.350        27
53.360         0
53.370         7
53.380        20
53.390         7
53.400         7
53.410        20
53.420         0
53.430        47
53.440        13
53.450        20
53.460        27
53.470         7
53.480        13
53.490        27
53.500         0
53.510        27
53.520        33
53.530         7
53.540        20
53.550        13
53.560         7
53.570        53
53.580        27
53.590        27
53.600        40
53.610        27
53.620        20
53.630        13
53.640        13
53.650        13
53.660        60
53.670        20
53.680        13
53.690         7
53.700        40
53.710        27
53.720        53
53.730        27
53.740        13
53.750        20
53.760        40
53.770        13
53.780        27
53.790        20
53.800        13
53.810        20
53.820         7
53.830        13
53.840        20
53.850         0
53.860         0
53.870        33
53.880        20
53.890        20
53.900         0
53.910        20
53.920         7
53.930        13
53.940        20
53.950        20
53.960        27
53.970        13
53.980         7
53.990        33
54.000        53
54.010        20
54.020         7
54.030        20
54.040        20
54.050        53
54.060        13
54.070        13
54.080        33
54.090        27
54.100         7
54.110        20
54.120        20
54.130        13
54.140        20
54.150        27
54.160        13
54.170        20
54.180        20
54.190        20
54.200        27
54.210        20
54.220        33
54.230        20
54.240        13
54.250        27
54.260         7
54.270        13
54.280        27
54.290        40
54.300        27
54.310        20
54.320         7
54.330        40
54.340         7
54.350         7
54.360        20
54.370        27
54.380        13
54.390        33
54.400        13
54.410        20
54.420         0
54.430        33
54.440        27
54.450        13
54.460        27
54.470         7
54.480        13
54.490        40
54.500        27
54.510        13
54.520        13
54.530         7
54.540         7
54.550        13
54.560        27
54.570        27
54.580        20
54.590        13
54.600        33
54.610        13
54.620        27
54.630         0
54.640         0
54.650        13
54.660         7
54.670        27
54.680         7
54.690        27
54.700        40
54.710        33
54.720        40
54.730         7
54.740        20
54.750        13
54.760         7
54.770        13
54.780        27
54.790        13
54.800        20
54.810        13
54.820        13
54.830        20
54.840        33
54.850        13
54.860        20
54.870        20
54.880        33
54.890        13
54.900        27
54.910        13
54.920        13
54.930        13
54.940         0
54.950        40
54.960         0
54.970        20
54.980         7
54.990        13
55.000        27
55.010         0
55.020        13
55.030        13
55.040        13
55.050        20
55.060        20
55.070        13
55.080        13
55.090        13
55.100        20
55.110        27
55.120        20
55.130        33
55.140        20
55.150         7
55.160        13
55.170        20
55.180        27
55.190        13
55.200        13
55.210         7
55.220        20
55.230        27
55.240        40
55.250        20
55.260        13
55.270        13
55.280         0
55.290        40
55.300        20
55.310        40
55.320        20
55.330         7
55.340        13
55.350         0
55.360        20
55.370        13
55.380        13
55.390        27
55.400        33
55.410        13
55.420        13
55.430        20
55.440         0
55.450        33
55.460        53
55.470         0
55.480        13
55.490         0
55.500        20
55.510         7
55.520        33
55.530        20
55.540        27
55.550        13
55.560        13
55.570        20
55.580        40
55.590        20
55.600        33
55.610        27
55.620        20
55.630        13
55.640        20
55.650         0
55.660        20
55.670        27
55.680        27
55.690         7
55.700        13
55.710        33
55.720        20
55.730        27
55.740         7
55.750        27
55.760        33
55.770        20
55.780        20
55.790        13
55.800        13
55.810        27
55.820        20
55.830        20
55.840         7
55.850        13
55.860        20
55.870        27
55.880        40
55.890        20
55.900        33
55.910        20
55.920        20
55.930        13
55.940         0
55.950        27
55.960        20
55.970         7
55.980        40
55.990        20
56.000        13
56.010        20
56.020        20
56.030        20
56.040        13
56.050        13
56.060         7
56.070        33
56.080        20
56.090        27
56.100        33
56.110        13
56.120        20
56.130        47
56.140        20
56.150        27
56.160        13
56.170         7
56.180        13
56.190        20
56.200        33
56.210        20
56.220         7
56.230         0
56.240        13
56.250        20
56.260         0
56.270        47
56.280         7
56.290        13
56.300         7
56.310        13
56.320        20
56.330        13
56.340         7
56.350         7
56.360        20
56.370        27
56.380        20
56.390        27
56.400        13
56.410        33
56.420        20
56.430         7
56.440        13
56.450        13
56.460        33
56.470        20
56.480        40
56.490        13
56.500        20
56.510        27
56.520         7
56.530        20
56.540        13
56.550         0
56.560         7
56.570        27
56.580         7
56.590        13
56.600        20
56.610         7
56.620        27
56.630        20
56.640        13
56.650        33
56.660         7
56.670        13
56.680        33
56.690        33
56.700        33
56.710        27
56.720        27
56.730         0
56.740        33
56.750        20
56.760        27
56.770        20
56.780        40
56.790         7
56.800        13
56.810        13
56.820         0
56.830        13
56.840        13
56.850         7
56.860        27
56.870         7
56.880        20
56.890         7
56.900         0
56.910         7
56.920        20
56.930        27
56.940        20
56.950        33
56.960        47
56.970        27
56.980        20
56.990         7
57.000        20
57.010        20
57.020        13
57.030         7
57.040        13
57.050        27
57.060        27
57.070        20
57.080        20
57.090         7
57.100         7
57.110        13
57.120        13
57.130        20
57.140        20
57.150        33
57.160         7
57.170         7
57.180        47
57.190        20
57.200        20
57.210        47
57.220        33
57.230        27
57.240        47
57.250        27
57.260        33
57.270        73
57.280        20
57.290        27
57.300        67
57.310        33
57.320        33
57.330        20
57.340        27
57.350        27
57.360        40
57.370       113
57.380        73
57.390        80
57.400        93
57.410        67
57.420        53
57.430       120
57.440       113
57.450       193
57.460       233
57.470       253
57.480       446
57.490       473
57.500       613
57.510       666
57.520       726
57.530       846
57.540       706
57.550       460
57.560       640
57.570       513
57.580       420
57.590       280
57.600       287
57.610       260
57.620       133
57.630       180
57.640       247
57.650       340
57.660       320
57.670       433
57.680       387
57.690       440
57.700       333
57.710       373
57.720       233
57.730       220
57.740       187
57.750       127
57.760        87
57.770        60
57.780        60
57.790        80
57.800        53
57.810        47
57.820        47
57.830        53
57.840        33
57.850        40
57.860        40
57.870        40
57.880        13
57.890        13
57.900        53
57.910        80
57.920        20
57.930        47
57.940        20
57.950        20
57.960        20
57.970        27
57.980        33
57.990        47
58.000        13
58.010        27
58.020        20
58.030         7
58.040        27
58.050        20
58.060        27
58.070        20
58.080        13
58.090        73
58.100        27
58.110        27
58.120        33
58.130        33
58.140        47
58.150        13
58.160        20
58.170        33
58.180         7
58.190        13
58.200        27
58.210         7
58.220        33
58.230         7
58.240        13
58.250        13
58.260        27
58.270        27
58.280         0
58.290        20
58.300        33
58.310        13
58.320        20
58.330        13
58.340         7
58.350        20
58.360        13
58.370        33
58.380        20
58.390        33
58.400        13
58.410        13
58.420        13
58.430        20
58.440        13
58.450         7
58.460        27
58.470        13
58.480        40
58.490        20
58.500        40
58.510         7
58.520        20
58.530        27
58.540        13
58.550        20
58.560        27
58.570        20
58.580        13
58.590        47
58.600        20
58.610        13
58.620         0
58.630         7
58.640         7
58.650        27
58.660        33
58.670        27
58.680        13
58.690        20
58.700        13
58.710        13
58.720         7
58.730        33
58.740        40
58.750        13
58.760        20
58.770        20
58.780        20
58.790        33
58.800        20
58.810        20
58.820        33
58.830        20
58.840         7
58.850        13
58.860        13
58.870        27
58.880        13
58.890        13
58.900        20
58.910         7
58.920        27
58.930         7
58.940         7
58.950        20
58.960        13
58.970         7
58.980        13
58.990        27
59.000         7
59.010        13
59.020        20
59.030        13
59.040         7
59.050         7
59.060        13
59.070        13
59.080        13
59.090        13
59.100        20
59.110         0
59.120        20
59.130        20
59.140        13
59.150        20
59.160        13
59.170        27
59.180        33
59.190         7
59.200        27
59.210        33
59.220        13
59.230        33
59.240        20
59.250        20
59.260        13
59.270        20
59.280         0
59.290         7
59.300        13
59.310        27
59.320        27
59.330        20
59.340        20
59.350        27
59.360        13
59.370         0
59.380        33
59.390         7
59.400        27
59.410        40
59.420        13
59.430        13
59.440        53
59.450         0
59.460        20
59.470        13
59.480        20
59.490        53
59.500        20
59.510        20
59.520        13
59.530        40
59.540        20
59.550         7
59.560        13
59.570         7
59.580        27
59.590         7
59.600         7
59.610        27
59.620         0
59.630        13
59.640        27
59.650        40
59.660        27
59.670        27
59.680        13
59.690        40
59.700        27
59.710        13
59.720         7
59.730        40
59.740        13
59.750        13
59.760        40
59.770        20
59.780        13
59.790         7
59.800         0
59.810        27
59.820        27
59.830         0
59.840        33
59.850        20
59.860        20
59.870         7
59.880        13
59.890        47
59.900        40
59.910         7
59.920        33
59.930        27
59.940         7
59.950        20
59.960        13
59.970         7
59.980        13
59.990        20
60.000        20
