20.000        67
20.010        47
20.020        47
20.030        20
20.040        47
20.050        60
20.060        73
20.070        73
20.080        47
20.090        67
20.100        53
20.110        27
20.120        20
20.130        60
20.140        53
20.150        47
20.160        47
20.170        33
20.180        40
20.190        47
20.200        40
20.210        27
20.220        40
20.230        47
20.240        27
20.250        53
20.260        53
20.270        40
20.280        87
20.290        40
20.300        53
20.310        47
20.320       133
20.330        53
20.340        40
20.350        47
20.360        47
20.370        33
20.380        60
20.390        40
20.400        40
20.410        33
20.420        73
20.430        60
20.440        40
20.450        40
20.460        27
20.470        47
20.480        47
20.490        53
20.500        20
20.510        27
20.520        40
20.530        27
20.540        47
20.550        27
20.560        60
20.570        47
20.580        67
20.590        67
20.600        47
20.610        27
20.620        47
20.630        60
20.640        73
20.650        73
20.660        20
20.670        47
20.680        13
20.690        47
20.700        80
20.710        40
20.720        40
20.730        33
20.740        27
20.750        67
20.760        53
20.770        53
20.780        33
20.790        60
20.800        47
20.810        13
20.820        40
20.830        60
20.840        40
20.850        33
20.860        47
20.870        27
20.880        40
20.890        20
20.900        53
20.910        40
20.920        53
20.930        60
20.940        67
20.950        33
20.960        20
20.970        33
20.980        47
20.990        27
21.000        40
21.010        53
21.020        67
21.030        33
21.040        20
21.050        40
21.060        60
21.070        40
21.080        40
21.090        60
21.100        53
21.110        33
21.120        47
21.130        73
21.140        20
21.150        20
21.160        33
21.170        67
21.180        53
21.190        33
21.200        67
21.210        73
21.220        60
21.230        27
21.240        27
21.250        27
21.260        27
21.270        47
21.280        80
21.290        40
21.300        53
21.310        33
21.320        93
21.330        33
21.340        47
21.350        27
21.360        53
21.370        67
21.380        47
21.390        60
21.400        20
21.410        80
21.420        73
21.430        33
21.440        47
21.450        60
21.460        47
21.470        13
21.480        40
21.490        40
21.500        13
21.510        40
21.520        47
21.530        67
21.540        40
21.550        40
21.560        40
21.570        47
21.580        27
21.590        40
21.600        33
21.610        33
21.620        27
21.630        40
21.640        47
21.650        20
21.660        67
21.670        80
21.680        53
21.690        53
21.700        47
21.710        40
21.720        47
21.730        20
21.740        33
21.750        47
21.760        40
21.770        20
21.780        20
21.790        33
21.800        33
21.810        47
21.820        47
21.830        80
21.840        47
21.850        33
21.860        47
21.870        33
21.880        20
21.890        53
21.900        53
21.910        47
21.920        47
21.930        33
21.940        73
21.950        53
21.960        40
21.970        40
21.980        20
21.990        40
22.000        33
22.010        33
22.020         7
22.030        47
22.040        67
22.050        33
22.060        13
22.070        40
22.080        27
22.090        27
22.100        53
22.110        40
22.120        53
22.130        47
22.140        40
22.150        20
22.160        60
22.170        47
22.180        73
22.190        33
22.200        33
22.210        27
22.220        20
22.230        60
22.240        47
22.250         7
22.260        47
22.270        40
22.280        40
22.290        33
22.300        53
22.310        33
22.320        27
22.330        27
22.340        53
22.350        67
22.360        47
22.370        47
22.380        60
22.390        33
22.400        53
22.410        27
22.420        60
22.430        60
22.440        53
22.450        67
22.460        67
22.470        20
22.480        47
22.490        53
22.500        47
22.510        27
22.520        60
22.530        60
22.540        53
22.550        40
22.560        40
22.570        33
22.580        33
22.590        40
22.600        67
22.610        53
22.620        67
22.630        73
22.640        53
22.650        27
22.660        40
22.670        87
22.680        47
22.690        53
22.700        47
22.710        40
22.720        53
22.730        27
22.740        33
22.750        80
22.760        67
22.770        67
22.780        80
22.790        20
22.800        53
22.810        27
22.820        93
22.830        67
22.840        40
22.850        27
22.860        47
22.870        20
22.880        60
22.890        40
22.900        47
22.910        33
22.920        47
22.930        27
22.940        47
22.950        33
22.960        73
22.970        40
22.980        27
22.990        40
23.000        40
23.010        60
23.020        47
23.030        53
23.040        47
23.050        20
23.060        27
23.070        87
23.080        47
23.090        60
23.100        60
23.110        40
23.120        47
23.130        60
23.140        13
23.150        33
23.160        40
23.170        33
23.180        40
23.190        60
23.200        13
23.210        53
23.220        27
23.230        67
23.240        33
23.250        60
23.260        27
23.270        60
23.280        73
23.290        80
23.300        60
23.310        33
23.320        27
23.330        67
23.340        27
23.350        33
23.360        47
23.370        40
23.380        33
23.390        47
23.400        47
23.410        67
23.420        27
23.430        47
23.440        33
23.450        33
23.460        67
23.470        33
23.480        33
23.490        67
23.500        27
23.510        33
23.520        47
23.530        53
23.540        33
23.550        13
23.560        73
23.570        33
23.580        33
23.590        33
23.600        40
23.610        33
23.620        33
23.630        33
23.640        27
23.650        53
23.660        67
23.670        33
23.680        27
23.690        27
23.700        20
23.710        33
23.720        33
23.730        33
23.740        60
23.750        20
23.760        33
23.770         0
23.780        47
23.790        33
23.800        53
23.810        13
23.820        40
23.830        27
23.840        47
23.850        53
23.860        60
23.870        20
23.880        47
23.890        27
23.900        33
23.910        33
23.920        40
23.930        13
23.940        20
23.950        27
23.960        20
23.970        47
23.980        73
23.990        27
24.000        13
24.010        53
24.020         7
24.030        33
24.040        47
24.050        40
24.060        33
24.070        67
24.080        40
24.090        33
24.100         7
24.110        33
24.120        27
24.130        40
24.140        27
24.150        27
24.160         7
24.170         7
24.180        47
24.190        60
24.200        47
24.210        33
24.220        73
24.230        13
24.240        47
24.250        20
24.260        27
24.270        47
24.280        27
24.290        27
24.300        53
24.310        60
24.320        67
24.330        20
24.340        67
24.350        33
24.360        20
24.370        40
24.380        20
24.390        60
24.400        13
24.410        40
24.420        27
24.430        33
24.440        40
24.450        27
24.460        40
24.470        33
24.480        33
24.490        40
24.500        67
24.510        27
24.520        33
24.530         7
24.540        53
24.550        20
24.560        27
24.570        47
24.580        47
24.590        73
24.600        47
24.610        73
24.620        40
24.630        33
24.640        20
24.650        33
24.660        40
24.670         0
24.680        27
24.690        13
24.700        33
24.710        60
24.720        47
24.730        40
24.740        20
24.750        33
24.760        40
24.770        33
24.780        47
24.790        33
24.800        47
24.810        53
24.820        20
24.830        27
24.840        47
24.850        60
24.860        53
24.870        47
24.880        53
24.890        40
24.900        13
24.910        20
24.920        40
24.930        33
24.940        13
24.950        13
24.960        33
24.970        33
24.980        33
24.990        20
25.000        60
25.010        27
25.020        40
25.030        33
25.040        40
25.050        20
25.060        20
25.070        53
25.080        40
25.090        27
25.100        53
25.110        53
25.120        20
25.130        27
25.140        60
25.150        47
25.160        87
25.170        27
25.180        60
25.190        73
25.200        27
25.210        73
25.220        47
25.230        40
25.240        47
25.250        47
25.260        53
25.270        47
25.280        47
25.290        40
25.300        47
25.310        47
25.320        40
25.330        60
25.340        33
25.350        60
25.360        27
25.370        40
25.380        67
25.390       133
25.400        67
25.410        60
25.420        60
25.430        60
25.440        33
25.450        80
25.460       100
25.470        93
25.480        53
25.490        73
25.500        60
25.510        93
25.520       100
25.530        47
25.540        40
25.550        73
25.560       180
25.570       120
25.580       127
25.590       140
25.600       160
25.610       100
25.620       100
25.630        80
25.640       120
25.650       107
25.660        80
25.670        73
25.680        87
25.690        60
25.700        80
25.710        67
25.720        40
25.730        20
25.740        47
25.750        20
25.760        33
25.770        60
25.780        20
25.790        33
25.800        33
25.810        40
25.820        47
25.830        20
25.840        20
25.850        47
25.860        40
25.870        47
25.880        13
25.890        33
25.900        27
25.910        13
25.920        33
25.930        47
25.940        40
25.950        27
25.960        47
25.970        27
25.980        53
25.990        47
26.000        47
26.010        33
26.020        33
26.030        27
26.040        53
26.050        60
26.060        47
26.070        20
26.080        33
26.090        27
26.100        33
26.110        13
26.120        40
26.130        53
26.140        40
26.150        13
26.160        20
26.170        73
26.180        20
26.190        67
26.200        87
26.210        53
26.220        20
26.230        20
26.240        33
26.250        40
26.260        33
26.270        53
26.280        40
26.290        27
26.300        40
26.310        33
26.320        33
26.330        53
26.340        73
26.350        40
26.360        40
26.370        60
26.380        60
26.390        33
26.400        27
26.410        27
26.420        33
26.430        27
26.440        33
26.450        40
26.460        47
26.470        13
26.480        40
26.490        53
26.500        33
26.510        27
26.520        13
26.530        40
26.540        33
26.550        60
26.560        20
26.570        27
26.580        33
26.590        47
26.600        47
26.610        80
26.620        47
26.630        33
26.640        20
26.650        33
26.660        27
26.670        13
26.680        53
26.690        20
26.700        40
26.710        13
26.720        47
26.730        27
26.740        27
26.750        73
26.760        47
26.770        33
26.780        13
26.790        27
26.800        20
26.810        20
26.820        60
26.830        27
26.840        40
26.850        20
26.860        20
26.870        53
26.880        20
26.890        20
26.900        40
26.910        20
26.920        33
26.930        33
26.940        33
26.950        47
26.960        13
26.970        53
26.980        53
26.990        20
27.000        33
27.010        40
27.020         7
27.030        47
27.040        33
27.050        13
27.060        47
27.070        53
27.080         7
27.090        13
27.100        47
27.110        40
27.120        27
27.130        27
27.140        13
27.150        27
27.160        13
27.170        53
27.180        33
27.190        47
27.200         7
27.210        13
27.220        33
27.230        20
27.240        40
27.250         7
27.260        27
27.270        13
27.280        40
27.290        20
27.300        40
27.310        33
27.320        13
27.330        47
27.340        20
27.350        33
27.360        20
27.370        20
27.380        40
27.390        53
27.400        60
27.410        27
27.420        20
27.430        33
27.440        20
27.450        13
27.460        33
27.470        80
27.480        60
27.490        40
27.500        33
27.510        33
27.520        67
27.530        47
27.540        13
27.550        27
27.560        53
27.570        27
27.580        20
27.590        20
27.600        67
27.610        27
27.620        40
27.630        40
27.640        27
27.650        27
27.660        40
27.670        47
27.680        20
27.690        47
27.700        40
27.710        40
27.720        40
27.730        47
27.740        47
27.750        47
27.760        13
27.770        53
27.780        20
27.790        33
27.800        20
27.810        47
27.820        53
27.830        13
27.840        33
27.850        40
27.860         0
27.870        53
27.880        67
27.890        20
27.900        20
27.910        20
27.920        33
27.930        20
27.940        33
27.950        47
27.960        53
27.970        60
27.980        27
27.990        40
28.000        47
28.010        47
28.020        20
28.030        13
28.040        53
28.050        40
28.060        27
28.070        20
28.080        20
28.090        33
28.100        20
28.110        20
28.120        27
28.130        27
28.140        40
28.150        40
28.160        73
28.170        27
28.180        13
28.190        33
28.200        67
28.210        53
28.220        40
28.230        20
28.240        40
28.250        40
28.260        13
28.270        40
28.280        33
28.290        20
28.300        40
28.310        40
28.320        27
28.330        40
28.340        27
28.350        27
28.360        53
28.370        13
28.380        27
28.390         7
28.400        27
28.410        33
28.420        33
28.430        20
28.440        27
28.450        13
28.460        27
28.470        20
28.480        20
28.490        53
28.500        47
28.510        20
28.520        47
28.530        47
28.540        20
28.550        47
28.560        27
28.570        13
28.580        47
28.590        20
28.600        60
28.610        47
28.620        40
28.630        47
28.640        60
28.650         7
28.660        27
28.670        27
28.680        20
28.690        40
28.700        27
28.710        53
28.720         0
28.730        33
28.740        33
28.750        27
28.760        53
28.770        67
28.780        40
28.790        33
28.800        47
28.810        13
28.820        13
28.830        40
28.840        40
28.850        20
28.860        27
28.870        27
28.880        33
28.890        40
28.900        27
28.910        33
28.920        13
28.930        13
28.940        27
28.950        20
28.960        33
28.970        67
28.980        33
28.990        27
29.000        20
29.010        27
29.020        27
29.030        33
29.040        13
29.050        33
29.060        33
29.070        27
29.080        27
29.090        27
29.100        27
29.110        13
29.120        27
29.130        60
29.140        13
29.150        27
29.160        40
29.170        20
29.180        27
29.190        33
29.200        33
29.210        53
29.220        27
29.230        40
29.240        47
29.250        40
29.260        33
29.270        27
29.280        27
29.290        47
29.300        27
29.310        27
29.320        47
29.330        47
29.340        40
29.350        27
29.360        40
29.370        20
29.380        33
29.390        20
29.400        33
29.410        33
29.420        20
29.430        20
29.440        67
29.450         7
29.460         7
29.470        40
29.480        27
29.490        13
29.500        33
29.510        27
29.520        20
29.530        27
29.540        33
29.550        20
29.560        33
29.570        27
29.580        27
29.590        40
29.600        27
29.610        13
29.620        13
29.630        33
29.640        53
29.650        33
29.660        13
29.670        33
29.680        67
29.690         7
29.700        20
29.710        20
29.720        13
29.730        20
29.740        60
29.750        33
29.760        40
29.770        47
29.780        47
29.790        20
29.800        33
29.810        27
29.820        13
29.830        27
29.840        53
29.850        47
29.860        40
29.870        20
29.880        40
29.890        20
29.900         7
29.910        13
29.920        73
29.930        27
29.940        27
29.950        27
29.960        33
29.970        27
29.980        13
29.990        33
30.000        47
30.010        27
30.020        27
30.030        27
30.040        20
30.050        40
30.060        33
30.070        27
30.080        33
30.090        53
30.100         7
30.110        27
30.120        20
30.130        27
30.140        13
30.150        13
30.160        20
30.170         7
30.180        47
30.190        53
30.200        13
30.210        40
30.220        13
30.230        40
30.240        27
30.250        20
30.260        53
30.270        33
30.280        20
30.290        20
30.300        20
30.310        33
30.320        53
30.330        33
30.340        20
30.350         7
30.360        33
30.370        40
30.380        27
30.390        13
30.400        13
30.410        13
30.420        33
30.430        40
30.440        20
30.450        27
30.460        20
30.470        13
30.480        47
30.490         0
30.500        20
30.510        20
30.520        20
30.530        60
30.540        27
30.550        20
30.560        33
30.570        13
30.580        53
30.590        27
30.600        27
30.610        47
30.620        13
30.630        27
30.640        40
30.650        47
30.660        13
30.670        27
30.680        47
30.690        47
30.700        47
30.710        27
30.720        20
30.730        40
30.740        20
30.750        73
30.760        33
30.770         0
30.780        33
30.790        20
30.800        13
30.810        60
30.820        27
30.830        33
30.840        33
30.850        27
30.860        20
30.870        33
30.880        47
30.890         0
30.900        40
30.910        33
30.920        53
30.930        13
30.940        27
30.950        13
30.960        47
30.970        27
30.980        27
30.990        20
31.000        13
31.010        33
31.020        40
31.030        27
31.040        33
31.050         7
31.060        47
31.070        73
31.080        40
31.090        47
31.100        67
31.110        27
31.120        33
31.130        40
31.140        60
31.150        67
31.160        47
31.170        33
31.180        53
31.190         7
31.200        53
31.210        27
31.220        40
31.230        47
31.240        73
31.250        20
31.260        60
31.270        13
31.280        53
31.290        27
31.300        47
31.310        60
31.320        33
31.330        27
31.340        47
31.350        87
31.360        27
31.370        33
31.380        40
31.390        33
31.400        27
31.410        67
31.420        67
31.430        53
31.440        33
31.450        47
31.460        33
31.470        67
31.480        47
31.490        33
31.500        40
31.510        80
31.520        13
31.530        53
31.540        40
31.550        60
31.560        40
31.570        27
31.580        47
31.590        33
31.600        47
31.610        53
31.620        47
31.630        67
31.640        60
31.650        80
31.660        47
31.670        33
31.680        47
31.690        53
31.700        40
31.710        53
31.720        80
31.730         7
31.740        20
31.750        33
31.760        47
31.770        80
31.780        20
31.790        73
31.800        60
31.810        40
31.820        27
31.830        33
31.840        47
31.850        60
31.860        80
31.870        47
31.880        40
31.890        40
31.900        47
31.910        87
31.920       127
31.930       127
31.940        53
31.950        53
31.960        60
31.970        87
31.980        73
31.990       100
32.000        80
32.010       100
32.020        87
32.030       107
32.040       113
32.050       120
32.060        93
32.070       147
32.080       127
32.090       153
32.100       153
32.110        73
32.120       153
32.130       187
32.140        87
32.150       153
32.160       227
32.170       113
32.180       167
32.190       200
32.200       187
32.210       153
32.220       200
32.230       133
32.240       207
32.250       200
32.260       193
32.270       253
32.280       200
32.290       227
32.300       207
32.310       193
32.320       220
32.330       160
32.340       180
32.350       240
32.360       200
32.370       147
32.380       147
32.390       213
32.400       153
32.410       107
32.420       127
32.430        93
32.440       113
32.450       127
32.460        80
32.470       107
32.480        80
32.490        87
32.500        47
32.510        73
32.520        67
32.530        47
32.540        87
32.550       100
32.560        80
32.570        53
32.580        87
32.590        47
32.600        73
32.610        73
32.620        67
32.630        80
32.640        47
32.650        47
32.660        40
32.670        67
32.680        53
32.690        47
32.700        53
32.710        60
32.720        27
32.730        40
32.740        27
32.750        27
32.760        53
32.770        53
32.780        47
32.790        47
32.800        53
32.810        67
32.820        47
32.830        40
32.840        47
32.850        40
32.860        33
32.870        33
32.880        47
32.890        40
32.900        47
32.910        33
32.920        40
32.930        20
32.940        27
32.950        20
32.960        53
32.970        27
32.980        27
32.990        53
33.000        53
33.010        53
33.020        40
33.030        33
33.040        27
33.050        47
33.060        60
33.070        20
33.080        53
33.090        47
33.100        40
33.110        67
33.120        47
33.130        27
33.140        40
33.150        20
33.160        67
33.170        53
33.180        27
33.190        60
33.200        13
33.210        40
33.220        27
33.230        53
33.240        33
33.250        13
33.260        27
33.270        33
33.280        47
33.290        53
33.300        33
33.310        13
33.320        20
33.330        13
33.340        73
33.350        20
33.360        47
33.370         7
33.380        20
33.390        27
33.400        27
33.410        20
33.420        27
33.430        47
33.440        20
33.450        27
33.460        27
33.470         7
33.480        33
33.490        20
33.500        20
33.510        20
33.520        40
33.530        20
33.540        40
33.550        27
33.560        33
33.570        13
33.580        33
33.590         0
33.600        20
33.610        47
33.620        13
33.630        33
33.640        33
33.650        27
33.660        53
33.670         7
33.680        13
33.690        20
33.700         0
33.710        27
33.720        33
33.730        33
33.740        40
33.750        13
33.760        40
33.770        40
33.780        33
33.790        20
33.800        40
33.810        33
33.820        27
33.830        20
33.840        27
33.850        40
33.860        27
33.870        13
33.880        33
33.890        40
33.900        27
33.910        20
33.920         7
33.930        47
33.940        33
33.950        13
33.960        27
33.970        13
33.980        40
33.990        20
34.000        40
34.010        47
34.020        27
34.030        40
34.040        47
34.050        33
34.060        33
34.070        40
34.080        33
34.090        27
34.100        13
34.110        47
34.120        27
34.130        53
34.140        47
34.150        20
34.160        20
34.170        20
34.180        20
34.190        20
34.200        47
34.210        40
34.220        53
34.230        47
34.240        40
34.250        20
34.260        13
34.270        27
34.280        33
34.290        20
34.300        20
34.310        53
34.320        13
34.330        13
34.340         7
34.350        33
34.360        13
34.370        20
34.380        33
34.390        53
34.400        27
34.410        27
34.420        40
34.430        13
34.440        33
34.450        67
34.460        33
34.470        13
34.480        13
34.490        27
34.500        13
34.510        27
34.520        13
34.530        40
34.540        27
34.550        40
34.560        27
34.570        47
34.580        13
34.590        33
34.600        13
34.610        40
34.620        33
34.630        20
34.640        27
34.650        27
34.660        33
34.670        20
34.680        33
34.690        20
34.700        33
34.710        13
34.720        40
34.730        27
34.740        33
34.750        27
34.760        13
34.770        13
34.780        33
34.790        73
34.800        20
34.810         7
34.820        73
34.830        33
34.840        53
34.850        33
34.860         7
34.870        47
34.880        33
34.890        60
34.900        40
34.910        53
34.920        60
34.930        93
34.940        53
34.950       100
34.960        40
34.970        87
34.980        40
34.990        93
35.000        60
35.010       100
35.020        87
35.030        87
35.040       140
35.050       133
35.060       180
35.070       153
35.080       187
35.090       127
35.100       180
35.110       240
35.120       260
35.130       313
35.140       533
35.150       573
35.160       620
35.170       746
35.180       513
35.190       540
35.200       426
35.210       506
35.220       360
35.230       300
35.240       340
35.250       313
35.260       313
35.270       247
35.280       260
35.290       227
35.300       187
35.310       147
35.320       140
35.330        80
35.340        47
35.350        87
35.360        47
35.370        47
35.380        47
35.390        33
35.400        73
35.410        40
35.420        13
35.430        80
35.440        20
35.450        33
35.460        47
35.470        27
35.480        47
35.490        33
35.500        27
35.510        27
35.520        13
35.530        13
35.540        53
35.550        27
35.560        27
35.570        20
35.580        33
35.590        40
35.600        33
35.610        33
35.620        33
35.630        13
35.640        20
35.650        47
35.660        27
35.670        33
35.680        40
35.690        13
35.700        33
35.710        27
35.720        40
35.730        27
35.740        27
35.750        20
35.760        47
35.770        47
35.780        20
35.790         7
35.800        20
35.810        13
35.820        13
35.830        27
35.840        20
35.850        27
35.860         0
35.870        20
35.880        20
35.890        20
35.900        80
35.910        20
35.920        20
35.930        47
35.940         7
35.950        20
35.960        40
35.970        20
35.980        13
35.990         0
36.000        33
36.010        13
36.020        27
36.030        20
36.040        33
36.050        27
36.060        20
36.070        13
36.080        13
36.090        20
36.100        40
36.110        13
36.120        13
36.130        20
36.140        13
36.150         7
36.160        27
36.170         7
36.180        20
36.190        27
36.200        20
36.210        53
36.220        33
36.230        33
36.240        40
36.250         7
36.260        47
36.270        40
36.280        13
36.290         0
36.300         7
36.310        27
36.320        20
36.330        40
36.340        40
36.350        20
36.360        53
36.370        40
36.380        27
36.390        33
36.400        33
36.410        27
36.420        13
36.430        27
36.440        27
36.450        33
36.460        13
36.470        13
36.480        13
36.490        20
36.500        20
36.510        47
36.520        33
36.530        20
36.540        27
36.550        40
36.560        13
36.570        20
36.580        27
36.590        33
36.600        33
36.610        13
36.620        27
36.630        33
36.640         7
36.650        20
36.660         7
36.670        40
36.680        13
36.690        20
36.700        47
36.710        40
36.720        33
36.730        33
36.740        53
36.750        20
36.760        13
36.770         7
36.780        33
36.790        13
36.800        20
36.810        47
36.820        33
36.830        40
36.840        33
36.850        47
36.860        27
36.870        40
36.880        13
36.890        40
36.900        20
36.910        13
36.920        40
36.930        53
36.940        20
36.950        27
36.960        40
36.970        13
36.980        27
36.990        13
37.000        53
37.010        53
37.020        33
37.030        20
37.040        27
37.050        47
37.060        20
37.070        33
37.080        27
37.090        27
37.100        13
37.110        27
37.120         7
37.130        20
37.140        33
37.150        53
37.160        13
37.170        27
37.180        20
37.190        20
37.200        33
37.210         7
37.220         7
37.230        13
37.240        20
37.250        13
37.260        60
37.270         7
37.280        20
37.290        20
37.300        13
37.310        13
37.320         0
37.330        27
37.340        13
37.350        20
37.360        13
37.370         7
37.380        27
37.390        27
37.400        27
37.410        20
37.420        33
37.430        33
37.440        27
37.450        47
37.460        20
37.470        33
37.480        13
37.490        13
37.500        20
37.510        13
37.520        27
37.530        27
37.540        40
37.550        20
37.560        20
37.570        20
37.580        20
37.590        27
37.600        13
37.610        27
37.620        27
37.630        13
37.640        27
37.650        47
37.660        47
37.670         7
37.680        53
37.690        47
37.700        47
37.710        27
37.720        27
37.730        40
37.740        80
37.750       120
37.760        93
37.770       100
37.780        67
37.790       127
37.800        87
37.810        53
37.820        80
37.830        67
37.840        73
37.850        87
37.860        60
37.870        73
37.880       100
37.890        33
37.900        60
37.910        53
37.920        60
37.930        60
37.940        67
37.950        33
37.960        27
37.970        27
37.980        33
37.990         7
38.000        13
38.010        27
38.020        33
38.030        33
38.040         7
38.050        13
38.060         7
38.070        33
38.080        40
38.090         7
38.100        33
38.110        20
38.120        53
38.130        40
38.140        13
38.150        13
38.160        20
38.170        33
38.180        27
38.190        20
38.200        13
38.210        13
38.220         7
38.230        27
38.240        20
38.250        13
38.260        13
38.270        27
38.280        33
38.290        33
38.300        20
38.310        20
38.320        27
38.330         0
38.340        13
38.350        20
38.360        13
38.370        40
38.380        27
38.390        20
38.400        20
38.410        20
38.420        47
38.430        27
38.440        20
38.450        33
38.460        20
38.470        27
38.480        27
38.490        27
38.500        27
38.510        20
38.520         7
38.530        27
38.540         7
38.550        33
38.560        27
38.570        40
38.580        33
38.590        20
38.600        20
38.610        20
38.620        47
38.630        13
38.640         0
38.650        13
38.660        27
38.670        33
38.680        20
38.690        13
38.700        20
38.710        13
38.720         7
38.730        13
38.740        20
38.750         7
38.760        13
38.770        20
38.780        33
38.790        33
38.800        27
38.810        33
38.820        20
38.830        13
38.840        47
38.850        13
38.860        27
38.870         0
38.880        20
38.890        20
38.900        27
38.910        40
38.920        20
38.930         7
38.940        33
38.950        20
38.960        33
38.970        13
38.980        20
38.990        27
39.000         7
39.010         7
39.020        40
39.030         7
39.040        20
39.050        20
39.060        27
39.070        20
39.080        27
39.090        13
39.100        33
39.110        13
39.120        33
39.130        13
39.140        13
39.150        27
39.160        20
39.170        13
39.180        27
39.190        33
39.200        47
39.210        27
39.220        13
39.230        20
39.240        20
39.250        20
39.260        47
39.270        20
39.280        27
39.290        20
39.300        33
39.310        40
39.320         7
39.330        20
39.340         7
39.350        20
39.360        33
39.370        20
39.380        13
39.390        53
39.400         7
39.410        20
39.420        20
39.430        13
39.440         7
39.450        33
39.460        13
39.470         7
39.480        20
39.490        33
39.500        20
39.510        40
39.520        13
39.530        13
39.540        27
39.550        20
39.560         7
39.570        20
39.580         7
39.590        40
39.600        67
39.610        27
39.620        13
39.630        27
39.640        20
39.650        67
39.660        27
39.670        40
39.680        47
39.690        53
39.700        27
39.710        87
39.720        40
39.730        40
39.740        53
39.750        27
39.760        40
39.770        87
39.780        53
39.790        53
39.800        47
39.810        47
39.820        67
39.830       107
39.840        53
39.850        80
39.860        40
39.870        60
39.880        60
39.890        73
39.900        67
39.910        53
39.920        67
39.930        67
39.940        47
39.950        67
39.960        33
39.970        33
39.980        47
39.990        27
40.000        47
40.010        20
40.020        20
40.030         7
40.040        47
40.050        40
40.060        40
40.070        27
40.080        27
40.090        33
40.100        13
40.110        20
40.120        40
40.130        40
40.140        20
40.150        47
40.160        20
40.170        40
40.180        13
40.190        33
40.200        40
40.210        27
40.220         7
40.230        27
40.240        20
40.250        27
40.260        33
40.270        13
40.280        47
40.290        20
40.300        13
40.310        13
40.320        60
40.330         0
40.340        33
40.350        13
40.360        33
40.370        27
40.380        27
40.390        27
40.400        13
40.410        27
40.420        47
40.430        20
40.440        20
40.450        20
40.460        20
40.470        27
40.480        27
40.490        13
40.500        20
40.510        13
40.520        20
40.530        20
40.540        20
40.550        27
40.560        33
40.570        33
40.580        20
40.590         7
40.600        27
40.610        20
40.620         7
40.630        13
40.640        13
40.650        13
40.660        27
40.670        33
40.680        27
40.690        20
40.700        27
40.710         0
40.720        27
40.730         0
40.740        13
40.750        20
40.760        20
40.770        13
40.780        33
40.790         7
40.800        27
40.810        20
40.820        20
40.830        27
40.840         0
40.850        27
40.860         0
40.870        20
40.880        20
40.890        27
40.900        40
40.910         0
40.920        33
40.930         7
40.940         7
40.950        13
40.960        33
40.970         7
40.980        13
40.990        13
41.000        33
41.010        40
41.020        13
41.030        27
41.040        40
41.050         7
41.060        20
41.070         7
41.080        27
41.090        53
41.100        13
41.110        33
41.120        13
41.130        33
41.140         7
41.150        13
41.160        13
41.170        33
41.180        27
41.190        13
41.200        13
41.210        40
41.220        13
41.230        13
41.240        20
41.250        27
41.260        13
41.270        27
41.280        13
41.290         7
41.300         7
41.310        53
41.320        33
41.330        13
41.340         7
41.350        13
41.360        27
41.370        33
41.380        27
41.390        27
41.400        27
41.410        20
41.420         7
41.430        47
41.440        20
41.450        47
41.460        47
41.470        60
41.480        13
41.490        67
41.500        20
41.510        33
41.520        47
41.530        40
41.540        33
41.550        40
41.560        73
41.570        33
41.580        40
41.590        67
41.600        87
41.610        53
41.620       107
41.630        73
41.640       113
41.650       140
41.660       140
41.670       193
41.680       180
41.690       200
41.700       140
41.710       193
41.720       173
41.730       193
41.740       167
41.750        93
41.760       140
41.770        53
41.780       140
41.790       127
41.800       147
41.810        80
41.820        73
41.830        93
41.840        53
41.850        80
41.860        40
41.870        67
41.880        60
41.890        33
41.900        20
41.910        47
41.920        20
41.930        33
41.940        40
41.950         7
41.960         7
41.970        33
41.980         0
41.990        13
42.000        33
42.010        13
42.020        13
42.030        13
42.040        27
42.050        33
42.060        27
42.070        27
42.080        13
42.090        40
42.100        27
42.110        13
42.120        20
42.130        13
42.140        20
42.150        40
42.160        27
42.170        33
42.180        13
42.190        20
42.200        27
42.210        27
42.220        13
42.230        13
42.240        20
42.250        40
42.260        27
42.270        27
42.280        53
42.290        60
42.300        13
42.310        27
42.320        20
42.330        47
42.340        27
42.350        33
42.360        13
42.370         7
42.380        13
42.390         7
42.400        27
42.410         0
42.420        27
42.430        40
42.440        27
42.450        27
42.460        20
42.470        13
42.480        27
42.490        27
42.500        20
42.510        20
42.520        53
42.530        20
42.540        20
42.550        13
42.560        40
42.570        20
42.580        20
42.590        13
42.600        20
42.610        27
42.620        20
42.630        27
42.640         7
42.650        13
42.660        13
42.670        20
42.680        27
42.690        27
42.700        13
42.710        20
42.720        20
42.730        13
42.740        13
42.750        33
42.760        20
42.770        13
42.780        20
42.790        33
42.800        20
42.810        33
42.820        20
42.830        33
42.840         0
42.850        20
42.860         7
42.870         0
42.880        33
42.890         0
42.900        20
42.910        20
42.920         0
42.930        20
42.940        27
42.950        20
42.960         7
42.970        20
42.980        27
42.990        27
43.000        53
43.010        20
43.020        27
43.030        27
43.040        20
43.050        27
43.060        13
43.070        20
43.080        20
43.090         7
43.100        40
43.110        33
43.120        40
43.130         0
43.140        47
43.150        20
43.160        40
43.170        13
43.180        47
43.190        40
43.200        33
43.210        80
43.220        53
43.230        60
43.240        53
43.250        60
43.260        67
43.270        27
43.280        47
43.290       107
43.300        73
43.310       120
43.320       120
43.330       113
43.340       107
43.350       247
43.360       187
43.370       187
43.380       193
43.390       207
43.400       153
43.410       193
43.420       180
43.430       140
43.440       153
43.450       107
43.460        93
43.470        87
43.480        87
43.490       140
43.500        73
43.510       107
43.520       160
43.530        60
43.540        73
43.550        60
43.560        13
43.570        40
43.580        40
43.590        47
43.600        53
43.610        13
43.620         7
43.630        20
43.640        20
43.650        27
43.660        20
43.670        27
43.680        20
43.690        27
43.700        13
43.710        20
43.720         7
43.730        20
43.740        13
43.750         7
43.760        33
43.770        27
43.780        27
43.790         7
43.800        13
43.810        20
43.820        20
43.830        20
43.840         7
43.850        13
43.860        20
43.870        20
43.880        20
43.890         0
43.900        33
43.910        13
43.920        27
43.930        27
43.940         0
43.950        33
43.960        20
43.970        27
43.980        13
43.990        20
44.000         0
44.010         7
44.020        33
44.030         7
44.040        27
44.050        27
44.060        47
44.070        40
44.080        13
44.090        27
44.100        20
44.110        27
44.120        20
44.130         7
44.140        33
44.150        20
44.160        13
44.170        20
44.180        20
44.190        27
44.200        27
44.210        20
44.220        33
44.230        20
44.240        20
44.250        20
44.260        27
44.270         7
44.280         0
44.290        27
44.300        20
44.310        27
44.320        13
44.330        40
44.340         0
44.350        20
44.360        20
44.370        13
44.380        13
44.390        20
44.400        20
44.410         0
44.420        20
44.430        33
44.440         0
44.450        27
44.460        27
44.470        20
44.480        27
44.490        20
44.500        33
44.510         7
44.520        47
44.530        33
44.540        27
44.550        40
44.560        20
44.570        20
44.580        20
44.590         7
44.600        13
44.610        13
44.620        27
44.630        40
44.640         7
44.650        20
44.660        13
44.670        13
44.680         7
44.690        13
44.700        53
44.710        27
44.720        33
44.730        13
44.740        27
44.750        33
44.760        13
44.770        33
44.780        33
44.790         7
44.800        27
44.810         7
44.820        13
44.830         7
44.840        13
44.850        33
44.860        20
44.870        20
44.880        27
44.890        33
44.900        13
44.910        53
44.920         7
44.930        27
44.940        13
44.950        13
44.960        13
44.970        47
44.980        27
44.990        20
45.000        27
45.010        20
45.020        13
45.030        20
45.040        33
45.050        27
45.060        20
45.070        20
45.080        33
45.090        27
45.100        33
45.110         7
45.120        27
45.130        13
45.140        40
45.150        20
45.160        40
45.170        20
45.180        13
45.190        33
45.200        13
45.210        27
45.220        27
45.230        33
45.240        20
45.250        13
45.260        33
45.270        13
45.280        20
45.290        47
45.300        53
45.310        13
45.320        27
45.330        47
45.340        40
45.350        40
45.360        27
45.370        40
45.380        27
45.390        27
45.400        60
45.410        73
45.420        27
45.430        20
45.440        73
45.450        27
45.460        27
45.470        47
45.480        47
45.490        67
45.500        67
45.510        33
45.520        40
45.530        40
45.540        33
45.550        40
45.560        33
45.570        60
45.580        67
45.590        20
45.600        60
45.610        47
45.620        87
45.630        40
45.640       107
45.650        53
45.660        93
45.670        87
45.680        60
45.690        73
45.700        67
45.710        60
45.720        93
45.730       113
45.740        73
45.750        67
45.760       113
45.770        47
45.780        87
45.790       107
45.800       160
45.810        87
45.820        87
45.830       107
45.840       133
45.850       107
45.860       127
45.870       133
45.880        73
45.890       120
45.900       167
45.910       140
45.920       127
45.930       113
45.940       127
45.950       167
45.960       120
45.970       160
45.980       153
45.990       127
46.000       133
46.010       207
46.020       200
46.030       207
46.040       160
46.050       180
46.060       220
46.070       173
46.080       207
46.090       200
46.100       180
46.110       207
46.120       227
46.130       207
46.140       207
46.150       227
46.160       213
46.170       160
46.180       213
46.190       207
46.200       187
46.210       100
46.220       193
46.230       187
46.240       127
46.250       167
46.260       147
46.270       167
46.280        73
46.290       120
46.300       113
46.310       173
46.320       133
46.330       160
46.340       100
46.350       133
46.360       107
46.370       100
46.380       107
46.390        73
46.400        60
46.410        60
46.420        20
46.430       107
46.440        53
46.450        60
46.460        33
46.470        40
46.480        27
46.490        47
46.500        53
46.510        40
46.520        20
46.530        47
46.540        40
46.550        33
46.560        47
46.570        27
46.580        33
46.590        40
46.600        33
46.610        13
46.620        40
46.630        40
46.640        47
46.650        60
46.660        33
46.670        53
46.680        27
46.690        20
46.700        27
46.710        47
46.720        47
46.730         7
46.740        13
46.750        47
46.760        27
46.770        27
46.780        33
46.790        53
46.800        40
46.810        53
46.820        27
46.830        33
46.840        20
46.850        13
46.860        20
46.870        13
46.880        73
46.890        13
46.900        27
46.910        27
46.920        20
46.930         7
46.940        20
46.950        13
46.960        33
46.970        53
46.980        33
46.990        27
47.000         0
47.010        20
47.020         7
47.030        13
47.040        27
47.050        13
47.060        20
47.070         7
47.080        33
47.090        27
47.100        27
47.110        33
47.120         0
47.130        20
47.140         7
47.150        20
47.160        40
47.170         7
47.180        40
47.190        13
47.200         0
47.210        27
47.220        13
47.230        13
47.240        27
47.250        13
47.260        20
47.270        40
47.280        33
47.290        20
47.300        20
47.310        27
47.320        20
47.330        20
47.340        13
47.350        40
47.360        13
47.370         7
47.380        27
47.390        13
47.400        40
47.410        13
47.420        27
47.430        20
47.440        27
47.450         0
47.460         7
47.470        20
47.480        20
47.490         7
47.500        20
47.510        33
47.520         7
47.530        13
47.540        40
47.550        20
47.560        13
47.570        20
47.580        47
47.590         7
47.600        33
47.610        33
47.620        20
47.630         7
47.640        13
47.650        13
47.660        27
47.670         0
47.680        13
47.690         7
47.700        27
47.710        27
47.720        13
47.730        53
47.740        27
47.750        13
47.760        20
47.770        13
47.780         0
47.790        33
47.800        20
47.810        27
47.820        13
47.830         7
47.840        13
47.850         0
47.860        33
47.870        20
47.880        20
47.890        27
47.900        20
47.910        13
47.920        13
47.930        13
47.940        13
47.950         7
47.960        13
47.970        13
47.980        20
47.990        33
48.000        20
48.010         7
48.020        13
48.030         7
48.040        20
48.050        20
48.060        13
48.070        20
48.080        13
48.090        20
48.100         0
48.110         0
48.120         7
48.130        20
48.140        47
48.150        13
48.160        27
48.170        13
48.180        13
48.190        20
48.200         0
48.210        13
48.220         7
48.230         0
48.240        67
48.250         0
48.260        13
48.270         7
48.280        13
48.290        13
48.300        13
48.310         7
48.320        20
48.330        20
48.340         7
48.350        20
48.360        40
48.370        27
48.380        33
48.390         7
48.400        33
48.410        20
48.420        13
48.430        13
48.440        20
48.450        13
48.460        13
48.470        20
48.480        13
48.490        13
48.500         7
48.510         7
48.520        20
48.530         7
48.540         0
48.550        27
48.560        33
48.570        20
48.580         7
48.590        20
48.600        13
48.610        13
48.620         0
48.630        13
48.640        13
48.650        33
48.660        20
48.670        13
48.680         7
48.690        20
48.700        20
48.710         7
48.720         0
48.730        13
48.740        33
48.750        20
48.760         0
48.770        13
48.780         7
48.790        27
48.800         7
48.810         7
48.820        13
48.830        20
48.840        33
48.850        13
48.860        33
48.870        27
48.880        20
48.890        33
48.900        13
48.910        13
48.920        20
48.930        20
48.940         0
48.950        33
48.960         7
48.970        27
48.980         7
48.990        27
49.000        33
49.010        33
49.020        20
49.030        20
49.040        27
49.050         7
49.060        13
49.070         7
49.080         7
49.090         7
49.100        40
49.110        13
49.120        13
49.130        20
49.140         7
49.150        20
49.160         7
49.170        20
49.180         7
49.190         7
49.200        13
49.210        27
49.220        13
49.230        33
49.240         7
49.250        13
49.260        27
49.270         0
49.280        40
49.290        27
49.300         0
49.310        13
49.320         7
49.330        13
49.340         7
49.350        20
49.360        13
49.370        13
49.380         7
49.390        13
49.400        27
49.410         7
49.420        20
49.430         7
49.440        20
49.450         7
49.460        33
49.470         7
49.480        13
49.490        20
49.500         7
49.510        47
49.520         0
49.530        20
49.540        13
49.550        20
49.560         7
49.570        53
49.580         7
49.590        27
49.600         0
49.610        13
49.620        20
49.630        27
49.640         7
49.650        20
49.660        13
49.670        47
49.680        20
49.690        20
49.700        33
49.710        20
49.720        20
49.730        20
49.740         7
49.750         0
49.760        13
49.770        13
49.780        13
49.790         0
49.800        20
49.810        13
49.820        13
49.830        13
49.840        40
49.850        27
49.860        27
49.870        20
49.880         0
49.890        20
49.900        33
49.910         7
49.920         7
49.930         7
49.940        13
49.950         7
49.960         7
49.970        27
49.980        13
49.990        27
50.000        27
50.010        20
50.020         0
50.030         7
50.040        13
50.050         7
50.060        13
50.070        13
50.080        13
50.090        40
50.100        33
50.110         7
50.120        13
50.130        27
50.140        20
50.150         7
50.160        20
50.170        27
50.180         0
50.190        20
50.200        20
50.210         0
50.220        33
50.230         7
50.240        13
50.250        20
50.260        13
50.270        13
50.280        20
50.290        20
50.300        20
50.310         7
50.320        20
50.330         7
50.340         0
50.350         7
50.360        13
50.370        20
50.380        20
50.390         7
50.400        20
50.410         0
50.420         7
50.430         7
50.440        27
50.450        13
50.460        20
50.470        33
50.480        13
50.490        13
50.500        27
50.510        33
50.520        13
50.530        20
50.540        20
50.550         7
50.560        20
50.570         7
50.580         7
50.590         0
50.600        20
50.610         7
50.620         7
50.630         7
50.640        20
50.650         0
50.660        13
50.670        33
50.680         7
50.690         0
50.700        13
50.710         0
50.720        27
50.730        20
50.740         7
50.750         7
50.760        13
50.770         7
50.780        13
50.790        27
50.800         7
50.810        27
50.820        13
50.830         7
50.840        13
50.850         7
50.860         0
50.870        13
50.880        27
50.890         7
50.900        13
50.910        13
50.920        47
50.930         7
50.940         7
50.950        13
50.960        13
50.970        27
50.980        13
50.990        20
51.000        20
51.010        20
51.020         7
51.030        13
51.040        20
51.050        33
51.060        20
51.070         7
51.080        13
51.090        13
51.100         7
51.110        20
51.120         7
51.130        27
51.140        33
51.150         7
51.160        27
51.170        20
51.180        13
51.190        13
51.200        13
51.210        13
51.220        13
51.230         0
51.240        13
51.250         7
51.260        13
51.270        27
51.280        20
51.290         7
51.300         7
51.310        13
51.320         0
51.330         7
51.340        27
51.350        20
51.360        13
51.370        13
51.380        20
51.390         0
51.400         7
51.410        20
51.420         7
51.430         7
51.440        27
51.450        20
51.460        27
51.470        20
51.480        20
51.490         7
51.500         7
51.510        13
51.520        13
51.530        20
51.540        20
51.550         7
51.560        33
51.570        20
51.580        20
51.590        20
51.600        33
51.610         7
51.620        20
51.630        20
51.640        13
51.650        47
51.660         7
51.670         0
51.680        13
51.690        13
51.700        20
51.710         7
51.720         7
51.730         7
51.740         7
51.750        13
51.760        13
51.770        13
51.780         7
51.790         7
51.800        13
51.810        33
51.820        27
51.830        20
51.840        20
51.850         7
51.860         0
51.870        13
51.880        13
51.890        13
51.900        13
51.910        13
51.920         7
51.930        13
51.940        27
51.950         7
51.960         0
51.970         0
51.980        13
51.990        27
52.000        27
52.010         7
52.020        33
52.030         7
52.040         7
52.050         0
52.060        33
52.070         7
52.080        13
52.090        20
52.100        27
52.110        20
52.120        13
52.130        13
52.140         7
52.150        20
52.160         7
52.170        27
52.180        13
52.190        13
52.200        20
52.210        13
52.220         0
52.230        20
52.240        20
52.250        20
52.260        20
52.270         0
52.280        20
52.290        27
52.300        20
52.310        20
52.320        33
52.330         0
52.340        27
52.350        33
52.360        27
52.370        33
52.380        20
52.390        13
52.400        27
52.410        27
52.420        20
52.430        33
52.440        27
52.450        20
52.460        33
52.470        53
52.480        33
52.490        27
52.500        87
52.510        40
52.520        73
52.530        80
52.540       127
52.550        87
52.560        53
52.570       133
52.580       113
52.590       160
52.600       200
52.610       173
52.620       187
52.630       127
52.640       113
52.650        73
52.660        80
52.670        33
52.680        27
52.690        47
52.700       120
52.710        87
52.720        40
52.730        87
52.740       113
52.750        60
52.760       100
52.770        67
52.780        67
52.790        60
52.800        33
52.810        27
52.820        20
52.830        40
52.840        20
52.850        47
52.860         7
52.870        20
52.880        27
52.890        13
52.900        20
52.910        13
52.920         7
52.930        27
52.940         7
52.950        13
52.960        20
52.970        20
52.980         7
52.990        20
53.000         7
53.010        13
53.020        27
53.030        20
53.040        13
53.050        20
53.060        20
53.070        20
53.080         0
53.090         7
53.100        20
53.110        13
53.120        20
53.130         7
53.140        33
53.150        20
53.160        13
53.170         0
53.180        13
53.190        20
53.200         7
53.210         7
53.220        13
53.230        20
53.240        13
53.250        13
53.260         7
53.270        20
53.280         0
53.290         7
53.300         7
53.310        13
53.320        20
53.330        27
53.340        13
53.350        13
53.360        13
53.370        20
53.380         7
53.390         7
53.400         7
53.410        13
53.420         7
53.430         7
53.440        13
53.450         7
53.460        13
53.470        27
53.480         7
53.490        33
53.500         0
53.510        20
53.520        27
53.530        13
53.540        13
53.550        13
53.560         7
53.570        13
53.580        13
53.590         7
53.600        13
53.610        20
53.620         0
53.630        33
53.640         7
53.650        20
53.660         7
53.670         7
53.680        20
53.690        20
53.700        13
53.710        20
53.720         7
53.730        13
53.740        20
53.750         7
53.760         7
53.770        13
53.780        27
53.790         0
53.800        13
53.810        33
53.820        33
53.830         7
53.840        13
53.850        27
53.860        27
53.870         0
53.880        27
53.890        13
53.900         7
53.910        20
53.920        20
53.930         0
53.940        13
53.950         7
53.960         7
53.970        27
53.980        13
53.990        20
54.000         0
54.010         7
54.020        27
54.030        13
54.040        20
54.050         7
54.060        13
54.070         7
54.080        13
54.090        27
54.100        20
54.110         7
54.120        13
54.130        20
54.140        20
54.150        20
54.160        33
54.170        27
54.180        20
54.190        27
54.200        13
54.210        13
54.220        20
54.230        20
54.240        20
54.250        13
54.260         7
54.270         0
54.280        13
54.290         7
54.300        13
54.310        20
54.320         7
54.330         0
54.340        13
54.350         0
54.360        27
54.370         0
54.380        13
54.390        27
54.400        27
54.410        13
54.420         7
54.430        13
54.440        13
54.450        13
54.460        13
54.470        13
54.480        20
54.490         7
54.500        20
54.510         7
54.520         0
54.530        13
54.540        13
54.550        13
54.560         0
54.570         0
54.580         0
54.590         7
54.600         7
54.610        20
54.620         7
54.630        20
54.640        13
54.650         7
54.660         7
54.670        20
54.680         7
54.690        27
54.700         0
54.710        33
54.720         0
54.730         7
54.740         7
54.750        13
54.760        13
54.770        13
54.780        20
54.790        13
54.800         0
54.810        13
54.820         7
54.830         0
54.840        20
54.850        27
54.860         0
54.870         0
54.880        13
54.890        27
54.900         7
54.910        20
54.920         7
54.930         0
54.940        33
54.950        13
54.960        20
54.970         7
54.980         0
54.990         0
55.000        13
55.010        20
55.020         7
55.030        13
55.040         0
55.050        20
55.060        13
55.070        27
55.080        13
55.090         0
55.100        13
55.110         0
55.120        27
55.130        20
55.140         0
55.150        13
55.160        13
55.170         7
55.180        13
55.190         0
55.200        13
55.210        33
55.220        20
55.230         7
55.240         7
55.250        13
55.260        13
55.270        33
55.280         0
55.290         7
55.300         7
55.310        33
55.320        20
55.330        13
55.340        13
55.350        13
55.360        13
55.370        27
55.380         0
55.390        20
55.400         0
55.410         7
55.420        13
55.430        20
55.440         7
55.450         7
55.460        20
55.470         0
55.480        13
55.490        20
55.500         7
55.510         7
55.520         7
55.530         7
55.540         7
55.550        13
55.560        13
55.570        27
55.580         7
55.590        13
55.600         7
55.610        13
55.620        33
55.630        13
55.640        27
55.650        27
55.660        13
55.670        27
55.680        13
55.690         0
55.700        13
55.710        13
55.720        33
55.730         7
55.740         7
55.750        27
55.760         7
55.770        13
55.780         0
55.790        13
55.800         7
55.810        13
55.820        13
55.830         7
55.840         7
55.850        20
55.860        27
55.870        20
55.880        20
55.890        33
55.900         7
55.910        40
55.920         7
55.930        20
55.940         0
55.950        13
55.960         7
55.970        13
55.980        27
55.990        13
56.000        20
56.010        13
56.020        13
56.030        33
56.040        27
56.050        20
56.060        13
56.070         7
56.080        27
56.090        13
56.100         0
56.110        13
56.120         7
56.130        13
56.140         0
56.150        13
56.160        33
56.170         0
56.180         7
56.190         7
56.200         0
56.210         7
56.220        27
56.230        13
56.240         0
56.250        27
56.260         7
56.270        13
56.280        27
56.290         7
56.300        27
56.310        13
56.320        20
56.330        13
56.340         0
56.350         0
56.360         7
56.370         0
56.380         7
56.390         7
56.400        47
56.410         7
56.420        13
56.430         7
56.440        40
56.450         7
56.460         7
56.470         7
56.480         7
56.490        20
56.500        13
56.510         7
56.520        13
56.530         7
56.540         7
56.550         7
56.560        33
56.570        13
56.580         0
56.590         7
56.600        20
56.610        27
56.620        47
56.630        13
56.640        13
56.650        33
56.660        27
56.670         7
56.680         7
56.690        13
56.700        20
56.710         7
56.720        20
56.730         7
56.740        33
56.750        13
56.760        13
56.770         0
56.780         7
56.790        27
56.800         7
56.810        13
56.820        13
56.830        27
56.840        27
56.850         7
56.860         7
56.870        13
56.880        13
56.890        20
56.900        27
56.910        27
56.920        13
56.930        20
56.940         0
56.950        33
56.960        20
56.970        13
56.980         7
56.990        27
57.000         7
57.010        20
57.020        20
57.030        13
57.040        13
57.050        60
57.060        20
57.070        40
57.080         7
57.090        33
57.100        13
57.110        20
57.120        47
57.130        20
57.140        13
57.150         7
57.160        33
57.170        13
57.180        20
57.190         7
57.200        13
57.210        13
57.220        20
57.230        13
57.240        20
57.250        27
57.260        53
57.270        27
57.280        33
57.290        27
57.300        40
57.310         7
57.320        40
57.330        20
57.340        67
57.350        67
57.360        60
57.370        47
57.380        33
57.390        47
57.400        53
57.410        27
57.420        60
57.430       127
57.440       120
57.450       100
57.460       100
57.470       107
57.480       280
57.490       253
57.500       280
57.510       287
57.520       506
57.530       446
57.540       340
57.550       393
57.560       267
57.570       293
57.580       227
57.590       113
57.600        93
57.610       140
57.620       120
57.630       140
57.640       147
57.650       213
57.660       140
57.670       273
57.680       187
57.690       160
57.700       220
57.710       180
57.720       153
57.730       120
57.740        80
57.750        93
57.760        47
57.770        87
57.780        40
57.790        33
57.800        33
57.810        67
57.820        53
57.830        27
57.840        47
57.850        13
57.860        20
57.870         0
57.880        27
57.890         7
57.900        27
57.910        20
57.920        53
57.930        13
57.940        40
57.950         7
57.960         7
57.970        33
57.980        20
57.990         0
58.000        40
58.010        33
58.020        40
58.030        20
58.040         7
58.050        13
58.060        27
58.070        27
58.080         0
58.090         0
58.100         0
58.110        20
58.120         7
58.130         0
58.140        20
58.150        13
58.160        13
58.170         7
58.180         7
58.190        13
58.200        20
58.210         0
58.220         7
58.230         0
58.240        20
58.250        27
58.260        13
58.270         7
58.280         0
58.290        20
58.300        13
58.310         7
58.320        20
58.330        20
58.340        13
58.350         7
58.360        13
58.370         7
58.380        20
58.390         0
58.400        40
58.410        20
58.420        13
58.430        13
58.440        13
58.450        20
58.460        20
58.470        13
58.480         7
58.490        20
58.500        20
58.510        13
58.520        13
58.530        47
58.540         0
58.550         0
58.560        20
58.570        20
58.580        13
58.590         7
58.600         7
58.610         7
58.620         7
58.630        33
58.640         0
58.650        13
58.660         7
58.670         7
58.680        20
58.690         7
58.700        20
58.710        20
58.720        13
58.730        20
58.740        13
58.750        33
58.760         0
58.770         0
58.780        13
58.790        13
58.800         7
58.810        20
58.820        20
58.830        13
58.840         0
58.850         7
58.860        13
58.870        13
58.880         0
58.890         7
58.900        20
58.910        13
58.920        20
58.930         7
58.940         7
58.950        20
58.960        27
58.970        27
58.980        20
58.990        20
59.000        20
59.010         7
59.020        20
59.030         7
59.040         7
59.050         7
59.060         0
59.070         7
59.080         7
59.090         0
59.100        20
59.110         7
59.120        13
59.130         7
59.140        27
59.150         7
59.160        13
59.170        13
59.180         0
59.190        20
59.200         7
59.210        13
59.220         0
59.230        33
59.240         7
59.250         7
59.260         7
59.270         7
59.280         7
59.290         7
59.300        20
59.310        13
59.320         7
59.330        20
59.340         0
59.350         0
59.360         0
59.370         0
59.380         0
59.390         0
59.400         0
59.410         0
59.420         0
59.430         0
59.440         0
59.450         0
59.460         0
59.470         0
59.480         0
59.490         0
59.500         0
59.510         0
59.520         0
59.530         0
59.540         0
59.550         0
59.560         0
59.570         0
59.580         0
59.590         0
59.600         0
59.610         0
59.620         0
59.630         0
59.640         0
59.650         0
59.660         0
59.670         0
59.680         0
59.690         0
59.700         0
59.710         0
59.720         0
59.730         0
59.740         0
59.750         0
59.760         0
59.770         0
59.780         7
59.790         0
59.800         0
59.810         0
59.820         0
59.830         0
59.840         0
59.850         0
59.860         0
59.870         0
59.880         0
59.890         0
59.900         0
59.910         0
59.920         0
59.930         0
59.940         0
59.950         0
59.960         0
59.970         0
59.980         0
59.990         0
60.000         0
