20.000        67
20.010        47
20.020        53
20.030        47
20.040        40
20.050        53
20.060        40
20.070        73
20.080        67
20.090        47
20.100        40
20.110        40
20.120        53
20.130        53
20.140        40
20.150        27
20.160        73
20.170        33
20.180        40
20.190        73
20.200        40
20.210        27
20.220        27
20.230        67
20.240        20
20.250        33
20.260        47
20.270        47
20.280        33
20.290        87
20.300        27
20.310        73
20.320        60
20.330        60
20.340        67
20.350        53
20.360        20
20.370        67
20.380        33
20.390        47
20.400        67
20.410        20
20.420        33
20.430        40
20.440        60
20.450        20
20.460        73
20.470        47
20.480        33
20.490        47
20.500        40
20.510        60
20.520        13
20.530        40
20.540        53
20.550        67
20.560        53
20.570        47
20.580        60
20.590        40
20.600        60
20.610        53
20.620        73
20.630        47
20.640        33
20.650        67
20.660        87
20.670        73
20.680        47
20.690        40
20.700        47
20.710        13
20.720        13
20.730        53
20.740        33
20.750        53
20.760        67
20.770        67
20.780        27
20.790        60
20.800        53
20.810        20
20.820        53
20.830        47
20.840        40
20.850        93
20.860        40
20.870        27
20.880        60
20.890        27
20.900       100
20.910        40
20.920        67
20.930        67
20.940        60
20.950       113
20.960        47
20.970        27
20.980        67
20.990        87
21.000        40
21.010        73
21.020        80
21.030        47
21.040        60
21.050        40
21.060        53
21.070        60
21.080        27
21.090        47
21.100        40
21.110        53
21.120        20
21.130        40
21.140        47
21.150        47
21.160        40
21.170        33
21.180        60
21.190        73
21.200        60
21.210        27
21.220        33
21.230        53
21.240        40
21.250        53
21.260        53
21.270        40
21.280        53
21.290        53
21.300        13
21.310        67
21.320        33
21.330        53
21.340        40
21.350        47
21.360        53
21.370        60
21.380        67
21.390        27
21.400        33
21.410        47
21.420        20
21.430        47
21.440        93
21.450        40
21.460        67
21.470        53
21.480        60
21.490        73
21.500        20
21.510        60
21.520        33
21.530        40
21.540        73
21.550        33
21.560        33
21.570         7
21.580        60
21.590        47
21.600        20
21.610        93
21.620        73
21.630        33
21.640        67
21.650        53
21.660        60
21.670        60
21.680        33
21.690        80
21.700        40
21.710        67
21.720        60
21.730        20
21.740        53
21.750        20
21.760        87
21.770        47
21.780        40
21.790        40
21.800        87
21.810        73
21.820        53
21.830        53
21.840        53
21.850        33
21.860        33
21.870        60
21.880        47
21.890        40
21.900        33
21.910        80
21.920        40
21.930        40
21.940        47
21.950         7
21.960        40
21.970        67
21.980        20
21.990        27
22.000        33
22.010        20
22.020        27
22.030        13
22.040        20
22.050        33
22.060        40
22.070        27
22.080        60
22.090        60
22.100        53
22.110        67
22.120        47
22.130        13
22.140        20
22.150        33
22.160        33
22.170        60
22.180        60
22.190        60
22.200        33
22.210        47
22.220        27
22.230        47
22.240        40
22.250        13
22.260        53
22.270        47
22.280        33
22.290        60
22.300        67
22.310        40
22.320        27
22.330        53
22.340        67
22.350        40
22.360        47
22.370        13
22.380        40
22.390        53
22.400        40
22.410        27
22.420        60
22.430        33
22.440        33
22.450        27
22.460        33
22.470         0
22.480        40
22.490        60
22.500        47
22.510        67
22.520        40
22.530         7
22.540        47
22.550        33
22.560        40
22.570        80
22.580        33
22.590        60
22.600        13
22.610        53
22.620        53
22.630        33
22.640        27
22.650        60
22.660        40
22.670        40
22.680        53
22.690        33
22.700        73
22.710        47
22.720        40
22.730        27
22.740        33
22.750        47
22.760        33
22.770        33
22.780        33
22.790        40
22.800        93
22.810        33
22.820        40
22.830        33
22.840        40
22.850        47
22.860        47
22.870        27
22.880        53
22.890        40
22.900        20
22.910        27
22.920        67
22.930        53
22.940        73
22.950        80
22.960         7
22.970        60
22.980        27
22.990        27
23.000        27
23.010        20
23.020        53
23.030        40
23.040        73
23.050        27
23.060        27
23.070        47
23.080        73
23.090        60
23.100        40
23.110        40
23.120        33
23.130        60
23.140        60
23.150        53
23.160        40
23.170        20
23.180        67
23.190        33
23.200        47
23.210        60
23.220         7
23.230        53
23.240        33
23.250        33
23.260        40
23.270        47
23.280        53
23.290        27
23.300        40
23.310        53
23.320        87
23.330        27
23.340        47
23.350        40
23.360        60
23.370        27
23.380        27
23.390        33
23.400        73
23.410        60
23.420        40
23.430        27
23.440        40
23.450        20
23.460        60
23.470        40
23.480        13
23.490        53
23.500        20
23.510        60
23.520        33
23.530        47
23.540        27
23.550        20
23.560        53
23.570        47
23.580        40
23.590        20
23.600        47
23.610        67
23.620        53
23.630        67
23.640        13
23.650        33
23.660        27
23.670        67
23.680        60
23.690        53
23.700        40
23.710        40
23.720        60
23.730        53
23.740        47
23.750        53
23.760        60
23.770        53
23.780        53
23.790        20
23.800        47
23.810        40
23.820        40
23.830        40
23.840        47
23.850        47
23.860        53
23.870        47
23.880        47
23.890        27
23.900        33
23.910        60
23.920        33
23.930        47
23.940        93
23.950        20
23.960        47
23.970        27
23.980        40
23.990        40
24.000        20
24.010        33
24.020        40
24.030        40
24.040        47
24.050        40
24.060        53
24.070        20
24.080        67
24.090        47
24.100        33
24.110        33
24.120        73
24.130        40
24.140        13
24.150        27
24.160        27
24.170        27
24.180        47
24.190        40
24.200        67
24.210        13
24.220        33
24.230        53
24.240        53
24.250        40
24.260        33
24.270        27
24.280        47
24.290        40
24.300        40
24.310        27
24.320        80
24.330        27
24.340        40
24.350        27
24.360        27
24.370        33
24.380        47
24.390        27
24.400        53
24.410        27
24.420        53
24.430        20
24.440        13
24.450        33
24.460        33
24.470        40
24.480        27
24.490        27
24.500        27
24.510        27
24.520        33
24.530        33
24.540         7
24.550        33
24.560        27
24.570        47
24.580        27
24.590        20
24.600        47
24.610        33
24.620        47
24.630        47
24.640        47
24.650        27
24.660        53
24.670        33
24.680        33
24.690        20
24.700        47
24.710        20
24.720        60
24.730        47
24.740        87
24.750        33
24.760        60
24.770        60
24.780        47
24.790        40
24.800        60
24.810        33
24.820        60
24.830        40
24.840        33
24.850        20
24.860        20
24.870        67
24.880        20
24.890        13
24.900        40
24.910        40
24.920        33
24.930        33
24.940        13
24.950        27
24.960        27
24.970        40
24.980        67
24.990        40
25.000        20
25.010        33
25.020        20
25.030        40
25.040        53
25.050        20
25.060        73
25.070        27
25.080        47
25.090        80
25.100        47
25.110        80
25.120        20
25.130        40
25.140        33
25.150        40
25.160        33
25.170        60
25.180        53
25.190        60
25.200        40
25.210        33
25.220        27
25.230        33
25.240        53
25.250        20
25.260        40
25.270        60
25.280        47
25.290        33
25.300        53
25.310        67
25.320        53
25.330        67
25.340        80
25.350       100
25.360        87
25.370       133
25.380        80
25.390       113
25.400       107
25.410       100
25.420       107
25.430       113
25.440       173
25.450       193
25.460       173
25.470       220
25.480       393
25.490       313
25.500       373
25.510       340
25.520       333
25.530       200
25.540       247
25.550       293
25.560       293
25.570       147
25.580       160
25.590       113
25.600       100
25.610        73
25.620        80
25.630        40
25.640        40
25.650        27
25.660        13
25.670        20
25.680        53
25.690        47
25.700        27
25.710        33
25.720        33
25.730        80
25.740        13
25.750        20
25.760        20
25.770        40
25.780        47
25.790        60
25.800        13
25.810        27
25.820        33
25.830        33
25.840        40
25.850        27
25.860        20
25.870        40
25.880        33
25.890        33
25.900        20
25.910        13
25.920        33
25.930         7
25.940        40
25.950        13
25.960        40
25.970        13
25.980        20
25.990        20
26.000        40
26.010        20
26.020        13
26.030         7
26.040        33
26.050        20
26.060        20
26.070        40
26.080        27
26.090        87
26.100        87
26.110        53
26.120        47
26.130        53
26.140        33
26.150        27
26.160        27
26.170        60
26.180        27
26.190        33
26.200        40
26.210        47
26.220        47
26.230        53
26.240        53
26.250        33
26.260        73
26.270        27
26.280        13
26.290        27
26.300        27
26.310        33
26.320        33
26.330        33
26.340        67
26.350        20
26.360        33
26.370        47
26.380        33
26.390        40
26.400        27
26.410        33
26.420        33
26.430        40
26.440        53
26.450        20
26.460        40
26.470        20
26.480        27
26.490        47
26.500        27
26.510        47
26.520        33
26.530        40
26.540        27
26.550        40
26.560        40
26.570        47
26.580        53
26.590        60
26.600        20
26.610        20
26.620        13
26.630        33
26.640        33
26.650        13
26.660        33
26.670        27
26.680        27
26.690        33
26.700        27
26.710        40
26.720        13
26.730        33
26.740        20
26.750        47
26.760        47
26.770        73
26.780        27
26.790        20
26.800        27
26.810         7
26.820        27
26.830        20
26.840        40
26.850        27
26.860        13
26.870        27
26.880        47
26.890        33
26.900        40
26.910        53
26.920        33
26.930         7
26.940        40
26.950        27
26.960        20
26.970        53
26.980        33
26.990        27
27.000        27
27.010        40
27.020        27
27.030        53
27.040        13
27.050        20
27.060        53
27.070         7
27.080        20
27.090        20
27.100        27
27.110        27
27.120        33
27.130        40
27.140        27
27.150        27
27.160        67
27.170         7
27.180        33
27.190        47
27.200        20
27.210        27
27.220        20
27.230        60
27.240        20
27.250        20
27.260        40
27.270        13
27.280        13
27.290        40
27.300        47
27.310        13
27.320        33
27.330         0
27.340         7
27.350        13
27.360        27
27.370        53
27.380        27
27.390        33
27.400        40
27.410        20
27.420        27
27.430        53
27.440        33
27.450        67
27.460        13
27.470        27
27.480        13
27.490        27
27.500        47
27.510        20
27.520        47
27.530        20
27.540        40
27.550        40
27.560        40
27.570        27
27.580        33
27.590        60
27.600        20
27.610        33
27.620        47
27.630        20
27.640        40
27.650        27
27.660        27
27.670        47
27.680        40
27.690        27
27.700        33
27.710        20
27.720        40
27.730        20
27.740        33
27.750        33
27.760        53
27.770        27
27.780        53
27.790        40
27.800        33
27.810        27
27.820        60
27.830        47
27.840        40
27.850        53
27.860        40
27.870        20
27.880        20
27.890        20
27.900        73
27.910        40
27.920        27
27.930        20
27.940        20
27.950         0
27.960        27
27.970        33
27.980        33
27.990        60
28.000        20
28.010         0
28.020        47
28.030        27
28.040         7
28.050        13
28.060        20
28.070        13
28.080        13
28.090        60
28.100        33
28.110        47
28.120        27
28.130        20
28.140        20
28.150        20
28.160        33
28.170        33
28.180        33
28.190        20
28.200        27
28.210        73
28.220        20
28.230        53
28.240         0
28.250        33
28.260        40
28.270        40
28.280        27
28.290        20
28.300        33
28.310        20
28.320        20
28.330        20
28.340         7
28.350        33
28.360        20
28.370        13
28.380        53
28.390        47
28.400        53
28.410        20
28.420        47
28.430        53
28.440        27
28.450        33
28.460        27
28.470        13
28.480        47
28.490        27
28.500        27
28.510        13
28.520        27
28.530        20
28.540        13
28.550        13
28.560        13
28.570        33
28.580        20
28.590        47
28.600        40
28.610        13
28.620        53
28.630        40
28.640        13
28.650        53
28.660        27
28.670        20
28.680        20
28.690        33
28.700        27
28.710        27
28.720        40
28.730        33
28.740        53
28.750        60
28.760        27
28.770        47
28.780        33
28.790        20
28.800        27
28.810        33
28.820        33
28.830        53
28.840        20
28.850        40
28.860        13
28.870        53
28.880        33
28.890        40
28.900        13
28.910        27
28.920        20
28.930        27
28.940        13
28.950        33
28.960         7
28.970        40
28.980        27
28.990        20
29.000        33
29.010        27
29.020        20
29.030        53
29.040        27
29.050        40
29.060        27
29.070        13
29.080        33
29.090        20
29.100        20
29.110        20
29.120        13
29.130        33
29.140        53
29.150         7
29.160        60
29.170        40
29.180        47
29.190        33
29.200        47
29.210        27
29.220        33
29.230         7
29.240        33
29.250        53
29.260        27
29.270        40
29.280        40
29.290        20
29.300        40
29.310        13
29.320        40
29.330        47
29.340        27
29.350        27
29.360        20
29.370        33
29.380        27
29.390        13
29.400        33
29.410        20
29.420        40
29.430        27
29.440        27
29.450         7
29.460         7
29.470         7
29.480        27
29.490        13
29.500        33
29.510        33
29.520        33
29.530        40
29.540        33
29.550        27
29.560        20
29.570        60
29.580        33
29.590        40
29.600        47
29.610        27
29.620        27
29.630        27
29.640        20
29.650        53
29.660        33
29.670        33
29.680        27
29.690         7
29.700        47
29.710        13
29.720        13
29.730        60
29.740        47
29.750        27
29.760        20
29.770        60
29.780        20
29.790        33
29.800        20
29.810        20
29.820        33
29.830        20
29.840        33
29.850        47
29.860        33
29.870        47
29.880        47
29.890        27
29.900        20
29.910        27
29.920        40
29.930         7
29.940        47
29.950        47
29.960        20
29.970        13
29.980        27
29.990        40
30.000        20
30.010        27
30.020        47
30.030        27
30.040        33
30.050        40
30.060        13
30.070        13
30.080        47
30.090        33
30.100        20
30.110        27
30.120         7
30.130         0
30.140        33
30.150        33
30.160        33
30.170        20
30.180        33
30.190        20
30.200        40
30.210        33
30.220        20
30.230        27
30.240        27
30.250        27
30.260        20
30.270        33
30.280        13
30.290        27
30.300        33
30.310        13
30.320        27
30.330         7
30.340        20
30.350        40
30.360        13
30.370        47
30.380        27
30.390        33
30.400        40
30.410        27
30.420         7
30.430        27
30.440        27
30.450        40
30.460        13
30.470        27
30.480        53
30.490        20
30.500        40
30.510        47
30.520        20
30.530        27
30.540        33
30.550        20
30.560        20
30.570        27
30.580        33
30.590        33
30.600        13
30.610        20
30.620        47
30.630         7
30.640        53
30.650         7
30.660        27
30.670        60
30.680        20
30.690        33
30.700        40
30.710        33
30.720        33
30.730        20
30.740        20
30.750        33
30.760        33
30.770        60
30.780        33
30.790        20
30.800        20
30.810        40
30.820        47
30.830        33
30.840        20
30.850        20
30.860        13
30.870        20
30.880        40
30.890        13
30.900        13
30.910        27
30.920        33
30.930        20
30.940         7
30.950        47
30.960        67
30.970        20
30.980        27
30.990        27
31.000        13
31.010        33
31.020        27
31.030         7
31.040        40
31.050        33
31.060        13
31.070        20
31.080         7
31.090        20
31.100         0
31.110        13
31.120        13
31.130        33
31.140        13
31.150        20
31.160        27
31.170        13
31.180        13
31.190        40
31.200        20
31.210        40
31.220        40
31.230        33
31.240        27
31.250        27
31.260        33
31.270        40
31.280        27
31.290        27
31.300        53
31.310        27
31.320        40
31.330        20
31.340        20
31.350        47
31.360         7
31.370        40
31.380        60
31.390         7
31.400        27
31.410        33
31.420        53
31.430         0
31.440         7
31.450        40
31.460        33
31.470        20
31.480        13
31.490        40
31.500        47
31.510        27
31.520        20
31.530        20
31.540        27
31.550        60
31.560        27
31.570        47
31.580        20
31.590        13
31.600        40
31.610        33
31.620        60
31.630        40
31.640        60
31.650        40
31.660        13
31.670        27
31.680        27
31.690        33
31.700        40
31.710        47
31.720        13
31.730        33
31.740        13
31.750        33
31.760        40
31.770        13
31.780        13
31.790        33
31.800        33
31.810        27
31.820        13
31.830        27
31.840        27
31.850        33
31.860        27
31.870        40
31.880        20
31.890        47
31.900        20
31.910        27
31.920        40
31.930        47
31.940        33
31.950        33
31.960        13
31.970        40
31.980        33
31.990        13
32.000        27
32.010        67
32.020        20
32.030        40
32.040        20
32.050        33
32.060        27
32.070        53
32.080        20
32.090        27
32.100        40
32.110        40
32.120        40
32.130        40
32.140        20
32.150        40
32.160        33
32.170        47
32.180        33
32.190        27
32.200        40
32.210        27
32.220        33
32.230        13
32.240        33
32.250        40
32.260        27
32.270        40
32.280        53
32.290        53
32.300        20
32.310        33
32.320         7
32.330        13
32.340        27
32.350        33
32.360        60
32.370        13
32.380        33
32.390        40
32.400        47
32.410        20
32.420        67
32.430         7
32.440        33
32.450        33
32.460         7
32.470        20
32.480        47
32.490        20
32.500        53
32.510        20
32.520        13
32.530        27
32.540        20
32.550        33
32.560        20
32.570         0
32.580        13
32.590        20
32.600        40
32.610        33
32.620         7
32.630        13
32.640         7
32.650        33
32.660        20
32.670        13
32.680        27
32.690        47
32.700        53
32.710        33
32.720         7
32.730        40
32.740        40
32.750        33
32.760        20
32.770         7
32.780        27
32.790        27
32.800        47
32.810        13
32.820        20
32.830        27
32.840        20
32.850        27
32.860        20
32.870        33
32.880        40
32.890         7
32.900        20
32.910        40
32.920        20
32.930        13
32.940        33
32.950        27
32.960        60
32.970        53
32.980        13
32.990        33
33.000        27
33.010        47
33.020        13
33.030        27
33.040        47
33.050        13
33.060        27
33.070        13
33.080        20
33.090        20
33.100        20
33.110        40
33.120        20
33.130        13
33.140         7
33.150        53
33.160        27
33.170        47
33.180        13
33.190        27
33.200        27
33.210        27
33.220        47
33.230        47
33.240        33
33.250        60
33.260        20
33.270        33
33.280        40
33.290        47
33.300        40
33.310         7
33.320         0
33.330        20
33.340        27
33.350        20
33.360        27
33.370        33
33.380        20
33.390        27
33.400         7
33.410        20
33.420        53
33.430        20
33.440        13
33.450        20
33.460        33
33.470        27
33.480        33
33.490        27
33.500        20
33.510        33
33.520        27
33.530        40
33.540        40
33.550        27
33.560        47
33.570        33
33.580        27
33.590        27
33.600        27
33.610        27
33.620        13
33.630        20
33.640        27
33.650        27
33.660         0
33.670        33
33.680        20
33.690        13
33.700         7
33.710        20
33.720        27
33.730        20
33.740        20
33.750        13
33.760        60
33.770        27
33.780         7
33.790        13
33.800        20
33.810        27
33.820        20
33.830        27
33.840         0
33.850        20
33.860         7
33.870        20
33.880        27
33.890        20
33.900        33
33.910        13
33.920        13
33.930        20
33.940        20
33.950        53
33.960        20
33.970        27
33.980        33
33.990        20
34.000         7
34.010        40
34.020        33
34.030         7
34.040        20
34.050        20
34.060        20
34.070        13
34.080        33
34.090        53
34.100        47
34.110        33
34.120         7
34.130        13
34.140        13
34.150        20
34.160         7
34.170        40
34.180        40
34.190        20
34.200        20
34.210        27
34.220        13
34.230        27
34.240        40
34.250        13
34.260        27
34.270        40
34.280        20
34.290        40
34.300         0
34.310        20
34.320        53
34.330        47
34.340        13
34.350         7
34.360         7
34.370        53
34.380        40
34.390        13
34.400        27
34.410        27
34.420         7
34.430        20
34.440         7
34.450        40
34.460        20
34.470        33
34.480        20
34.490        20
34.500        20
34.510        13
34.520        20
34.530        40
34.540        33
34.550        20
34.560         7
34.570         0
34.580        13
34.590        13
34.600        33
34.610        40
34.620         7
34.630        33
34.640        20
34.650         0
34.660        20
34.670        20
34.680        13
34.690        20
34.700         7
34.710        47
34.720        13
34.730         7
34.740        13
34.750        13
34.760        33
34.770        20
34.780        33
34.790        47
34.800        33
34.810        47
34.820        53
34.830        80
34.840        40
34.850        13
34.860        53
34.870        27
34.880        60
34.890        93
34.900       113
34.910       153
34.920       140
34.930       240
34.940       220
34.950       280
34.960       360
34.970       220
34.980       213
34.990       240
35.000       193
35.010       233
35.020       193
35.030       187
35.040       180
35.050       147
35.060       220
35.070       273
35.080       187
35.090       153
35.100       180
35.110       227
35.120       153
35.130       187
35.140       173
35.150       193
35.160       120
35.170       147
35.180        87
35.190        87
35.200        93
35.210       120
35.220       107
35.230       100
35.240        93
35.250       127
35.260        80
35.270        47
35.280        60
35.290        20
35.300        27
35.310        33
35.320        27
35.330        40
35.340        47
35.350        20
35.360        27
35.370        20
35.380        27
35.390        33
35.400        33
35.410         7
35.420        20
35.430         7
35.440        33
35.450        13
35.460        33
35.470        13
35.480        73
35.490        13
35.500        33
35.510         7
35.520        40
35.530        40
35.540        13
35.550        33
35.560        20
35.570        13
35.580        13
35.590         0
35.600        20
35.610        13
35.620        20
35.630        40
35.640        13
35.650         7
35.660        13
35.670        13
35.680         7
35.690        13
35.700        27
35.710        20
35.720        20
35.730        20
35.740        40
35.750         7
35.760        40
35.770        13
35.780        27
35.790        20
35.800        13
35.810        27
35.820        47
35.830        13
35.840        40
35.850        13
35.860        20
35.870        13
35.880        13
35.890        47
35.900        20
35.910        27
35.920        13
35.930        20
35.940        20
35.950        27
35.960        13
35.970        33
35.980        53
35.990         0
36.000        20
36.010        33
36.020        27
36.030        13
36.040        27
36.050        13
36.060         7
36.070         7
36.080         7
36.090        33
36.100        20
36.110        20
36.120        20
36.130        33
36.140         7
36.150        20
36.160        20
36.170        33
36.180        13
36.190        40
36.200         7
36.210        40
36.220        40
36.230        33
36.240        27
36.250        20
36.260        27
36.270        20
36.280        13
36.290        27
36.300        33
36.310        13
36.320        13
36.330         7
36.340        40
36.350        27
36.360        33
36.370        13
36.380         7
36.390        20
36.400        20
36.410        13
36.420        33
36.430        20
36.440        27
36.450        33
36.460        20
36.470        33
36.480        33
36.490        13
36.500        47
36.510        27
36.520        47
36.530        13
36.540        20
36.550        13
36.560        13
36.570        27
36.580        27
36.590        13
36.600        47
36.610        13
36.620        40
36.630        13
36.640        33
36.650        13
36.660        13
36.670        20
36.680        27
36.690        13
36.700        13
36.710        27
36.720         7
36.730        20
36.740        27
36.750        40
36.760        27
36.770        33
36.780         7
36.790        40
36.800        13
36.810        60
36.820        20
36.830        33
36.840        27
36.850        27
36.860        20
36.870        53
36.880        73
36.890        67
36.900        60
36.910        33
36.920        13
36.930        27
36.940        60
36.950        20
36.960        33
36.970        33
36.980        47
36.990        40
37.000        40
37.010        20
37.020        20
37.030        27
37.040        47
37.050        13
37.060         7
37.070        13
37.080        40
37.090        47
37.100        20
37.110        33
37.120        13
37.130         7
37.140        13
37.150        27
37.160         0
37.170        13
37.180        27
37.190        47
37.200        20
37.210        47
37.220        47
37.230        27
37.240        20
37.250        40
37.260        13
37.270         7
37.280         7
37.290        20
37.300         0
37.310        27
37.320        33
37.330        13
37.340        13
37.350        27
37.360         0
37.370        53
37.380         7
37.390        27
37.400        33
37.410        20
37.420        33
37.430        13
37.440        33
37.450        27
37.460        27
37.470        33
37.480        20
37.490        40
37.500        47
37.510        60
37.520        47
37.530        27
37.540        20
37.550         7
37.560        13
37.570        20
37.580        47
37.590        47
37.600        73
37.610        20
37.620        53
37.630       107
37.640       153
37.650       180
37.660       167
37.670       147
37.680       233
37.690       133
37.700       153
37.710       153
37.720       127
37.730       140
37.740       160
37.750       160
37.760       193
37.770       133
37.780       147
37.790       160
37.800       127
37.810        73
37.820        60
37.830        73
37.840        53
37.850        60
37.860        73
37.870        47
37.880        67
37.890        47
37.900        33
37.910        27
37.920        47
37.930        20
37.940        33
37.950        33
37.960        13
37.970        40
37.980        47
37.990        20
38.000        40
38.010        33
38.020        47
38.030        33
38.040        27
38.050        13
38.060        27
38.070        13
38.080        13
38.090        40
38.100        20
38.110        40
38.120        13
38.130        40
38.140        33
38.150        20
38.160         7
38.170        47
38.180        20
38.190         7
38.200        27
38.210        27
38.220        13
38.230         7
38.240        40
38.250        33
38.260        20
38.270        13
38.280         7
38.290        33
38.300        27
38.310        47
38.320        13
38.330         7
38.340        13
38.350        20
38.360        47
38.370        13
38.380        40
38.390        27
38.400        13
38.410        27
38.420        33
38.430         0
38.440        20
38.450        40
38.460        13
38.470        13
38.480        27
38.490        13
38.500        13
38.510        27
38.520         7
38.530        53
38.540        13
38.550        20
38.560        33
38.570        13
38.580        13
38.590        47
38.600        13
38.610        20
38.620        40
38.630        20
38.640        20
38.650        20
38.660        13
38.670        20
38.680        27
38.690        33
38.700        13
38.710        27
38.720        40
38.730        20
38.740        33
38.750        20
38.760        33
38.770         7
38.780        20
38.790        33
38.800        27
38.810        13
38.820         7
38.830        20
38.840        33
38.850         7
38.860        27
38.870        13
38.880        20
38.890        13
38.900         7
38.910        20
38.920         7
38.930        40
38.940        20
38.950        40
38.960        53
38.970        13
38.980        27
38.990         0
39.000        20
39.010        27
39.020        20
39.030        33
39.040        47
39.050         7
39.060        27
39.070        13
39.080         7
39.090        33
39.100        27
39.110        40
39.120         7
39.130        27
39.140        13
39.150         0
39.160        20
39.170        27
39.180        33
39.190        27
39.200        20
39.210        33
39.220        27
39.230        13
39.240        27
39.250        13
39.260        13
39.270        27
39.280        33
39.290         7
39.300        13
39.310         0
39.320         0
39.330        27
39.340         7
39.350        40
39.360         7
39.370        20
39.380        13
39.390        20
39.400         0
39.410        27
39.420        27
39.430        27
39.440         7
39.450        13
39.460        27
39.470        20
39.480        13
39.490         7
39.500         7
39.510        40
39.520        20
39.530        20
39.540        47
39.550        20
39.560        20
39.570        20
39.580        20
39.590        33
39.600        40
39.610        27
39.620         7
39.630        27
39.640         7
39.650        27
39.660        27
39.670         0
39.680        47
39.690        27
39.700        27
39.710        47
39.720         7
39.730        13
39.740        27
39.750        33
39.760        27
39.770        13
39.780        27
39.790        40
39.800         7
39.810        27
39.820        40
39.830        13
39.840        27
39.850         7
39.860        27
39.870        53
39.880        27
39.890        40
39.900        13
39.910         0
39.920        33
39.930        73
39.940        20
39.950        20
39.960        33
39.970         0
39.980        20
39.990        13
40.000        27
40.010        13
40.020        20
40.030         7
40.040        27
40.050        27
40.060        20
40.070         7
40.080        33
40.090        27
40.100        13
40.110         7
40.120         7
40.130        13
40.140        40
40.150        27
40.160        27
40.170        33
40.180         7
40.190        40
40.200        27
40.210        27
40.220        20
40.230        13
40.240        13
40.250        20
40.260        20
40.270        13
40.280        27
40.290        13
40.300         0
40.310        20
40.320        27
40.330        13
40.340        20
40.350        20
40.360        20
40.370        20
40.380        20
40.390        20
40.400        20
40.410        60
40.420         0
40.430        20
40.440        20
40.450        33
40.460        13
40.470        13
40.480        33
40.490        20
40.500        53
40.510        27
40.520         7
40.530        47
40.540        20
40.550        27
40.560        40
40.570        20
40.580        27
40.590        20
40.600        27
40.610        33
40.620        20
40.630        13
40.640        40
40.650        20
40.660        13
40.670        20
40.680        20
40.690         7
40.700         0
40.710        20
40.720        27
40.730        20
40.740        13
40.750        20
40.760        27
40.770        40
40.780         7
40.790        20
40.800        33
40.810        20
40.820         0
40.830        13
40.840        20
40.850        13
40.860        33
40.870        20
40.880        13
40.890        20
40.900        27
40.910         7
40.920         0
40.930        40
40.940        33
40.950         0
40.960        20
40.970        13
40.980        20
40.990         7
41.000        13
41.010        27
41.020        27
41.030        27
41.040        20
41.050        20
41.060        13
41.070        13
41.080        20
41.090        13
41.100        33
41.110        27
41.120        27
41.130        13
41.140        27
41.150        27
41.160         7
41.170        33
41.180        20
41.190        13
41.200         0
41.210        20
41.220        40
41.230        13
41.240        13
41.250        60
41.260        20
41.270         0
41.280        33
41.290        47
41.300        13
41.310         0
41.320        27
41.330        33
41.340        20
41.350         7
41.360        13
41.370        53
41.380        20
41.390        53
41.400        47
41.410        73
41.420        20
41.430        47
41.440        40
41.450        73
41.460        80
41.470        73
41.480        47
41.490        67
41.500        73
41.510        67
41.520        73
41.530       100
41.540        87
41.550       133
41.560       107
41.570       153
41.580       200
41.590       247
41.600       307
41.610       213
41.620       300
41.630       280
41.640       247
41.650       280
41.660       280
41.670       267
41.680       200
41.690       133
41.700       167
41.710       173
41.720       227
41.730       133
41.740       133
41.750       127
41.760       120
41.770       167
41.780       107
41.790        93
41.800        60
41.810        53
41.820        60
41.830        53
41.840        27
41.850        27
41.860        53
41.870        27
41.880        40
41.890        20
41.900         7
41.910         7
41.920        13
41.930         0
41.940        13
41.950        40
41.960        20
41.970         7
41.980        20
41.990        20
42.000        20
42.010         7
42.020        13
42.030        13
42.040        47
42.050         0
42.060        20
42.070        27
42.080        13
42.090         7
42.100        40
42.110        13
42.120         7
42.130        27
42.140        27
42.150        13
42.160        33
42.170        40
42.180        13
42.190        13
42.200         0
42.210        33
42.220         0
42.230        13
42.240        47
42.250        13
42.260        33
42.270        20
42.280        13
42.290        13
42.300        27
42.310        20
42.320        33
42.330        13
42.340         7
42.350        20
42.360         7
42.370        40
42.380        27
42.390        20
42.400        20
42.410        20
42.420         0
42.430        13
42.440         7
42.450        13
42.460        20
42.470        13
42.480        13
42.490        13
42.500        13
42.510         7
42.520        27
42.530        13
42.540        13
42.550        20
42.560        27
42.570        13
42.580        13
42.590         7
42.600         7
42.610        13
42.620        53
42.630        13
42.640        27
42.650        20
42.660        13
42.670        20
42.680        20
42.690        20
42.700        33
42.710        27
42.720        13
42.730        20
42.740        33
42.750        27
42.760        27
42.770        13
42.780        33
42.790        27
42.800        27
42.810        33
42.820         7
42.830        47
42.840        27
42.850        20
42.860         0
42.870        40
42.880        20
42.890        27
42.900        27
42.910        40
42.920        13
42.930        27
42.940        13
42.950         7
42.960         0
42.970         7
42.980        33
42.990        40
43.000        33
43.010        20
43.020        33
43.030        13
43.040        13
43.050         7
43.060        40
43.070        13
43.080        20
43.090         7
43.100        47
43.110        13
43.120        27
43.130         7
43.140        60
43.150        40
43.160        27
43.170        47
43.180        73
43.190        33
43.200        27
43.210        40
43.220        67
43.230       153
43.240       113
43.250       260
43.260       193
43.270       273
43.280       400
43.290       466
43.300       453
43.310       380
43.320       307
43.330       267
43.340       213
43.350       160
43.360       167
43.370       207
43.380       213
43.390       247
43.400       213
43.410       180
43.420       220
43.430       187
43.440       227
43.450        93
43.460        93
43.470       107
43.480        80
43.490        20
43.500        27
43.510        20
43.520        27
43.530        20
43.540        40
43.550        40
43.560        27
43.570        33
43.580         7
43.590        13
43.600        27
43.610        13
43.620        27
43.630        20
43.640        20
43.650        40
43.660        20
43.670        27
43.680         0
43.690        40
43.700         7
43.710        20
43.720         0
43.730        20
43.740        27
43.750        47
43.760         7
43.770         7
43.780        20
43.790         7
43.800        27
43.810        33
43.820        13
43.830        20
43.840        13
43.850        20
43.860        27
43.870        20
43.880        13
43.890         0
43.900        27
43.910        13
43.920        13
43.930         0
43.940        20
43.950        13
43.960        20
43.970        27
43.980        27
43.990         7
44.000        13
44.010         7
44.020        13
44.030         7
44.040         7
44.050        13
44.060        20
44.070        27
44.080        33
44.090        13
44.100        27
44.110        13
44.120         7
44.130        33
44.140         7
44.150         7
44.160        13
44.170         0
44.180        33
44.190         7
44.200        33
44.210         0
44.220         7
44.230        13
44.240        33
44.250        27
44.260         7
44.270        33
44.280        13
44.290        40
44.300        13
44.310        13
44.320        27
44.330         7
44.340        27
44.350        40
44.360        13
44.370        13
44.380        13
44.390         7
44.400        20
44.410         7
44.420        20
44.430        27
44.440         7
44.450        27
44.460        13
44.470         0
44.480        20
44.490        27
44.500         7
44.510        40
44.520         0
44.530         7
44.540        20
44.550        20
44.560         7
44.570        20
44.580        20
44.590        20
44.600        33
44.610        13
44.620         0
44.630         7
44.640        27
44.650        27
44.660        20
44.670        13
44.680        40
44.690         7
44.700        13
44.710        33
44.720         0
44.730        27
44.740         7
44.750        13
44.760        27
44.770         7
44.780        27
44.790        33
44.800        13
44.810         7
44.820         7
44.830        20
44.840        13
44.850        40
44.860        27
44.870        20
44.880        33
44.890        20
44.900        13
44.910         7
44.920         7
44.930        20
44.940         7
44.950        27
44.960        33
44.970         7
44.980        20
44.990        13
45.000        20
45.010         0
45.020         7
45.030        33
45.040         7
45.050        13
45.060        13
45.070        13
45.080        20
45.090         0
45.100        20
45.110        13
45.120        13
45.130        13
45.140        13
45.150        13
45.160        20
45.170        27
45.180        20
45.190        20
45.200         7
45.210        13
45.220        13
45.230         7
45.240         7
45.250        27
45.260         0
45.270        13
45.280        20
45.290         7
45.300         7
45.310         7
45.320         7
45.330        33
45.340         7
45.350        13
45.360         7
45.370        13
45.380        13
45.390        20
45.400        13
45.410        33
45.420        40
45.430         0
45.440        40
45.450        13
45.460        27
45.470         0
45.480        33
45.490        13
45.500         7
45.510        13
45.520        33
45.530        13
45.540        20
45.550         7
45.560        20
45.570         7
45.580        33
45.590         0
45.600        40
45.610        27
45.620         7
45.630        13
45.640        20
45.650        13
45.660        27
45.670        27
45.680        13
45.690        33
45.700        13
45.710        20
45.720        13
45.730        40
45.740        20
45.750        27
45.760        27
45.770        27
45.780        27
45.790        33
45.800        33
45.810        13
45.820        53
45.830        13
45.840        40
45.850        27
45.860        27
45.870        40
45.880         7
45.890        53
45.900         7
45.910        33
45.920        33
45.930        27
45.940        33
45.950         0
45.960        27
45.970        20
45.980        47
45.990        47
46.000        20
46.010        20
46.020        20
46.030         7
46.040        53
46.050        53
46.060        20
46.070        20
46.080        27
46.090         7
46.100        13
46.110        20
46.120        40
46.130        13
46.140        40
46.150        33
46.160        47
46.170        33
46.180         7
46.190        13
46.200        40
46.210        47
46.220        27
46.230        33
46.240        47
46.250        13
46.260        27
46.270        20
46.280        13
46.290        47
46.300         7
46.310        20
46.320        20
46.330         7
46.340        20
46.350        13
46.360         7
46.370        13
46.380        20
46.390         7
46.400         7
46.410         7
46.420        20
46.430        13
46.440        13
46.450        40
46.460        20
46.470        20
46.480        13
46.490        20
46.500        13
46.510         0
46.520        20
46.530        27
46.540        13
46.550        13
46.560        13
46.570         7
46.580        13
46.590         7
46.600        20
46.610        13
46.620        20
46.630        27
46.640        20
46.650        33
46.660        13
46.670        20
46.680        13
46.690        13
46.700        13
46.710        13
46.720         0
46.730        13
46.740        13
46.750        27
46.760         0
46.770         7
46.780        27
46.790        13
46.800         0
46.810         7
46.820        13
46.830        13
46.840        27
46.850        20
46.860        27
46.870        47
46.880        33
46.890        20
46.900        20
46.910        20
46.920         7
46.930        13
46.940        13
46.950         7
46.960        33
46.970         0
46.980        20
46.990        27
47.000         7
47.010        13
47.020        20
47.030        33
47.040        13
47.050        13
47.060        27
47.070         7
47.080        20
47.090        13
47.100        27
47.110        13
47.120        13
47.130        27
47.140         7
47.150        20
47.160        27
47.170        33
47.180        33
47.190        33
47.200         7
47.210        40
47.220         7
47.230         7
47.240        20
47.250        13
47.260         7
47.270        20
47.280        13
47.290        20
47.300         7
47.310        20
47.320         7
47.330         7
47.340        13
47.350        13
47.360        13
47.370        13
47.380        27
47.390        27
47.400        27
47.410        33
47.420        13
47.430        47
47.440        33
47.450         7
47.460         7
47.470        13
47.480         7
47.490        20
47.500        13
47.510        13
47.520         0
47.530        20
47.540        33
47.550        27
47.560        20
47.570        13
47.580        20
47.590        27
47.600        13
47.610        20
47.620        13
47.630        27
47.640         7
47.650        20
47.660         0
47.670        33
47.680        13
47.690         7
47.700        40
47.710         0
47.720        20
47.730        33
47.740        20
47.750         7
47.760        13
47.770         7
47.780        13
47.790         7
47.800        13
47.810        20
47.820         7
47.830        13
47.840        13
47.850         7
47.860        13
47.870        27
47.880         7
47.890         7
47.900         7
47.910        13
47.920         7
47.930         0
47.940        20
47.950         0
47.960        13
47.970        20
47.980        20
47.990        13
48.000        27
48.010        33
48.020         7
48.030        20
48.040         7
48.050         7
48.060        27
48.070         0
48.080         0
48.090        13
48.100        13
48.110        27
48.120        33
48.130        13
48.140         7
48.150        20
48.160         7
48.170        27
48.180        13
48.190         7
48.200        20
48.210        13
48.220        20
48.230        27
48.240        47
48.250        20
48.260        27
48.270        20
48.280        20
48.290        20
48.300        13
48.310        27
48.320         7
48.330         7
48.340        20
48.350        13
48.360        13
48.370        20
48.380        13
48.390         7
48.400        13
48.410        20
48.420        27
48.430        13
48.440        27
48.450        20
48.460        27
48.470        20
48.480        13
48.490        13
48.500        13
48.510         0
48.520         0
48.530         7
48.540         0
48.550        13
48.560        27
48.570        27
48.580        13
48.590        27
48.600        20
48.610        53
48.620         0
48.630         7
48.640        40
48.650         7
48.660        27
48.670        13
48.680        13
48.690         7
48.700        13
48.710        13
48.720        20
48.730        20
48.740        20
48.750        13
48.760        13
48.770         0
48.780         7
48.790         7
48.800         7
48.810        13
48.820        33
48.830        27
48.840         0
48.850        13
48.860         7
48.870        20
48.880        20
48.890        20
48.900        27
48.910         7
48.920        27
48.930        27
48.940        27
48.950        13
48.960         0
48.970        40
48.980        27
48.990        20
49.000         7
49.010         7
49.020        13
49.030         7
49.040        20
49.050        27
49.060        27
49.070         0
49.080        20
49.090        33
49.100        13
49.110        20
49.120        13
49.130        20
49.140        13
49.150         7
49.160         7
49.170        13
49.180        13
49.190        13
49.200        27
49.210        13
49.220         7
49.230         0
49.240         0
49.250        27
49.260         0
49.270        20
49.280        13
49.290        13
49.300         0
49.310        13
49.320        27
49.330         7
49.340        13
49.350        27
49.360        13
49.370         7
49.380        33
49.390        20
49.400        13
49.410        20
49.420        33
49.430        13
49.440         7
49.450        20
49.460        20
49.470         0
49.480         7
49.490        20
49.500         7
49.510        20
49.520         0
49.530        20
49.540        13
49.550        20
49.560        13
49.570        20
49.580         0
49.590        13
49.600         7
49.610         0
49.620        27
49.630         7
49.640         7
49.650         7
49.660        27
49.670         7
49.680        13
49.690        20
49.700        20
49.710         7
49.720        27
49.730         0
49.740         7
49.750        20
49.760        13
49.770         0
49.780         7
49.790        13
49.800        13
49.810        13
49.820        20
49.830         0
49.840        27
49.850        20
49.860         0
49.870         0
49.880         7
49.890        27
49.900        27
49.910         0
49.920        27
49.930        27
49.940        13
49.950        20
49.960        13
49.970        13
49.980         7
49.990        13
50.000         7
50.010        13
50.020         7
50.030         7
50.040         7
50.050         0
50.060        40
50.070         7
50.080         0
50.090        20
50.100         0
50.110        13
50.120        13
50.130         0
50.140        20
50.150        27
50.160         7
50.170        13
50.180        13
50.190        27
50.200        13
50.210         7
50.220        27
50.230         7
50.240        20
50.250         7
50.260        13
50.270        13
50.280        13
50.290        13
50.300         0
50.310         7
50.320        13
50.330        13
50.340         7
50.350        13
50.360        13
50.370        13
50.380         7
50.390        13
50.400        40
50.410        13
50.420        13
50.430         0
50.440        33
50.450        20
50.460        27
50.470        27
50.480         0
50.490        13
50.500         0
50.510        27
50.520         7
50.530        13
50.540        13
50.550        20
50.560        27
50.570        20
50.580        20
50.590        20
50.600        40
50.610        20
50.620         7
50.630        47
50.640         7
50.650        20
50.660         0
50.670         7
50.680        13
50.690        27
50.700        20
50.710         7
50.720        27
50.730        27
50.740        13
50.750        20
50.760        33
50.770        13
50.780         7
50.790         0
50.800         7
50.810         0
50.820         7
50.830         0
50.840        13
50.850        27
50.860        13
50.870        20
50.880        13
50.890         7
50.900         0
50.910        13
50.920        13
50.930         7
50.940         7
50.950        20
50.960         7
50.970         0
50.980        13
50.990         0
51.000        13
51.010        33
51.020        13
51.030        40
51.040        33
51.050        20
51.060         7
51.070        20
51.080         7
51.090         7
51.100        20
51.110        20
51.120        13
51.130        13
51.140        40
51.150         7
51.160         7
51.170         7
51.180        20
51.190         7
51.200        13
51.210        20
51.220        20
51.230        27
51.240        13
51.250         7
51.260        20
51.270         7
51.280         7
51.290         0
51.300        13
51.310        13
51.320        13
51.330         0
51.340        27
51.350         7
51.360        13
51.370        13
51.380        13
51.390        20
51.400        20
51.410        13
51.420        13
51.430        20
51.440         0
51.450         7
51.460        20
51.470        20
51.480         7
51.490        20
51.500        20
51.510        40
51.520        20
51.530        33
51.540        13
51.550        20
51.560        33
51.570        13
51.580         7
51.590        20
51.600        20
51.610         7
51.620         7
51.630         7
51.640         0
51.650         0
51.660         7
51.670         7
51.680         7
51.690        20
51.700        20
51.710        20
51.720        33
51.730        13
51.740        27
51.750         7
51.760        20
51.770         0
51.780        27
51.790        47
51.800        13
51.810        13
51.820         7
51.830        33
51.840        13
51.850         7
51.860         0
51.870        27
51.880        13
51.890         0
51.900         7
51.910         0
51.920        13
51.930         7
51.940        20
51.950        47
51.960        13
51.970        13
51.980        20
51.990        47
52.000        40
52.010        33
52.020        20
52.030        20
52.040         0
52.050         7
52.060        13
52.070        13
52.080         7
52.090         7
52.100        20
52.110         7
52.120         7
52.130        20
52.140         0
52.150         7
52.160        13
52.170        13
52.180         7
52.190         7
52.200        13
52.210         7
52.220        13
52.230        13
52.240        27
52.250        27
52.260        33
52.270        27
52.280        20
52.290        47
52.300         0
52.310         7
52.320        27
52.330        53
52.340        40
52.350        13
52.360        20
52.370        60
52.380        33
52.390        47
52.400        67
52.410        60
52.420        60
52.430       100
52.440        73
52.450       160
52.460       153
52.470       193
52.480       153
52.490       127
52.500       147
52.510       167
52.520       153
52.530       173
52.540       300
52.550       273
52.560       320
52.570       267
52.580       307
52.590       260
52.600       220
52.610       147
52.620       160
52.630       127
52.640       100
52.650        93
52.660       100
52.670       127
52.680       120
52.690       147
52.700       140
52.710        80
52.720       133
52.730       107
52.740        53
52.750        60
52.760        33
52.770        40
52.780        33
52.790        13
52.800        13
52.810        20
52.820        27
52.830        20
52.840         7
52.850        20
52.860        13
52.870         7
52.880        20
52.890         7
52.900        20
52.910         7
52.920        33
52.930         0
52.940         0
52.950        13
52.960        20
52.970        20
52.980        33
52.990        13
53.000        27
53.010         0
53.020        40
53.030        13
53.040         7
53.050        20
53.060        13
53.070        13
53.080        13
53.090         0
53.100        13
53.110        20
53.120         7
53.130        13
53.140         0
53.150         7
53.160        13
53.170        13
53.180        33
53.190        13
53.200         0
53.210        20
53.220        13
53.230        13
53.240        13
53.250         7
53.260         7
53.270         0
53.280         0
53.290         7
53.300         0
53.310        33
53.320        13
53.330        13
53.340         0
53.350        13
53.360        20
53.370        33
53.380         7
53.390        20
53.400         7
53.410        20
53.420        20
53.430         0
53.440         7
53.450        13
53.460         0
53.470         0
53.480         0
53.490        20
53.500         0
53.510         7
53.520        27
53.530        27
53.540        13
53.550        27
53.560         0
53.570         0
53.580        13
53.590        20
53.600        13
53.610        20
53.620        20
53.630        13
53.640        20
53.650         7
53.660        20
53.670        20
53.680         7
53.690        13
53.700        20
53.710         0
53.720         0
53.730        20
53.740        20
53.750        13
53.760         7
53.770         7
53.780        13
53.790        20
53.800         7
53.810        13
53.820        33
53.830         7
53.840         7
53.850         7
53.860         7
53.870         7
53.880        20
53.890        13
53.900        13
53.910         0
53.920        13
53.930         0
53.940        33
53.950         0
53.960         7
53.970        20
53.980         0
53.990         0
54.000        20
54.010        27
54.020         7
54.030         7
54.040        27
54.050         7
54.060        27
54.070        13
54.080        20
54.090        27
54.100        13
54.110         7
54.120        20
54.130         0
54.140         7
54.150         7
54.160        13
54.170        13
54.180        53
54.190        33
54.200         0
54.210         0
54.220        13
54.230        20
54.240        13
54.250        20
54.260        13
54.270        13
54.280         0
54.290        20
54.300         7
54.310         7
54.320        13
54.330        47
54.340        27
54.350        13
54.360         0
54.370        20
54.380        13
54.390         0
54.400         7
54.410        13
54.420         7
54.430        33
54.440        20
54.450        13
54.460        13
54.470         7
54.480        20
54.490        13
54.500        20
54.510        20
54.520         0
54.530        20
54.540         7
54.550        13
54.560         7
54.570         0
54.580         0
54.590         7
54.600        27
54.610        33
54.620        20
54.630        13
54.640         7
54.650        13
54.660        27
54.670        13
54.680        13
54.690         7
54.700         7
54.710         7
54.720         7
54.730        13
54.740        13
54.750        20
54.760        33
54.770         7
54.780         7
54.790        20
54.800        27
54.810         7
54.820        27
54.830        20
54.840         0
54.850        27
54.860        13
54.870         7
54.880        13
54.890        27
54.900        20
54.910        20
54.920        20
54.930         7
54.940         7
54.950        13
54.960        13
54.970        13
54.980         7
54.990        20
55.000        20
55.010        13
55.020        33
55.030        40
55.040        13
55.050        13
55.060        20
55.070        20
55.080         7
55.090        27
55.100         0
55.110         0
55.120         0
55.130        27
55.140        20
55.150        33
55.160         7
55.170         7
55.180        13
55.190         0
55.200        13
55.210         7
55.220         7
55.230        33
55.240        13
55.250        20
55.260        13
55.270         0
55.280        13
55.290        13
55.300         0
55.310        13
55.320         7
55.330         7
55.340        27
55.350        13
55.360        13
55.370        20
55.380         7
55.390        13
55.400        20
55.410        13
55.420         7
55.430        13
55.440        27
55.450        20
55.460        13
55.470        20
55.480        13
55.490        13
55.500         0
55.510        13
55.520         7
55.530         7
55.540        13
55.550        20
55.560        40
55.570        20
55.580         7
55.590         0
55.600         7
55.610         7
55.620         7
55.630         7
55.640         7
55.650        13
55.660        27
55.670         7
55.680         0
55.690        20
55.700         7
55.710         7
55.720         7
55.730        27
55.740        13
55.750         0
55.760        13
55.770         0
55.780        13
55.790         0
55.800        13
55.810         7
55.820        20
55.830         0
55.840         7
55.850        20
55.860         7
55.870        20
55.880        13
55.890         7
55.900        20
55.910         7
55.920         7
55.930         0
55.940        33
55.950        13
55.960         7
55.970        33
55.980        20
55.990         7
56.000         7
56.010        27
56.020        20
56.030         7
56.040         7
56.050        13
56.060         7
56.070        13
56.080        13
56.090        33
56.100         0
56.110         7
56.120         7
56.130        13
56.140         7
56.150         7
56.160         7
56.170         7
56.180        13
56.190        27
56.200        13
56.210        20
56.220        13
56.230        13
56.240        20
56.250         7
56.260         7
56.270         7
56.280        13
56.290        27
56.300        13
56.310        20
56.320        27
56.330        47
56.340        13
56.350         7
56.360         7
56.370         7
56.380         7
56.390         0
56.400        13
56.410         0
56.420         7
56.430         7
56.440         7
56.450        33
56.460        13
56.470         7
56.480        27
56.490         0
56.500        13
56.510         0
56.520        20
56.530        27
56.540        27
56.550         7
56.560        20
56.570         0
56.580        20
56.590        13
56.600        40
56.610        20
56.620        20
56.630         0
56.640        20
56.650        13
56.660         7
56.670         0
56.680         7
56.690        27
56.700         7
56.710        20
56.720         7
56.730         7
56.740         0
56.750         0
56.760        13
56.770         0
56.780        13
56.790        20
56.800        20
56.810         7
56.820         7
56.830        20
56.840         0
56.850         7
56.860        13
56.870        20
56.880         0
56.890         7
56.900        13
56.910        33
56.920        20
56.930        20
56.940         0
56.950        33
56.960        13
56.970        13
56.980        20
56.990        27
57.000         7
57.010        13
57.020         7
57.030        13
57.040        20
57.050         7
57.060        20
57.070         7
57.080        13
57.090        20
57.100         7
57.110        13
57.120         7
57.130        20
57.140        33
57.150        20
57.160        20
57.170        33
57.180        27
57.190        47
57.200        20
57.210        40
57.220        20
57.230        27
57.240        33
57.250        33
57.260        27
57.270        67
57.280       100
57.290       140
57.300       167
57.310       207
57.320       173
57.330       227
57.340       180
57.350       133
57.360       133
57.370        87
57.380       100
57.390       113
57.400        87
57.410       187
57.420       147
57.430       193
57.440       273
57.450       426
57.460       426
57.470       666
57.480       900
57.490       860
57.500       813
57.510       786
57.520       713
57.530       580
57.540       413
57.550       327
57.560       227
57.570       200
57.580       207
57.590       133
57.600       187
57.610       187
57.620       287
57.630       273
57.640       413
57.650       347
57.660       413
57.670       347
57.680       333
57.690       260
57.700       173
57.710       113
57.720        93
57.730        33
57.740        33
57.750        67
57.760        27
57.770        60
57.780        33
57.790        13
57.800        27
57.810        27
57.820        33
57.830        27
57.840        40
57.850         7
57.860        33
57.870        27
57.880        20
57.890        13
57.900        27
57.910        13
57.920         7
57.930        20
57.940        20
57.950        20
57.960        13
57.970         7
57.980        47
57.990        27
58.000        60
58.010        13
58.020        47
58.030        20
58.040         0
58.050         0
58.060        13
58.070        27
58.080         7
58.090        20
58.100        20
58.110        13
58.120         0
58.130         0
58.140        33
58.150        13
58.160         7
58.170        13
58.180         0
58.190        20
58.200        20
58.210         0
58.220         7
58.230         0
58.240         7
58.250        20
58.260         0
58.270        27
58.280        13
58.290         7
58.300         7
58.310        20
58.320        20
58.330        13
58.340         7
58.350         7
58.360        13
58.370        13
58.380        27
58.390         7
58.400        20
58.410        20
58.420        13
58.430        13
58.440        13
58.450         7
58.460        13
58.470        20
58.480        27
58.490        20
58.500        13
58.510        20
58.520        53
58.530        27
58.540        20
58.550        33
58.560        20
58.570         7
58.580        13
58.590        20
58.600        13
58.610         7
58.620         7
58.630        20
58.640        27
58.650         0
58.660        13
58.670         7
58.680        13
58.690         0
58.700        13
58.710        13
58.720        27
58.730        13
58.740        13
58.750         7
58.760        20
58.770         7
58.780         0
58.790         7
58.800        13
58.810        13
58.820         0
58.830        13
58.840        20
58.850        13
58.860        20
58.870        13
58.880        27
58.890         7
58.900         0
58.910        20
58.920         0
58.930        13
58.940        13
58.950        13
58.960         7
58.970         7
58.980        13
58.990         7
59.000        13
59.010        13
59.020        20
59.030        13
59.040        13
59.050        20
59.060        13
59.070        20
59.080        13
59.090        20
59.100        13
59.110        27
59.120         7
59.130        13
59.140        20
59.150         7
59.160        33
59.170         7
59.180        20
59.190        13
59.200        20
59.210        27
59.220        13
59.230        13
59.240         0
59.250         7
59.260         7
59.270        13
59.280        13
59.290        27
59.300        20
59.310        13
59.320        20
59.330        27
59.340         7
59.350         7
59.360        13
59.370        20
59.380        13
59.390        20
59.400         0
59.410        20
59.420        27
59.430        13
59.440        27
59.450         0
59.460         7
59.470        13
59.480        13
59.490         0
59.500        13
59.510        20
59.520        13
59.530        13
59.540         7
59.550         7
59.560        13
59.570         7
59.580        33
59.590        20
59.600        13
59.610        27
59.620        13
59.630        13
59.640        13
59.650        27
59.660         7
59.670        33
59.680        27
59.690        27
59.700         0
59.710        13
59.720        40
59.730        27
59.740        47
59.750         7
59.760        20
59.770         7
59.780        13
59.790        20
59.800        20
59.810        40
59.820        13
59.830        13
59.840        27
59.850         7
59.860         7
59.870        13
59.880        13
59.890        27
59.900         7
59.910        20
59.920         0
59.930        20
59.940         7
59.950        13
59.960        13
59.970         7
59.980         0
59.990        13
60.000        13
