20.000        53
20.010        53
20.020        53
20.030        60
20.040        53
20.050        33
20.060        67
20.070        60
20.080        27
20.090        40
20.100        47
20.110        33
20.120        20
20.130        40
20.140        20
20.150        67
20.160        40
20.170        27
20.180        80
20.190        60
20.200        40
20.210        80
20.220        33
20.230        27
20.240        67
20.250        80
20.260        33
20.270        33
20.280        27
20.290        20
20.300        13
20.310        47
20.320        47
20.330        20
20.340        40
20.350         0
20.360        13
20.370        60
20.380        33
20.390        53
20.400        47
20.410        60
20.420        67
20.430        47
20.440        33
20.450        27
20.460        40
20.470        40
20.480        73
20.490        73
20.500        33
20.510        20
20.520        53
20.530        33
20.540        33
20.550        27
20.560        67
20.570        40
20.580        33
20.590        47
20.600        67
20.610        53
20.620        13
20.630        33
20.640        53
20.650        33
20.660        13
20.670        20
20.680        67
20.690        33
20.700        53
20.710        27
20.720        53
20.730        53
20.740        20
20.750        27
20.760        47
20.770        27
20.780        33
20.790        60
20.800        47
20.810        27
20.820        60
20.830        53
20.840        73
20.850        20
20.860        33
20.870        33
20.880        33
20.890        20
20.900        40
20.910        20
20.920        47
20.930        73
20.940        27
20.950        47
20.960        33
20.970        20
20.980        47
20.990        60
21.000        80
21.010        13
21.020        40
21.030        33
21.040        27
21.050        53
21.060        40
21.070        27
21.080        40
21.090        47
21.100        13
21.110        40
21.120        60
21.130        53
21.140        47
21.150        20
21.160        20
21.170        67
21.180        33
21.190        53
21.200        20
21.210        60
21.220        27
21.230        33
21.240        33
21.250        27
21.260        27
21.270        67
21.280        53
21.290        53
21.300        67
21.310        13
21.320        13
21.330        33
21.340        20
21.350        40
21.360        13
21.370        40
21.380        33
21.390        60
21.400        47
21.410        47
21.420        13
21.430        60
21.440        47
21.450        33
21.460        27
21.470        60
21.480        20
21.490        40
21.500        40
21.510        47
21.520        20
21.530        40
21.540        40
21.550        73
21.560        60
21.570        40
21.580        93
21.590        33
21.600        53
21.610        53
21.620        73
21.630        60
21.640        13
21.650        33
21.660        80
21.670        13
21.680        27
21.690        53
21.700        33
21.710        33
21.720        27
21.730        53
21.740        13
21.750        27
21.760        67
21.770        33
21.780        40
21.790        20
21.800        33
21.810        67
21.820        60
21.830        33
21.840        20
21.850        33
21.860        67
21.870        20
21.880        33
21.890        47
21.900        67
21.910        40
21.920        67
21.930        40
21.940        13
21.950        20
21.960        53
21.970        60
21.980        40
21.990        53
22.000        53
22.010        27
22.020        27
22.030        47
22.040        20
22.050        53
22.060        60
22.070        20
22.080        27
22.090        20
22.100        60
22.110        40
22.120        53
22.130        47
22.140        27
22.150         7
22.160        27
22.170        67
22.180        13
22.190        20
22.200        33
22.210        47
22.220        13
22.230        20
22.240        20
22.250        67
22.260        53
22.270        67
22.280        27
22.290        27
22.300        20
22.310        33
22.320        53
22.330        47
22.340        27
22.350        53
22.360        60
22.370        40
22.380        67
22.390        20
22.400        53
22.410        60
22.420        47
22.430        40
22.440        73
22.450        20
22.460        40
22.470        33
22.480        73
22.490        67
22.500        33
22.510        47
22.520       120
22.530        80
22.540        87
22.550       140
22.560       100
22.570        87
22.580        87
22.590       127
22.600       140
22.610       153
22.620       167
22.630       160
22.640       120
22.650       133
22.660       220
22.670       247
22.680       280
22.690       313
22.700       213
22.710       313
22.720       220
22.730       347
22.740       307
22.750       227
22.760       220
22.770       333
22.780       320
22.790       220
22.800       260
22.810       267
22.820       220
22.830       160
22.840       167
22.850       133
22.860       160
22.870       133
22.880       140
22.890       140
22.900       140
22.910        93
22.920       107
22.930        73
22.940        67
22.950        80
22.960        60
22.970        73
22.980        33
22.990        60
23.000        73
23.010        40
23.020        73
23.030        40
23.040        33
23.050        67
23.060        60
23.070       107
23.080        33
23.090        33
23.100        60
23.110        53
23.120        40
23.130        33
23.140        33
23.150        20
23.160        40
23.170        47
23.180        40
23.190        27
23.200        60
23.210        40
23.220        60
23.230        60
23.240        27
23.250        27
23.260        53
23.270        53
23.280        33
23.290        13
23.300        60
23.310        33
23.320        33
23.330        80
23.340        47
23.350        27
23.360        53
23.370        47
23.380        60
23.390        33
23.400        13
23.410        40
23.420        33
23.430        93
23.440        27
23.450        47
23.460        80
23.470        33
23.480        53
23.490        67
23.500        27
23.510        40
23.520        53
23.530        40
23.540        33
23.550        27
23.560        33
23.570         7
23.580        27
23.590        40
23.600        40
23.610        20
23.620        27
23.630        93
23.640        40
23.650        33
23.660        27
23.670         0
23.680        20
23.690        27
23.700        40
23.710        60
23.720        60
23.730        47
23.740        27
23.750        53
23.760        27
23.770        27
23.780        47
23.790        27
23.800        40
23.810        33
23.820        40
23.830        33
23.840        67
23.850        20
23.860        33
23.870        33
23.880        40
23.890        27
23.900        47
23.910        53
23.920        40
23.930        27
23.940        60
23.950        40
23.960        27
23.970        20
23.980        67
23.990        33
24.000        33
24.010        33
24.020        27
24.030        27
24.040        60
24.050        27
24.060        13
24.070        73
24.080        27
24.090        53
24.100        27
24.110        47
24.120        53
24.130        47
24.140        40
24.150        60
24.160        47
24.170        60
24.180         7
24.190        47
24.200        33
24.210        73
24.220        27
24.230        53
24.240        20
24.250        60
24.260        27
24.270        27
24.280        47
24.290        40
24.300        27
24.310        53
24.320        33
24.330        27
24.340        60
24.350        33
24.360        13
24.370        20
24.380        67
24.390        47
24.400        27
24.410        60
24.420        53
24.430        20
24.440        47
24.450        27
24.460        60
24.470        13
24.480        33
24.490        60
24.500        13
24.510        27
24.520        27
24.530        40
24.540        40
24.550        33
24.560        40
24.570        20
24.580        40
24.590        33
24.600        47
24.610        33
24.620        20
24.630        40
24.640        33
24.650        27
24.660        33
24.670        27
24.680        47
24.690        40
24.700        27
24.710        40
24.720         0
24.730        27
24.740        20
24.750        20
24.760        27
24.770        27
24.780        27
24.790        60
24.800        20
24.810        27
24.820        47
24.830        40
24.840        33
24.850        20
24.860        20
24.870        47
24.880        40
24.890        33
24.900        13
24.910        47
24.920        20
24.930        33
24.940        47
24.950        33
24.960        20
24.970        40
24.980        40
24.990         7
25.000        13
25.010        13
25.020        47
25.030        13
25.040        40
25.050        47
25.060        53
25.070        27
25.080        33
25.090        13
25.100        40
25.110        20
25.120        33
25.130        27
25.140        13
25.150        60
25.160        27
25.170        40
25.180        27
25.190        13
25.200        33
25.210        53
25.220        27
25.230        67
25.240        20
25.250        40
25.260        27
25.270        60
25.280        53
25.290        27
25.300        27
25.310        80
25.320        53
25.330        20
25.340        13
25.350        27
25.360        40
25.370        40
25.380        27
25.390        20
25.400         7
25.410        60
25.420        33
25.430        53
25.440        27
25.450        33
25.460        40
25.470        20
25.480        20
25.490        53
25.500        33
25.510        13
25.520        33
25.530        20
25.540        40
25.550        53
25.560        33
25.570        40
25.580        13
25.590        40
25.600        33
25.610        60
25.620        47
25.630        40
25.640        67
25.650        27
25.660        67
25.670        53
25.680        47
25.690        67
25.700        93
25.710        53
25.720        40
25.730        40
25.740        33
25.750        33
25.760        60
25.770        20
25.780        27
25.790        60
25.800        27
25.810        33
25.820        47
25.830        47
25.840        33
25.850        53
25.860        27
25.870        53
25.880        60
25.890        53
25.900        67
25.910        33
25.920        47
25.930        40
25.940        20
25.950        33
25.960        27
25.970        47
25.980        47
25.990        60
26.000        33
26.010        47
26.020        33
26.030        47
26.040        20
26.050        33
26.060         7
26.070        33
26.080        40
26.090        33
26.100        40
26.110        67
26.120        33
26.130        60
26.140        40
26.150        33
26.160        47
26.170        20
26.180        53
26.190        27
26.200        33
26.210        13
26.220        13
26.230        40
26.240        27
26.250        47
26.260        47
26.270        47
26.280        13
26.290        33
26.300        20
26.310        33
26.320        27
26.330        47
26.340        40
26.350        20
26.360        33
26.370        27
26.380        47
26.390        27
26.400        40
26.410        33
26.420        27
26.430        27
26.440        33
26.450        47
26.460        40
26.470        13
26.480        33
26.490        13
26.500        13
26.510        27
26.520        33
26.530        27
26.540        40
26.550        13
26.560        20
26.570        27
26.580        47
26.590        47
26.600        47
26.610        20
26.620        40
26.630        47
26.640        47
26.650        33
26.660        20
26.670        27
26.680        27
26.690        20
26.700        47
26.710        27
26.720        53
26.730         7
26.740         7
26.750        27
26.760         7
26.770        27
26.780        47
26.790        53
26.800        27
26.810        20
26.820        40
26.830        20
26.840        53
26.850        73
26.860         0
26.870        33
26.880        33
26.890        13
26.900        13
26.910        47
26.920        33
26.930         7
26.940        27
26.950         7
26.960        27
26.970        13
26.980        27
26.990        40
27.000        60
27.010        13
27.020        13
27.030        33
27.040        40
27.050        27
27.060         7
27.070        33
27.080        27
27.090        47
27.100         0
27.110        33
27.120        40
27.130        20
27.140        27
27.150        53
27.160        20
27.170        67
27.180        27
27.190        27
27.200        13
27.210        33
27.220        27
27.230        27
27.240        33
27.250        33
27.260        20
27.270        47
27.280        33
27.290        20
27.300        20
27.310        33
27.320        40
27.330        47
27.340        20
27.350        47
27.360        20
27.370        33
27.380        27
27.390        40
27.400        40
27.410        20
27.420        33
27.430        27
27.440        20
27.450        27
27.460        53
27.470        13
27.480        40
27.490        67
27.500        33
27.510        33
27.520        20
27.530        20
27.540        40
27.550        47
27.560        13
27.570        20
27.580        33
27.590        13
27.600        20
27.610        73
27.620        20
27.630        40
27.640        53
27.650        47
27.660        67
27.670        13
27.680        40
27.690        67
27.700        20
27.710        27
27.720        27
27.730        13
27.740        27
27.750        53
27.760        13
27.770        27
27.780        40
27.790        33
27.800        13
27.810        40
27.820        27
27.830        33
27.840        47
27.850        27
27.860        27
27.870        53
27.880        33
27.890        13
27.900        33
27.910        47
27.920        40
27.930        13
27.940         0
27.950        33
27.960        47
27.970        27
27.980        20
27.990         7
28.000        27
28.010        53
28.020        20
28.030        47
28.040        33
28.050        40
28.060        53
28.070        33
28.080         7
28.090        33
28.100        47
28.110        20
28.120        40
28.130        20
28.140        53
28.150        27
28.160        33
28.170        33
28.180        33
28.190        20
28.200         7
28.210        13
28.220        20
28.230        20
28.240        33
28.250        20
28.260        27
28.270        13
28.280        27
28.290         0
28.300        27
28.310        53
28.320        40
28.330        47
28.340        27
28.350        13
28.360        20
28.370        53
28.380        20
28.390         7
28.400        27
28.410        53
28.420        67
28.430        13
28.440        20
28.450        40
28.460         7
28.470        40
28.480        33
28.490        33
28.500        53
28.510        27
28.520        13
28.530        33
28.540        27
28.550        13
28.560        20
28.570        20
28.580        13
28.590        40
28.600         7
28.610        27
28.620        27
28.630        47
28.640        33
28.650        33
28.660        33
28.670        53
28.680        40
28.690        33
28.700        13
28.710        40
28.720        27
28.730        33
28.740        40
28.750        33
28.760        47
28.770        33
28.780        20
28.790        13
28.800        20
28.810        33
28.820        40
28.830        33
28.840        33
28.850        40
28.860        33
28.870        27
28.880        20
28.890         7
28.900        20
28.910        20
28.920        47
28.930        20
28.940        27
28.950        47
28.960         0
28.970        13
28.980        13
28.990        20
29.000        40
29.010        40
29.020        33
29.030        40
29.040        33
29.050        27
29.060        47
29.070        33
29.080        27
29.090         0
29.100        47
29.110        33
29.120        20
29.130        27
29.140        33
29.150        13
29.160        13
29.170        20
29.180        27
29.190        47
29.200        27
29.210        47
29.220        33
29.230        60
29.240        40
29.250        47
29.260        40
29.270        67
29.280        20
29.290        27
29.300        33
29.310        13
29.320        20
29.330        20
29.340        20
29.350        20
29.360        33
29.370        20
29.380        47
29.390        13
29.400        27
29.410        13
29.420        33
29.430        20
29.440        13
29.450        20
29.460        27
29.470        33
29.480        53
29.490        47
29.500        40
29.510        47
29.520        60
29.530        27
29.540        27
29.550        13
29.560        47
29.570        27
29.580        20
29.590        47
29.600        47
29.610        13
29.620        27
29.630        33
29.640        33
29.650        13
29.660        20
29.670        20
29.680        13
29.690        20
29.700        20
29.710        33
29.720        13
29.730        27
29.740        33
29.750        27
29.760        27
29.770        40
29.780        47
29.790        27
29.800        33
29.810        40
29.820        27
29.830        27
29.840        40
29.850        13
29.860        20
29.870         7
29.880        27
29.890        20
29.900        27
29.910        47
29.920        33
29.930        27
29.940         7
29.950        20
29.960        33
29.970        27
29.980        13
29.990        33
30.000         0
30.010        40
30.020         7
30.030        33
30.040        33
30.050        47
30.060        20
30.070        13
30.080        20
30.090        20
30.100        20
30.110        20
30.120         7
30.130        27
30.140        27
30.150        20
30.160        40
30.170        27
30.180        13
30.190         7
30.200        20
30.210        40
30.220         0
30.230         7
30.240        27
30.250        13
30.260         0
30.270        40
30.280        20
30.290        53
30.300        60
30.310        27
30.320         7
30.330        20
30.340         7
30.350        53
30.360        20
30.370        20
30.380        20
30.390        27
30.400         7
30.410        27
30.420        47
30.430        40
30.440        20
30.450        20
30.460        40
30.470        20
30.480        20
30.490        13
30.500         7
30.510        20
30.520        27
30.530        47
30.540        40
30.550        13
30.560        20
30.570        20
30.580        13
30.590        40
30.600        13
30.610        20
30.620        13
30.630        27
30.640        27
30.650        40
30.660        27
30.670        20
30.680         0
30.690        13
30.700        20
30.710        20
30.720        20
30.730        27
30.740        27
30.750         7
30.760        20
30.770        33
30.780        13
30.790        67
30.800         7
30.810        20
30.820        33
30.830        27
30.840        33
30.850        27
30.860        13
30.870        27
30.880        33
30.890         7
30.900        20
30.910        40
30.920        20
30.930        20
30.940        13
30.950         0
30.960        27
30.970        20
30.980        47
30.990        33
31.000        13
31.010        27
31.020         7
31.030        13
31.040        20
31.050        40
31.060        33
31.070        33
31.080        40
31.090        13
31.100         7
31.110        40
31.120        20
31.130        13
31.140        40
31.150        40
31.160         7
31.170        40
31.180        40
31.190        27
31.200        13
31.210        47
31.220        40
31.230        47
31.240        27
31.250        33
31.260        47
31.270        33
31.280        40
31.290        73
31.300        53
31.310        33
31.320        33
31.330        33
31.340        13
31.350        27
31.360        20
31.370        40
31.380        33
31.390        13
31.400        73
31.410        67
31.420        47
31.430        27
31.440        73
31.450        27
31.460        27
31.470        20
31.480        27
31.490        53
31.500        67
31.510        33
31.520        40
31.530        27
31.540        40
31.550        53
31.560        60
31.570        53
31.580        20
31.590        60
31.600        33
31.610        67
31.620        60
31.630        53
31.640        60
31.650        40
31.660        27
31.670        33
31.680        27
31.690        47
31.700        60
31.710        60
31.720        33
31.730        60
31.740        20
31.750        60
31.760        67
31.770        67
31.780        80
31.790        60
31.800        80
31.810        80
31.820        33
31.830        60
31.840        80
31.850        27
31.860        53
31.870        73
31.880        53
31.890        33
31.900         7
31.910        60
31.920        60
31.930        47
31.940        87
31.950        73
31.960       107
31.970        73
31.980        60
31.990       107
32.000        67
32.010       100
32.020        87
32.030       100
32.040        73
32.050        93
32.060       167
32.070       100
32.080       147
32.090       173
32.100       133
32.110       167
32.120       153
32.130       147
32.140       207
32.150       200
32.160       247
32.170       240
32.180       293
32.190       340
32.200       446
32.210       446
32.220       553
32.230       400
32.240       513
32.250       646
32.260       860
32.270       866
32.280      1093
32.290      1033
32.300      1180
32.310      1200
32.320      1253
32.330      1606
32.340      1759
32.350      1866
32.360      2079
32.370      2139
32.380      2446
32.390      2652
32.400      2546
32.410      2886
32.420      2899
32.430      2639
32.440      3265
32.450      2772
32.460      2719
32.470      2886
32.480      2672
32.490      2672
32.500      2366
32.510      2272
32.520      2166
32.530      2192
32.540      1966
32.550      1546
32.560      1579
32.570      1446
32.580      1160
32.590      1026
32.600      1040
32.610       920
32.620       613
32.630       673
32.640       593
32.650       380
32.660       473
32.670       340
32.680       466
32.690       207
32.700       327
32.710       267
32.720       267
32.730       280
32.740       240
32.750       220
32.760       180
32.770       127
32.780       227
32.790       133
32.800        93
32.810        67
32.820       107
32.830       147
32.840       127
32.850        87
32.860        53
32.870        80
32.880        80
32.890       127
32.900        67
32.910        53
32.920       113
32.930        47
32.940        80
32.950        40
32.960        73
32.970        60
32.980       107
32.990        47
33.000        47
33.010        67
33.020        33
33.030        93
33.040        60
33.050        73
33.060       100
33.070        67
33.080        73
33.090        40
33.100        67
33.110        47
33.120        47
33.130        33
33.140        87
33.150        40
33.160        33
33.170        60
33.180        67
33.190        40
33.200        33
33.210        60
33.220        47
33.230        60
33.240        40
33.250        27
33.260        40
33.270        60
33.280        27
33.290        47
33.300        33
33.310        20
33.320        40
33.330        33
33.340        40
33.350        27
33.360        47
33.370        33
33.380        47
33.390        40
33.400        40
33.410        20
33.420        53
33.430        20
33.440        33
33.450        40
33.460        40
33.470        27
33.480        20
33.490        47
33.500         7
33.510        27
33.520        47
33.530        53
33.540        40
33.550        33
33.560        27
33.570        13
33.580        47
33.590        33
33.600        13
33.610        27
33.620        20
33.630        67
33.640        47
33.650        20
33.660        27
33.670        47
33.680        27
33.690        53
33.700        53
33.710        40
33.720        33
33.730        33
33.740        67
33.750         0
33.760        33
33.770        33
33.780        27
33.790        47
33.800        33
33.810        13
33.820        20
33.830        53
33.840        33
33.850        40
33.860        60
33.870        47
33.880        27
33.890        27
33.900        40
33.910        27
33.920        33
33.930         7
33.940        20
33.950        40
33.960        20
33.970        33
33.980        33
33.990        13
34.000        40
34.010        13
34.020        40
34.030         7
34.040        13
34.050        47
34.060        53
34.070         7
34.080        47
34.090        13
34.100        13
34.110        33
34.120        20
34.130        27
34.140        53
34.150        33
34.160        27
34.170        40
34.180        40
34.190        53
34.200        33
34.210        33
34.220        47
34.230        27
34.240        53
34.250        27
34.260        13
34.270         7
34.280        20
34.290        47
34.300        33
34.310        60
34.320        13
34.330        33
34.340        20
34.350        27
34.360        13
34.370         0
34.380        20
34.390        20
34.400        27
34.410        20
34.420        27
34.430        27
34.440        53
34.450        13
34.460        20
34.470         0
34.480        53
34.490        27
34.500        27
34.510        27
34.520        33
34.530        20
34.540        53
34.550        13
34.560        13
34.570        20
34.580        33
34.590        20
34.600        40
34.610        33
34.620         7
34.630        27
34.640        47
34.650        40
34.660        20
34.670        40
34.680        27
34.690        47
34.700        27
34.710         7
34.720        33
34.730        40
34.740        27
34.750        20
34.760        33
34.770        13
34.780        20
34.790        27
34.800        20
34.810        27
34.820        47
34.830        33
34.840        27
34.850        27
34.860         7
34.870        27
34.880        33
34.890        53
34.900        40
34.910        27
34.920        47
34.930         7
34.940        27
34.950        40
34.960        47
34.970        27
34.980         7
34.990        27
35.000        20
35.010        27
35.020        20
35.030        60
35.040        20
35.050         0
35.060        13
35.070        47
35.080        47
35.090        60
35.100        40
35.110        47
35.120        33
35.130        47
35.140        27
35.150        20
35.160        20
35.170        20
35.180        27
35.190         7
35.200        13
35.210        40
35.220        47
35.230        60
35.240        27
35.250        40
35.260        27
35.270        20
35.280        13
35.290        33
35.300        27
35.310        40
35.320         7
35.330        27
35.340        33
35.350        40
35.360        27
35.370        47
35.380        33
35.390        40
35.400        20
35.410         7
35.420        20
35.430         7
35.440        20
35.450        27
35.460        20
35.470        13
35.480         0
35.490         7
35.500        33
35.510        13
35.520         7
35.530        47
35.540         7
35.550        20
35.560        13
35.570        20
35.580         7
35.590        27
35.600        20
35.610        20
35.620        13
35.630        13
35.640        13
35.650         7
35.660        47
35.670         7
35.680        27
35.690        33
35.700         0
35.710        20
35.720        27
35.730        27
35.740        33
35.750        40
35.760        27
35.770        47
35.780         7
35.790        20
35.800        33
35.810        20
35.820        33
35.830        40
35.840         7
35.850        27
35.860        13
35.870         7
35.880        53
35.890        33
35.900        13
35.910        27
35.920        27
35.930        13
35.940        40
35.950        20
35.960        33
35.970         7
35.980         7
35.990        27
36.000        20
36.010        33
36.020        27
36.030        13
36.040        13
36.050        13
36.060        20
36.070        13
36.080        33
36.090        40
36.100        20
36.110        47
36.120         7
36.130        40
36.140        27
36.150        33
36.160        33
36.170        27
36.180        13
36.190        40
36.200        20
36.210        27
36.220        13
36.230        40
36.240        27
36.250        27
36.260        13
36.270         7
36.280        13
36.290        27
36.300         0
36.310        40
36.320        20
36.330        27
36.340        27
36.350        33
36.360        33
36.370        20
36.380         0
36.390        33
36.400        20
36.410        13
36.420        13
36.430        33
36.440        13
36.450         7
36.460        20
36.470        13
36.480         7
36.490        33
36.500        47
36.510        27
36.520        13
36.530        27
36.540        40
36.550        13
36.560        33
36.570        33
36.580        40
36.590        13
36.600        33
36.610        13
36.620        27
36.630        33
36.640        27
36.650        13
36.660        40
36.670        27
36.680        20
36.690        33
36.700        47
36.710        20
36.720        27
36.730        27
36.740        27
36.750        20
36.760         0
36.770         7
36.780        27
36.790        27
36.800        27
36.810        27
36.820        33
36.830        13
36.840        33
36.850        27
36.860        20
36.870        20
36.880         0
36.890        40
36.900        20
36.910        13
36.920        27
36.930        13
36.940        40
36.950        27
36.960         7
36.970        13
36.980        47
36.990         7
37.000        13
37.010        13
37.020        33
37.030        27
37.040        20
37.050        27
37.060        13
37.070        20
37.080        40
37.090        20
37.100        33
37.110        27
37.120        40
37.130        33
37.140        27
37.150        27
37.160        33
37.170        13
37.180        27
37.190        47
37.200         0
37.210         7
37.220        13
37.230        20
37.240        33
37.250        27
37.260        27
37.270        27
37.280        40
37.290        13
37.300        13
37.310        20
37.320        40
37.330        40
37.340        20
37.350        27
37.360        27
37.370         7
37.380        40
37.390        27
37.400        47
37.410        20
37.420        20
37.430        47
37.440        27
37.450        27
37.460        13
37.470        13
37.480        33
37.490        20
37.500        13
37.510         0
37.520        20
37.530        20
37.540        13
37.550         7
37.560        13
37.570        13
37.580        20
37.590        13
37.600        33
37.610        13
37.620         7
37.630        20
37.640         0
37.650        27
37.660        20
37.670        13
37.680         0
37.690        27
37.700        33
37.710        20
37.720        20
37.730        13
37.740        27
37.750        27
37.760        20
37.770        13
37.780        20
37.790        47
37.800        33
37.810        27
37.820        13
37.830         7
37.840        33
37.850        13
37.860        13
37.870         0
37.880         7
37.890        20
37.900        20
37.910        27
37.920         7
37.930        53
37.940        13
37.950        27
37.960        20
37.970        27
37.980        20
37.990        13
38.000        33
38.010        27
38.020        33
38.030        47
38.040         7
38.050        33
38.060         7
38.070         7
38.080        20
38.090        13
38.100        13
38.110        20
38.120        13
38.130        27
38.140        47
38.150        20
38.160        27
38.170        13
38.180         0
38.190        33
38.200         7
38.210        20
38.220        33
38.230        20
38.240        20
38.250        13
38.260        20
38.270        27
38.280        13
38.290        20
38.300        27
38.310         0
38.320        13
38.330        20
38.340        27
38.350        13
38.360        20
38.370        13
38.380        20
38.390        27
38.400        13
38.410         7
38.420        33
38.430        20
38.440        20
38.450        13
38.460        20
38.470         7
38.480        13
38.490        20
38.500        27
38.510        47
38.520        20
38.530        33
38.540         7
38.550        20
38.560         7
38.570        27
38.580        20
38.590        13
38.600        20
38.610        27
38.620        27
38.630         7
38.640        13
38.650         7
38.660        13
38.670        13
38.680        20
38.690         7
38.700        53
38.710        13
38.720        13
38.730        20
38.740         7
38.750        20
38.760         7
38.770        20
38.780        13
38.790         0
38.800        27
38.810         7
38.820         7
38.830        20
38.840        33
38.850        20
38.860        33
38.870        20
38.880        13
38.890         0
38.900        27
38.910        13
38.920        20
38.930        33
38.940        20
38.950        33
38.960        20
38.970        27
38.980         7
38.990         7
39.000        20
39.010        20
39.020        33
39.030        33
39.040        13
39.050        33
39.060         7
39.070        20
39.080         7
39.090        33
39.100        20
39.110         7
39.120        20
39.130        33
39.140         0
39.150        33
39.160        33
39.170        20
39.180         0
39.190        27
39.200        40
39.210        27
39.220         0
39.230        27
39.240         7
39.250        20
39.260         7
39.270         7
39.280        13
39.290        13
39.300        33
39.310        27
39.320        33
39.330        27
39.340         7
39.350        20
39.360        13
39.370        13
39.380        20
39.390        13
39.400        33
39.410        33
39.420        20
39.430        13
39.440        20
39.450        13
39.460        20
39.470         0
39.480         7
39.490        27
39.500         7
39.510        13
39.520        13
39.530        13
39.540        40
39.550        40
39.560        13
39.570        20
39.580        33
39.590        20
39.600         0
39.610        13
39.620        13
39.630        27
39.640        20
39.650        40
39.660        13
39.670        20
39.680        20
39.690        27
39.700        13
39.710        13
39.720        20
39.730        27
39.740        33
39.750         7
39.760        20
39.770        33
39.780        20
39.790        20
39.800        27
39.810        20
39.820        13
39.830        20
39.840        20
39.850        20
39.860        53
39.870        20
39.880        27
39.890        13
39.900        33
39.910        40
39.920        47
39.930        33
39.940        40
39.950        20
39.960        27
39.970        47
39.980        53
39.990        27
40.000        33
40.010        67
40.020        27
40.030        40
40.040        47
40.050        53
40.060        67
40.070        53
40.080        67
40.090        13
40.100        40
40.110        60
40.120        67
40.130        33
40.140        67
40.150        20
40.160        40
40.170        13
40.180        27
40.190        33
40.200        40
40.210        67
40.220        33
40.230        20
40.240        40
40.250        13
40.260        47
40.270        33
40.280         0
40.290        40
40.300         7
40.310        53
40.320        13
40.330        27
40.340         7
40.350        20
40.360        27
40.370        13
40.380        40
40.390        20
40.400        27
40.410        33
40.420        13
40.430        13
40.440        20
40.450        20
40.460        33
40.470        13
40.480        33
40.490         0
40.500        27
40.510        27
40.520         7
40.530        13
40.540        27
40.550        20
40.560        20
40.570        27
40.580        27
40.590        33
40.600         7
40.610        20
40.620         7
40.630        47
40.640         7
40.650        27
40.660         7
40.670         7
40.680        20
40.690         0
40.700        20
40.710        40
40.720         7
40.730         7
40.740        13
40.750        13
40.760         7
40.770        20
40.780        13
40.790         7
40.800        13
40.810        20
40.820        20
40.830         7
40.840        33
40.850        33
40.860        20
40.870        13
40.880        13
40.890        33
40.900        33
40.910        20
40.920        20
40.930         7
40.940        13
40.950        27
40.960        33
40.970        27
40.980        27
40.990        13
41.000        20
41.010         7
41.020        20
41.030        27
41.040        27
41.050        13
41.060        20
41.070        20
41.080        27
41.090        27
41.100        13
41.110        33
41.120        13
41.130        53
41.140        20
41.150         7
41.160         0
41.170        13
41.180         7
41.190         7
41.200        13
41.210        13
41.220        13
41.230        33
41.240        20
41.250        27
41.260        13
41.270        33
41.280        20
41.290        27
41.300        33
41.310        20
41.320         0
41.330        13
41.340         7
41.350        27
41.360        47
41.370        13
41.380        27
41.390        13
41.400         7
41.410        13
41.420        20
41.430        20
41.440         7
41.450        47
41.460        27
41.470        13
41.480        40
41.490        33
41.500         7
41.510        27
41.520        20
41.530        47
41.540        33
41.550        20
41.560        53
41.570        40
41.580        27
41.590        47
41.600        33
41.610        13
41.620        53
41.630        40
41.640        20
41.650        33
41.660        47
41.670        20
41.680        33
41.690        20
41.700        27
41.710        40
41.720        47
41.730        20
41.740        73
41.750        40
41.760        33
41.770        67
41.780        47
41.790        40
41.800         7
41.810        33
41.820        13
41.830        13
41.840        40
41.850        13
41.860        27
41.870        27
41.880        40
41.890        67
41.900         7
41.910        33
41.920        27
41.930        13
41.940        13
41.950        27
41.960        13
41.970         7
41.980        13
41.990        33
42.000        40
42.010        47
42.020        27
42.030        27
42.040        27
42.050        27
42.060        13
42.070         7
42.080        27
42.090        20
42.100        40
42.110        27
42.120        20
42.130         7
42.140        20
42.150         7
42.160         7
42.170         0
42.180        13
42.190        40
42.200        20
42.210        27
42.220        33
42.230         7
42.240        40
42.250        13
42.260        27
42.270        20
42.280        27
42.290        27
42.300        13
42.310        33
42.320        13
42.330        13
42.340        33
42.350         7
42.360        33
42.370         7
42.380        20
42.390        20
42.400        33
42.410         7
42.420        20
42.430        47
42.440        20
42.450        20
42.460        27
42.470        13
42.480        13
42.490        27
42.500        13
42.510         7
42.520        13
42.530        27
42.540         0
42.550        27
42.560        13
42.570         7
42.580        20
42.590        13
42.600        33
42.610        13
42.620        20
42.630        27
42.640        20
42.650        20
42.660         0
42.670        20
42.680         7
42.690        47
42.700        33
42.710         7
42.720         7
42.730        20
42.740        13
42.750        20
42.760        13
42.770        13
42.780        13
42.790        40
42.800        27
42.810        20
42.820        27
42.830        27
42.840        20
42.850        13
42.860        20
42.870         0
42.880        20
42.890        27
42.900        20
42.910        27
42.920        27
42.930        20
42.940         7
42.950        40
42.960        20
42.970        20
42.980        33
42.990        27
43.000        33
43.010         7
43.020        13
43.030        27
43.040        33
43.050         0
43.060        33
43.070        13
43.080         7
43.090        13
43.100         7
43.110        20
43.120         7
43.130        13
43.140         7
43.150        20
43.160         7
43.170         7
43.180        27
43.190        27
43.200        13
43.210        20
43.220        33
43.230        27
43.240        20
43.250        20
43.260        13
43.270         7
43.280         0
43.290        27
43.300         0
43.310         7
43.320        40
43.330        13
43.340        13
43.350         7
43.360         7
43.370        27
43.380         7
43.390        13
43.400        13
43.410        13
43.420        27
43.430        13
43.440         7
43.450        20
43.460         7
43.470        20
43.480         7
43.490        13
43.500        13
43.510        20
43.520        20
43.530        27
43.540        13
43.550        27
43.560        40
43.570        27
43.580        13
43.590         7
43.600        27
43.610        13
43.620        40
43.630        13
43.640        13
43.650        13
43.660        20
43.670         7
43.680        33
43.690         7
43.700        20
43.710        33
43.720         7
43.730        20
43.740         7
43.750        40
43.760         7
43.770        20
43.780        13
43.790         7
43.800        40
43.810        13
43.820         7
43.830         0
43.840        33
43.850        13
43.860        53
43.870         7
43.880        40
43.890        33
43.900        27
43.910        27
43.920         7
43.930         7
43.940        20
43.950        27
43.960         7
43.970        27
43.980        27
43.990         7
44.000        20
44.010         0
44.020        20
44.030        20
44.040        20
44.050        13
44.060        13
44.070         0
44.080        20
44.090        40
44.100        27
44.110        33
44.120        27
44.130        13
44.140         7
44.150        40
44.160        27
44.170        20
44.180         0
44.190        13
44.200        40
44.210        13
44.220        13
44.230        20
44.240        20
44.250        13
44.260        33
44.270        40
44.280        20
44.290        33
44.300        20
44.310        13
44.320        20
44.330        47
44.340         0
44.350        27
44.360        27
44.370         7
44.380        20
44.390        33
44.400        20
44.410        47
44.420        53
44.430        40
44.440        13
44.450        13
44.460         7
44.470        27
44.480         7
44.490        40
44.500         0
44.510        13
44.520         7
44.530        27
44.540        13
44.550        47
44.560        27
44.570        40
44.580        33
44.590        13
44.600        27
44.610        67
44.620        20
44.630        53
44.640        33
44.650        13
44.660        40
44.670        40
44.680        13
44.690        13
44.700        40
44.710        13
44.720        40
44.730        47
44.740        67
44.750        60
44.760        13
44.770        53
44.780        20
44.790        13
44.800        13
44.810        60
44.820        60
44.830        40
44.840        27
44.850        47
44.860        80
44.870        60
44.880        53
44.890        33
44.900        27
44.910        20
44.920        33
44.930        40
44.940        20
44.950        47
44.960        20
44.970        27
44.980        40
44.990        53
45.000        47
45.010        53
45.020        47
45.030        53
45.040        40
45.050        33
45.060        40
45.070        47
45.080        33
45.090        47
45.100        67
45.110        53
45.120        33
45.130        13
45.140        60
45.150        47
45.160        67
45.170        47
45.180        33
45.190        53
45.200        20
45.210        33
45.220        67
45.230        47
45.240        40
45.250        33
45.260        40
45.270        40
45.280        33
45.290        40
45.300        73
45.310        53
45.320        93
45.330        93
45.340        67
45.350        87
45.360        93
45.370        80
45.380        87
45.390        67
45.400        27
45.410        47
45.420        40
45.430        67
45.440        93
45.450        60
45.460        33
45.470        60
45.480       127
45.490        80
45.500       120
45.510        67
45.520        67
45.530       107
45.540        67
45.550       107
45.560       100
45.570       113
45.580       133
45.590        93
45.600       127
45.610        80
45.620       107
45.630        93
45.640        67
45.650       107
45.660       147
45.670       147
45.680       113
45.690       160
45.700       120
45.710       167
45.720       187
45.730       147
45.740       167
45.750       207
45.760        93
45.770       153
45.780       153
45.790       207
45.800       240
45.810       267
45.820       200
45.830       293
45.840       213
45.850       267
45.860       213
45.870       287
45.880       273
45.890       333
45.900       347
45.910       287
45.920       373
45.930       353
45.940       387
45.950       433
45.960       407
45.970       446
45.980       473
45.990       626
46.000       486
46.010       540
46.020       540
46.030       740
46.040       700
46.050       660
46.060       746
46.070       840
46.080       840
46.090       773
46.100      1013
46.110       940
46.120       980
46.130      1060
46.140      1160
46.150      1413
46.160      1426
46.170      1353
46.180      1306
46.190      1599
46.200      1593
46.210      1819
46.220      1753
46.230      1819
46.240      1913
46.250      2346
46.260      2272
46.270      2106
46.280      2219
46.290      2319
46.300      2552
46.310      2826
46.320      2759
46.330      2906
46.340      2652
46.350      2719
46.360      2846
46.370      2686
46.380      3045
46.390      2892
46.400      2799
46.410      2739
46.420      2912
46.430      2925
46.440      2699
46.450      2652
46.460      2659
46.470      2879
46.480      2406
46.490      2259
46.500      2472
46.510      2492
46.520      2286
46.530      2126
46.540      2199
46.550      2226
46.560      1993
46.570      1979
46.580      1926
46.590      1653
46.600      1746
46.610      1606
46.620      1499
46.630      1399
46.640      1339
46.650      1220
46.660      1153
46.670      1153
46.680      1000
46.690       906
46.700       860
46.710      1013
46.720       940
46.730       760
46.740       733
46.750       766
46.760       640
46.770       620
46.780       606
46.790       440
46.800       433
46.810       540
46.820       513
46.830       493
46.840       360
46.850       440
46.860       393
46.870       393
46.880       300
46.890       280
46.900       300
46.910       267
46.920       240
46.930       300
46.940       267
46.950       273
46.960       240
46.970       267
46.980       193
46.990       193
47.000       167
47.010       207
47.020       180
47.030       187
47.040       147
47.050       173
47.060       180
47.070       120
47.080       140
47.090       167
47.100       180
47.110       207
47.120       127
47.130       173
47.140       127
47.150       167
47.160       147
47.170       160
47.180        87
47.190        87
47.200       133
47.210        80
47.220       127
47.230       147
47.240        80
47.250        67
47.260       100
47.270        80
47.280       100
47.290       107
47.300        73
47.310       140
47.320        67
47.330       100
47.340       120
47.350        80
47.360        60
47.370        60
47.380        67
47.390        73
47.400        80
47.410        80
47.420        47
47.430       100
47.440        73
47.450        33
47.460       100
47.470        87
47.480        67
47.490        47
47.500        33
47.510        53
47.520        60
47.530        60
47.540       107
47.550        53
47.560        53
47.570        47
47.580        60
47.590        40
47.600        80
47.610        67
47.620        27
47.630        73
47.640        27
47.650        27
47.660        67
47.670        53
47.680         7
47.690        53
47.700        73
47.710        20
47.720        53
47.730        27
47.740        40
47.750        80
47.760        47
47.770        47
47.780        67
47.790        40
47.800        27
47.810        53
47.820        67
47.830        33
47.840        47
47.850        20
47.860        20
47.870        40
47.880        67
47.890        47
47.900        53
47.910        33
47.920        40
47.930        27
47.940        20
47.950        33
47.960        53
47.970         7
47.980        67
47.990        33
48.000        27
48.010        60
48.020        33
48.030        13
48.040        27
48.050        20
48.060        47
48.070        20
48.080        33
48.090        20
48.100        40
48.110        27
48.120        13
48.130        40
48.140        20
48.150        33
48.160        20
48.170        40
48.180        20
48.190        40
48.200        33
48.210        33
48.220        53
48.230        20
48.240        40
48.250        53
48.260        27
48.270        20
48.280        20
48.290        33
48.300        13
48.310        60
48.320        53
48.330        27
48.340        33
48.350        27
48.360        33
48.370        27
48.380        33
48.390        27
48.400        33
48.410        33
48.420        40
48.430        40
48.440        33
48.450        67
48.460        20
48.470        20
48.480        47
48.490        20
48.500        47
48.510        20
48.520        40
48.530        40
48.540        13
48.550        80
48.560        20
48.570        53
48.580        47
48.590        20
48.600        20
48.610        40
48.620        33
48.630        20
48.640        20
48.650        60
48.660        27
48.670        27
48.680        20
48.690        20
48.700        27
48.710        40
48.720        33
48.730         0
48.740        20
48.750        33
48.760        33
48.770        20
48.780         7
48.790        40
48.800        40
48.810        27
48.820        20
48.830        33
48.840        33
48.850        47
48.860        20
48.870        20
48.880        33
48.890        13
48.900        27
48.910        13
48.920        27
48.930        27
48.940        13
48.950        27
48.960        20
48.970        40
48.980        33
48.990        40
49.000        60
49.010        40
49.020        33
49.030        47
49.040        40
49.050        80
49.060        27
49.070        53
49.080        60
49.090        27
49.100        27
49.110        20
49.120        20
49.130        33
49.140        40
49.150        20
49.160        33
49.170        40
49.180        47
49.190        47
49.200        27
49.210        20
49.220        47
49.230        33
49.240        20
49.250        47
49.260        33
49.270        33
49.280         7
49.290        27
49.300        53
49.310         0
49.320        20
49.330        20
49.340        60
49.350        40
49.360        13
49.370        47
49.380        40
49.390        40
49.400        47
49.410        33
49.420        13
49.430        40
49.440        27
49.450        40
49.460        20
49.470         7
49.480        13
49.490        40
49.500        27
49.510        33
49.520        13
49.530        13
49.540        20
49.550        27
49.560        13
49.570        33
49.580         7
49.590        20
49.600        33
49.610        20
49.620        40
49.630        47
49.640        33
49.650        33
49.660        27
49.670         7
49.680        13
49.690        13
49.700        33
49.710        27
49.720        60
49.730        33
49.740        13
49.750        13
49.760        27
49.770        27
49.780        13
49.790        33
49.800        40
49.810        33
49.820        13
49.830        20
49.840        20
49.850        27
49.860        53
49.870        33
49.880         0
49.890        33
49.900        27
49.910        27
49.920        33
49.930        40
49.940         7
49.950        53
49.960        13
49.970        40
49.980        13
49.990        20
50.000        40
50.010        27
50.020        73
50.030        13
50.040        13
50.050        47
50.060        13
50.070         7
50.080        33
50.090        20
50.100        33
50.110        27
50.120        53
50.130        13
50.140        20
50.150        27
50.160        53
50.170        33
50.180        13
50.190        53
50.200        33
50.210         7
50.220        40
50.230        33
50.240        13
50.250         7
50.260        33
50.270         0
50.280        20
50.290        13
50.300        33
50.310         0
50.320        27
50.330        20
50.340        13
50.350        27
50.360        27
50.370        33
50.380        53
50.390        27
50.400        40
50.410        13
50.420         7
50.430        20
50.440        13
50.450        33
50.460        13
50.470        33
50.480        20
50.490        33
50.500        20
50.510         7
50.520        33
50.530        67
50.540        60
50.550        33
50.560        40
50.570        33
50.580        53
50.590        27
50.600        33
50.610        33
50.620        33
50.630        33
50.640        33
50.650        27
50.660        33
50.670        47
50.680         7
50.690        33
50.700        67
50.710        27
50.720        20
50.730        53
50.740        33
50.750        47
50.760        20
50.770        33
50.780        20
50.790        80
50.800        33
50.810         7
50.820        13
50.830        33
50.840        13
50.850        53
50.860        47
50.870        53
50.880        33
50.890        20
50.900        13
50.910        40
50.920         7
50.930        20
50.940        20
50.950        40
50.960        40
50.970        53
50.980        53
50.990        13
51.000        20
51.010        33
51.020        13
51.030        53
51.040        20
51.050        33
51.060         7
51.070        33
51.080        53
51.090        40
51.100        20
51.110        33
51.120        33
51.130        13
51.140        53
51.150        20
51.160        27
51.170        27
51.180         0
51.190        27
51.200        20
51.210        40
51.220        27
51.230        27
51.240        40
51.250        27
51.260        40
51.270        33
51.280        40
51.290        27
51.300        47
51.310        20
51.320        13
51.330        33
51.340        27
51.350        40
51.360        47
51.370        27
51.380        33
51.390        53
51.400        87
51.410        33
51.420        13
51.430        20
51.440        13
51.450        27
51.460        40
51.470        33
51.480        47
51.490        33
51.500        20
51.510        40
51.520        33
51.530        27
51.540        27
51.550        60
51.560        33
51.570        13
51.580        53
51.590        27
51.600        13
51.610        27
51.620        27
51.630        27
51.640        80
51.650        40
51.660        20
51.670        33
51.680        80
51.690        27
51.700        53
51.710        13
51.720        27
51.730        20
51.740        53
51.750        47
51.760        47
51.770        20
51.780        60
51.790        27
51.800        60
51.810        53
51.820        27
51.830        53
51.840        47
51.850        27
51.860        33
51.870        27
51.880        60
51.890        47
51.900        33
51.910        47
51.920        20
51.930        47
51.940        60
51.950        53
51.960        40
51.970        40
51.980        47
51.990        20
52.000        33
52.010        40
52.020        27
52.030        47
52.040        33
52.050        13
52.060        33
52.070        40
52.080        73
52.090        27
52.100        20
52.110        47
52.120        40
52.130        27
52.140        33
52.150        80
52.160        20
52.170        47
52.180        27
52.190        67
52.200        67
52.210        40
52.220        40
52.230        73
52.240        33
52.250        73
52.260        60
52.270        73
52.280        27
52.290        40
52.300        47
52.310        20
52.320        67
52.330        67
52.340        53
52.350        53
52.360        27
52.370        40
52.380        67
52.390        53
52.400        73
52.410        27
52.420        73
52.430        53
52.440        47
52.450        47
52.460        73
52.470        27
52.480        53
52.490        67
52.500        33
52.510        53
52.520        87
52.530        93
52.540        80
52.550        73
52.560        80
52.570        80
52.580        80
52.590        53
52.600        80
52.610        73
52.620        93
52.630        87
52.640       107
52.650        47
52.660       107
52.670        87
52.680        80
52.690        80
52.700       153
52.710        93
52.720        80
52.730        40
52.740       100
52.750        47
52.760        40
52.770        67
52.780        47
52.790        60
52.800        33
52.810        87
52.820        53
52.830        33
52.840        60
52.850        20
52.860        53
52.870        40
52.880        53
52.890        73
52.900        60
52.910        53
52.920        87
52.930        60
52.940        27
52.950        40
52.960        20
52.970        53
52.980        27
52.990        67
53.000        53
53.010        47
53.020        33
53.030        73
53.040        60
53.050        33
53.060        40
53.070        80
53.080        60
53.090        60
53.100        60
53.110        20
53.120        53
53.130        67
53.140        13
53.150        53
53.160        33
53.170        33
53.180        27
53.190        60
53.200        40
53.210        33
53.220        47
53.230        33
53.240        40
53.250        67
53.260        40
53.270        47
53.280        67
53.290        53
53.300        27
53.310        40
53.320        27
53.330        33
53.340        47
53.350        27
53.360        13
53.370         7
53.380        27
53.390        47
53.400         7
53.410        20
53.420        40
53.430        67
53.440         7
53.450        47
53.460        13
53.470        47
53.480        33
53.490        40
53.500        53
53.510        33
53.520        40
53.530        40
53.540        27
53.550        33
53.560        27
53.570        33
53.580        20
53.590        33
53.600        40
53.610        60
53.620        27
53.630        27
53.640        27
53.650        20
53.660        27
53.670        27
53.680        40
53.690        40
53.700        40
53.710        20
53.720        20
53.730        40
53.740        40
53.750        20
53.760        13
53.770        13
53.780        33
53.790        27
53.800        47
53.810        20
53.820        40
53.830        40
53.840        33
53.850        13
53.860        27
53.870        40
53.880        33
53.890        20
53.900        13
53.910        27
53.920        27
53.930        20
53.940        27
53.950        47
53.960        20
53.970        13
53.980        33
53.990        13
54.000        33
54.010        13
54.020        13
54.030        20
54.040         7
54.050        27
54.060        33
54.070        20
54.080        13
54.090        33
54.100        27
54.110        27
54.120        27
54.130        33
54.140        20
54.150        13
54.160        13
54.170        27
54.180         7
54.190        27
54.200        47
54.210        40
54.220        33
54.230        13
54.240        47
54.250        27
54.260        13
54.270        47
54.280        27
54.290        20
54.300        20
54.310        27
54.320        27
54.330        20
54.340        33
54.350        33
54.360        27
54.370         7
54.380        27
54.390        27
54.400        20
54.410         7
54.420        20
54.430        40
54.440        27
54.450        13
54.460        27
54.470         0
54.480        20
54.490        33
54.500        13
54.510        13
54.520        13
54.530        13
54.540        13
54.550        20
54.560        13
54.570        20
54.580        13
54.590        13
54.600        33
54.610        33
54.620        27
54.630        47
54.640        20
54.650        27
54.660         7
54.670         7
54.680        20
54.690        33
54.700         7
54.710        20
54.720        33
54.730        13
54.740        47
54.750        33
54.760        27
54.770        20
54.780        20
54.790        13
54.800        27
54.810        27
54.820        33
54.830        13
54.840        13
54.850        33
54.860         7
54.870        13
54.880        47
54.890        13
54.900        20
54.910        13
54.920         7
54.930        33
54.940         7
54.950        33
54.960        27
54.970        40
54.980        33
54.990        13
55.000        27
55.010        20
55.020        20
55.030        20
55.040        20
55.050         7
55.060        27
55.070        27
55.080        27
55.090         0
55.100        27
55.110        13
55.120        40
55.130         7
55.140        13
55.150         7
55.160        13
55.170        13
55.180        13
55.190        13
55.200         7
55.210         7
55.220        27
55.230         7
55.240        27
55.250        20
55.260         7
55.270         0
55.280        20
55.290         0
55.300        27
55.310        20
55.320        27
55.330         0
55.340        27
55.350        20
55.360        27
55.370        20
55.380        13
55.390         7
55.400        13
55.410        13
55.420        20
55.430        20
55.440        27
55.450         7
55.460        27
55.470        33
55.480        27
55.490        27
55.500        27
55.510        20
55.520         7
55.530        13
55.540        13
55.550        27
55.560        33
55.570        13
55.580         7
55.590         7
55.600        13
55.610         7
55.620        20
55.630        13
55.640        13
55.650        40
55.660        13
55.670         0
55.680        20
55.690        20
55.700        20
55.710        13
55.720        13
55.730        27
55.740        13
55.750        33
55.760        13
55.770        27
55.780        20
55.790        27
55.800        27
55.810        13
55.820        13
55.830        27
55.840         7
55.850         7
55.860        20
55.870        33
55.880        13
55.890        33
55.900        27
55.910        40
55.920         7
55.930        33
55.940         7
55.950         0
55.960        20
55.970        20
55.980        27
55.990         7
56.000        27
56.010        27
56.020        33
56.030        27
56.040        20
56.050        27
56.060         7
56.070        27
56.080        27
56.090         7
56.100        13
56.110        27
56.120        27
56.130         7
56.140        13
56.150        13
56.160        27
56.170        27
56.180        20
56.190        13
56.200        20
56.210        40
56.220        13
56.230        27
56.240        20
56.250        27
56.260        13
56.270        13
56.280        20
56.290        13
56.300        27
56.310        20
56.320        33
56.330        47
56.340        40
56.350         7
56.360        33
56.370         7
56.380        33
56.390         7
56.400        20
56.410        47
56.420        20
56.430        27
56.440         7
56.450        20
56.460         0
56.470        13
56.480         7
56.490        13
56.500        33
56.510         7
56.520        13
56.530         7
56.540         0
56.550        33
56.560        13
56.570        13
56.580        47
56.590        13
56.600        20
56.610         7
56.620        13
56.630         7
56.640        27
56.650         7
56.660        13
56.670         7
56.680        40
56.690         0
56.700        13
56.710        40
56.720        27
56.730        13
56.740         7
56.750         0
56.760        13
56.770         7
56.780        13
56.790        20
56.800        13
56.810        13
56.820         7
56.830        47
56.840        20
56.850        33
56.860        20
56.870        27
56.880        20
56.890        20
56.900        13
56.910        40
56.920        13
56.930        20
56.940         0
56.950        13
56.960        27
56.970        27
56.980        13
56.990        13
57.000         7
57.010        27
57.020        20
57.030        13
57.040         0
57.050         7
57.060        33
57.070        13
57.080        13
57.090        13
57.100         7
57.110         7
57.120        13
57.130         7
57.140        20
57.150        33
57.160        33
57.170        47
57.180        20
57.190         0
57.200         0
57.210        20
57.220        20
57.230        47
57.240        20
57.250        47
57.260        13
57.270        27
57.280        33
57.290        20
57.300         7
57.310        20
57.320        20
57.330        13
57.340        13
57.350         0
57.360        20
57.370         7
57.380        13
57.390         7
57.400        20
57.410        20
57.420         7
57.430        27
57.440        27
57.450        20
57.460        20
57.470         0
57.480         7
57.490         0
57.500        13
57.510        13
57.520        27
57.530        13
57.540        20
57.550        27
57.560        27
57.570        27
57.580        20
57.590        13
57.600        13
57.610        40
57.620        27
57.630        13
57.640         7
57.650        33
57.660         7
57.670        53
57.680        13
57.690        53
57.700        27
57.710        13
57.720        60
57.730        27
57.740        20
57.750        33
57.760        47
57.770        13
57.780        20
57.790        67
57.800        53
57.810        40
57.820         7
57.830        33
57.840        27
57.850        27
57.860        60
57.870        60
57.880        33
57.890        47
57.900        33
57.910        47
57.920        47
57.930        40
57.940        47
57.950        13
57.960        47
57.970        20
57.980        27
57.990        33
58.000        20
58.010        60
58.020        20
58.030         7
58.040        33
58.050        27
58.060        33
58.070         7
58.080        27
58.090        27
58.100        33
58.110        40
58.120         7
58.130         7
58.140        13
58.150        13
58.160        13
58.170        33
58.180        27
58.190        27
58.200         0
58.210         7
58.220         7
58.230        33
58.240        20
58.250        40
58.260         0
58.270        27
58.280        13
58.290        40
58.300        20
58.310         7
58.320        20
58.330        20
58.340         7
58.350        33
58.360        20
58.370        27
58.380        33
58.390        27
58.400        47
58.410        27
58.420        20
58.430         7
58.440        13
58.450        27
58.460        20
58.470        13
58.480        13
58.490        13
58.500         7
58.510        20
58.520         7
58.530         7
58.540         7
58.550        20
58.560        33
58.570        13
58.580         0
58.590         7
58.600        20
58.610        33
58.620         7
58.630        20
58.640        13
58.650         7
58.660         7
58.670        20
58.680         0
58.690         0
58.700         7
58.710        20
58.720        27
58.730         7
58.740        20
58.750        33
58.760        13
58.770        27
58.780        13
58.790        33
58.800        13
58.810         0
58.820        20
58.830         7
58.840        27
58.850         7
58.860         7
58.870         7
58.880        20
58.890        20
58.900        20
58.910         7
58.920        13
58.930         7
58.940         7
58.950         0
58.960        27
58.970        13
58.980        13
58.990        20
59.000        20
59.010        20
59.020        20
59.030        27
59.040        20
59.050        13
59.060         7
59.070         0
59.080        20
59.090        13
59.100        20
59.110        20
59.120        27
59.130         7
59.140        13
59.150         0
59.160         0
59.170        27
59.180         7
59.190         7
59.200        13
59.210         7
59.220        13
59.230         0
59.240        13
59.250         7
59.260        13
59.270         7
59.280        27
59.290        13
59.300        13
59.310         7
59.320        27
59.330         7
59.340        20
59.350        27
59.360         7
59.370        13
59.380         7
59.390        20
59.400        13
59.410        13
59.420        20
59.430        13
59.440        33
59.450        13
59.460         7
59.470        13
59.480         0
59.490        13
59.500         7
59.510        27
59.520        33
59.530        27
59.540         0
59.550         0
59.560        13
59.570         7
59.580        13
59.590        20
59.600        33
59.610        20
59.620        33
59.630         0
59.640         0
59.650        13
59.660        13
59.670         7
59.680         0
59.690        27
59.700         7
59.710        13
59.720         7
59.730         0
59.740         0
59.750        27
59.760         7
59.770        13
59.780         7
59.790         0
59.800        33
59.810         7
59.820        13
59.830        20
59.840         7
59.850         7
59.860        20
59.870        33
59.880         0
59.890        20
59.900         7
59.910        20
59.920        27
59.930        13
59.940         7
59.950         7
59.960         7
59.970        13
59.980        20
59.990        13
60.000         0
