20.000       100
20.010        33
20.020        80
20.030        40
20.040        60
20.050        13
20.060        53
20.070        13
20.080        60
20.090        53
20.100        47
20.110        33
20.120        40
20.130        40
20.140        47
20.150        60
20.160        27
20.170        53
20.180        33
20.190        60
20.200        40
20.210        40
20.220         7
20.230        47
20.240        33
20.250        53
20.260        20
20.270        67
20.280        47
20.290        67
20.300        60
20.310        47
20.320        27
20.330        47
20.340        53
20.350        40
20.360        33
20.370        33
20.380        67
20.390        67
20.400        20
20.410        67
20.420        33
20.430        47
20.440        47
20.450        53
20.460        40
20.470        40
20.480        40
20.490        47
20.500        53
20.510        53
20.520        53
20.530        73
20.540        73
20.550        47
20.560        60
20.570        60
20.580        40
20.590        40
20.600        60
20.610        67
20.620        60
20.630        33
20.640         7
20.650        47
20.660        87
20.670        60
20.680        47
20.690        67
20.700        60
20.710        47
20.720        73
20.730        47
20.740        60
20.750        60
20.760        73
20.770        47
20.780        33
20.790        27
20.800        67
20.810        53
20.820        47
20.830       100
20.840        33
20.850        47
20.860        60
20.870        53
20.880        20
20.890        27
20.900        40
20.910        20
20.920        53
20.930        53
20.940        60
20.950        40
20.960        67
20.970        53
20.980        20
20.990        40
21.000        47
21.010        20
21.020        47
21.030        33
21.040        60
21.050        40
21.060        40
21.070        60
21.080        53
21.090        53
21.100        67
21.110        60
21.120        40
21.130        67
21.140        33
21.150        40
21.160        33
21.170        73
21.180        40
21.190        53
21.200        67
21.210        27
21.220        47
21.230        60
21.240        27
21.250        20
21.260        33
21.270        27
21.280        47
21.290        27
21.300        40
21.310        73
21.320        67
21.330        53
21.340        60
21.350        73
21.360        40
21.370        33
21.380        47
21.390        33
21.400        40
21.410        40
21.420        53
21.430        67
21.440        47
21.450        47
21.460        53
21.470        27
21.480        20
21.490        27
21.500        27
21.510        33
21.520        47
21.530        60
21.540        27
21.550        47
21.560        47
21.570        60
21.580        33
21.590        40
21.600        47
21.610        73
21.620        40
21.630        27
21.640        33
21.650        20
21.660        27
21.670        53
21.680        60
21.690        40
21.700        27
21.710        47
21.720        27
21.730        53
21.740         0
21.750        40
21.760        60
21.770        47
21.780        53
21.790        20
21.800        33
21.810        53
21.820        80
21.830        13
21.840        47
21.850        53
21.860        60
21.870        53
21.880        67
21.890        40
21.900        40
21.910        27
21.920        47
21.930        27
21.940        67
21.950        47
21.960        40
21.970        53
21.980        80
21.990        53
22.000        27
22.010        67
22.020        40
22.030        67
22.040        13
22.050        73
22.060        60
22.070        53
22.080        40
22.090        67
22.100        33
22.110        53
22.120        53
22.130        13
22.140        47
22.150        53
22.160        13
22.170        47
22.180        40
22.190        87
22.200        40
22.210        27
22.220        40
22.230        27
22.240        13
22.250        33
22.260        40
22.270        33
22.280        33
22.290        60
22.300        33
22.310        33
22.320        20
22.330        40
22.340        40
22.350        53
22.360        27
22.370        87
22.380        40
22.390        60
22.400        33
22.410        20
22.420        40
22.430        60
22.440        40
22.450         7
22.460        27
22.470        33
22.480        27
22.490        47
22.500        87
22.510        27
22.520        40
22.530        47
22.540        33
22.550        33
22.560        33
22.570       100
22.580        67
22.590        47
22.600        27
22.610        40
22.620        40
22.630        53
22.640        53
22.650        80
22.660        33
22.670        67
22.680        60
22.690        40
22.700        53
22.710        20
22.720        13
22.730        33
22.740        53
22.750        33
22.760        27
22.770        20
22.780        47
22.790        93
22.800        20
22.810        53
22.820        53
22.830        40
22.840        27
22.850        53
22.860        40
22.870        47
22.880        27
22.890         7
22.900        40
22.910        67
22.920        47
22.930        20
22.940        33
22.950        20
22.960        47
22.970        60
22.980        73
22.990        13
23.000        33
23.010        47
23.020        33
23.030        47
23.040        33
23.050        40
23.060        20
23.070        27
23.080         7
23.090        53
23.100        27
23.110        53
23.120        40
23.130        40
23.140        67
23.150        20
23.160        47
23.170        53
23.180        60
23.190        27
23.200        20
23.210        47
23.220        27
23.230        27
23.240        27
23.250        60
23.260        47
23.270        33
23.280        20
23.290        33
23.300        47
23.310        27
23.320        20
23.330        20
23.340        33
23.350         7
23.360        33
23.370        20
23.380        33
23.390        27
23.400        60
23.410        20
23.420        47
23.430        40
23.440        27
23.450        53
23.460        47
23.470        33
23.480        27
23.490        27
23.500        27
23.510        40
23.520        53
23.530        53
23.540        53
23.550        13
23.560        47
23.570        40
23.580        20
23.590        33
23.600        40
23.610        33
23.620        27
23.630        20
23.640        27
23.650        27
23.660        47
23.670        53
23.680        47
23.690        33
23.700        33
23.710        33
23.720        33
23.730        53
23.740        27
23.750         0
23.760        13
23.770        40
23.780        20
23.790         7
23.800        53
23.810        20
23.820        27
23.830        53
23.840        33
23.850        20
23.860        53
23.870        73
23.880        27
23.890        47
23.900        60
23.910        60
23.920         7
23.930        20
23.940        33
23.950        27
23.960        20
23.970        27
23.980        40
23.990        27
24.000        27
24.010        40
24.020        67
24.030        53
24.040        53
24.050        27
24.060        47
24.070        20
24.080        40
24.090        40
24.100        20
24.110        60
24.120        60
24.130        33
24.140        33
24.150        47
24.160        27
24.170        20
24.180        53
24.190        53
24.200        20
24.210        27
24.220        47
24.230        27
24.240        40
24.250        53
24.260        53
24.270        33
24.280        47
24.290        27
24.300        73
24.310        20
24.320        27
24.330        47
24.340        67
24.350        47
24.360        53
24.370        27
24.380        33
24.390        33
24.400        47
24.410        40
24.420        40
24.430        33
24.440         0
24.450        47
24.460        33
24.470        20
24.480        33
24.490        20
24.500        40
24.510        40
24.520        40
24.530         7
24.540         0
24.550        40
24.560        27
24.570        47
24.580        33
24.590        60
24.600        33
24.610        47
24.620        33
24.630        40
24.640        40
24.650        40
24.660        33
24.670        20
24.680        40
24.690        40
24.700        40
24.710        47
24.720        40
24.730        27
24.740        20
24.750        20
24.760        20
24.770        33
24.780        27
24.790        40
24.800        20
24.810        27
24.820        47
24.830        33
24.840        27
24.850        60
24.860        33
24.870        40
24.880        13
24.890         7
24.900        47
24.910        13
24.920        47
24.930        33
24.940        33
24.950        20
24.960        27
24.970        27
24.980        27
24.990        20
25.000        27
25.010        40
25.020        27
25.030        53
25.040        40
25.050         7
25.060         0
25.070        40
25.080        33
25.090        33
25.100        47
25.110        40
25.120        40
25.130        40
25.140        53
25.150        33
25.160        47
25.170        47
25.180        27
25.190        20
25.200        20
25.210        33
25.220        47
25.230        27
25.240        33
25.250        73
25.260        40
25.270        47
25.280        20
25.290        53
25.300        47
25.310        67
25.320        60
25.330        53
25.340        60
25.350        47
25.360        33
25.370        33
25.380        80
25.390        47
25.400        53
25.410        47
25.420        87
25.430       113
25.440       100
25.450       187
25.460       167
25.470       200
25.480        87
25.490       173
25.500       213
25.510       247
25.520       247
25.530       233
25.540       180
25.550       187
25.560       167
25.570       227
25.580       160
25.590       207
25.600       153
25.610       180
25.620       127
25.630       113
25.640        80
25.650        80
25.660       133
25.670        87
25.680       167
25.690        67
25.700        60
25.710        87
25.720        33
25.730        60
25.740        53
25.750        60
25.760        73
25.770        53
25.780        40
25.790        20
25.800        47
25.810        13
25.820        40
25.830        13
25.840        33
25.850        13
25.860        27
25.870        27
25.880        20
25.890        47
25.900        20
25.910        40
25.920        27
25.930        27
25.940        20
25.950        47
25.960        13
25.970        27
25.980        40
25.990        40
26.000        33
26.010        27
26.020        40
26.030        13
26.040        53
26.050        27
26.060        27
26.070        53
26.080        20
26.090        40
26.100        27
26.110        47
26.120        40
26.130        33
26.140        60
26.150        47
26.160        27
26.170        33
26.180        40
26.190        33
26.200        27
26.210        40
26.220        33
26.230        20
26.240        27
26.250        40
26.260        73
26.270        40
26.280        27
26.290        27
26.300        27
26.310        47
26.320        40
26.330        40
26.340        47
26.350         0
26.360        47
26.370        20
26.380        53
26.390        60
26.400        33
26.410        20
26.420        27
26.430        40
26.440        40
26.450        33
26.460        53
26.470        40
26.480        13
26.490        73
26.500        33
26.510        20
26.520        20
26.530        40
26.540        20
26.550        60
26.560        40
26.570        33
26.580        33
26.590        20
26.600        47
26.610         7
26.620        47
26.630        67
26.640        60
26.650        27
26.660        20
26.670        33
26.680        60
26.690        27
26.700        13
26.710        20
26.720        20
26.730         7
26.740        40
26.750        60
26.760        13
26.770        33
26.780        73
26.790         7
26.800        40
26.810        27
26.820        33
26.830         7
26.840        33
26.850        60
26.860        47
26.870        40
26.880        33
26.890        20
26.900        53
26.910        47
26.920        40
26.930        47
26.940        33
26.950        33
26.960        40
26.970        27
26.980        40
26.990        60
27.000         7
27.010        47
27.020        27
27.030        47
27.040        33
27.050        13
27.060        27
27.070        40
27.080        27
27.090        27
27.100        40
27.110        33
27.120        60
27.130         7
27.140        27
27.150        40
27.160        47
27.170         7
27.180        27
27.190        33
27.200        53
27.210        13
27.220        13
27.230        27
27.240        33
27.250         7
27.260        47
27.270        27
27.280        60
27.290        13
27.300        53
27.310        33
27.320        20
27.330        40
27.340        33
27.350        20
27.360        33
27.370        47
27.380        27
27.390        40
27.400        13
27.410         0
27.420        13
27.430        40
27.440        13
27.450        40
27.460        60
27.470        27
27.480        40
27.490        40
27.500        27
27.510        13
27.520        13
27.530        20
27.540        20
27.550        47
27.560        27
27.570        27
27.580        27
27.590        27
27.600        40
27.610        47
27.620        33
27.630        40
27.640        27
27.650        13
27.660        13
27.670        40
27.680        27
27.690        33
27.700        27
27.710        47
27.720        33
27.730        27
27.740         0
27.750        33
27.760        33
27.770        47
27.780        27
27.790        33
27.800        53
27.810        27
27.820        13
27.830        20
27.840        33
27.850        27
27.860         0
27.870        33
27.880        33
27.890        13
27.900        20
27.910        20
27.920        33
27.930        40
27.940        20
27.950        47
27.960        33
27.970        20
27.980        27
27.990        33
28.000        33
28.010        13
28.020        20
28.030        20
28.040        13
28.050        33
28.060        27
28.070         7
28.080        27
28.090        33
28.100        27
28.110        27
28.120        33
28.130        33
28.140        33
28.150        27
28.160        27
28.170        27
28.180        27
28.190        40
28.200        40
28.210        40
28.220        13
28.230        40
28.240         7
28.250        27
28.260        40
28.270        33
28.280        40
28.290        67
28.300        27
28.310        20
28.320        53
28.330        33
28.340        40
28.350        47
28.360        80
28.370        40
28.380        20
28.390        13
28.400        13
28.410        33
28.420        20
28.430        27
28.440        27
28.450        20
28.460        13
28.470        20
28.480        13
28.490        33
28.500        20
28.510        33
28.520        40
28.530        27
28.540        53
28.550        27
28.560        20
28.570        33
28.580        40
28.590        40
28.600        33
28.610        33
28.620        20
28.630        40
28.640        53
28.650        33
28.660        33
28.670        33
28.680        40
28.690        27
28.700        13
28.710        40
28.720        20
28.730        20
28.740        40
28.750        40
28.760        13
28.770        20
28.780        27
28.790        20
28.800        33
28.810        40
28.820        47
28.830        33
28.840        40
28.850        33
28.860        27
28.870        20
28.880         7
28.890        20
28.900        40
28.910        27
28.920        20
28.930        20
28.940        20
28.950        40
28.960        33
28.970         7
28.980        47
28.990        40
29.000        53
29.010        27
29.020        40
29.030        20
29.040        20
29.050        33
29.060        13
29.070        27
29.080         7
29.090        40
29.100        20
29.110        33
29.120        13
29.130        33
29.140        20
29.150        67
29.160        33
29.170        53
29.180        33
29.190        47
29.200        53
29.210        27
29.220        13
29.230        27
29.240        40
29.250        20
29.260        20
29.270        27
29.280        20
29.290        53
29.300        20
29.310        33
29.320        47
29.330        27
29.340        20
29.350        40
29.360        20
29.370        40
29.380        27
29.390        40
29.400        33
29.410        40
29.420        20
29.430        20
29.440        33
29.450        13
29.460        13
29.470        47
29.480        33
29.490        40
29.500        27
29.510        40
29.520         7
29.530        20
29.540        33
29.550        33
29.560        27
29.570         0
29.580        47
29.590        33
29.600        33
29.610        27
29.620        20
29.630        20
29.640         7
29.650        13
29.660        20
29.670        27
29.680         0
29.690        20
29.700        27
29.710         7
29.720        40
29.730        27
29.740        53
29.750        13
29.760        13
29.770        53
29.780        20
29.790        27
29.800        33
29.810        60
29.820        33
29.830        40
29.840        27
29.850        33
29.860        60
29.870        27
29.880        40
29.890        47
29.900        27
29.910        47
29.920        20
29.930        13
29.940        27
29.950        20
29.960        13
29.970        20
29.980        27
29.990        27
30.000        27
30.010        33
30.020        40
30.030        27
30.040        33
30.050         0
30.060        27
30.070        40
30.080        33
30.090        47
30.100        33
30.110        40
30.120        27
30.130        40
30.140        13
30.150         7
30.160        33
30.170        27
30.180        33
30.190        20
30.200        20
30.210        13
30.220        20
30.230        13
30.240         7
30.250        13
30.260        33
30.270        20
30.280        33
30.290        20
30.300        20
30.310        53
30.320        47
30.330         0
30.340        33
30.350        27
30.360        53
30.370        40
30.380        20
30.390        40
30.400        20
30.410        27
30.420        13
30.430        20
30.440        27
30.450        33
30.460         7
30.470        20
30.480        20
30.490        27
30.500        27
30.510        20
30.520         7
30.530        47
30.540         7
30.550        60
30.560        13
30.570        33
30.580        27
30.590        13
30.600        53
30.610        40
30.620         7
30.630        33
30.640        13
30.650        33
30.660        13
30.670        27
30.680        13
30.690        20
30.700        33
30.710         7
30.720        53
30.730        40
30.740        27
30.750        47
30.760        33
30.770         7
30.780        13
30.790        20
30.800        53
30.810        33
30.820        20
30.830        13
30.840        40
30.850        27
30.860         7
30.870        13
30.880        20
30.890         7
30.900        27
30.910         7
30.920         7
30.930         7
30.940        47
30.950         7
30.960        20
30.970        53
30.980         7
30.990        33
31.000        27
31.010        27
31.020        40
31.030         7
31.040        47
31.050        33
31.060        20
31.070        20
31.080        27
31.090        33
31.100         7
31.110        27
31.120        27
31.130        27
31.140        33
31.150        33
31.160        13
31.170         7
31.180        33
31.190         7
31.200        60
31.210        27
31.220        27
31.230        13
31.240        20
31.250        13
31.260        20
31.270         7
31.280        53
31.290        27
31.300        33
31.310        53
31.320         0
31.330        27
31.340        20
31.350        47
31.360        40
31.370        53
31.380        27
31.390        40
31.400        27
31.410        13
31.420        40
31.430        20
31.440        13
31.450         0
31.460        33
31.470        13
31.480        13
31.490        27
31.500        13
31.510        20
31.520        20
31.530        13
31.540        20
31.550        13
31.560        27
31.570        67
31.580        47
31.590        27
31.600        20
31.610        27
31.620        20
31.630        13
31.640        67
31.650        27
31.660        13
31.670        13
31.680         0
31.690        20
31.700        27
31.710        53
31.720        33
31.730        13
31.740        27
31.750         7
31.760        33
31.770         7
31.780        27
31.790        40
31.800        13
31.810        20
31.820        13
31.830        33
31.840        47
31.850        47
31.860        40
31.870        53
31.880        20
31.890        33
31.900        13
31.910        20
31.920        40
31.930        33
31.940        27
31.950        20
31.960        47
31.970        13
31.980        13
31.990        40
32.000        20
32.010        20
32.020        20
32.030        20
32.040        27
32.050         7
32.060        27
32.070        27
32.080         0
32.090        13
32.100        27
32.110         7
32.120        27
32.130        33
32.140        27
32.150        20
32.160         7
32.170         7
32.180        20
32.190        47
32.200        13
32.210        27
32.220        27
32.230        53
32.240        33
32.250        20
32.260        33
32.270        13
32.280        20
32.290        27
32.300        20
32.310        13
32.320        13
32.330        33
32.340        27
32.350        27
32.360        47
32.370        33
32.380        27
32.390        33
32.400        27
32.410        33
32.420         7
32.430         7
32.440        60
32.450        13
32.460        13
32.470        13
32.480        13
32.490        47
32.500        20
32.510         7
32.520        27
32.530        27
32.540        20
32.550         7
32.560        13
32.570         7
32.580        13
32.590        20
32.600         7
32.610        27
32.620        67
32.630        27
32.640        13
32.650        27
32.660        20
32.670        13
32.680        27
32.690        33
32.700        40
32.710        33
32.720        33
32.730        33
32.740        20
32.750        13
32.760        27
32.770        40
32.780        20
32.790        33
32.800        27
32.810        33
32.820        20
32.830        27
32.840        20
32.850        13
32.860        13
32.870        33
32.880         7
32.890        27
32.900        20
32.910         0
32.920        13
32.930        20
32.940        13
32.950        13
32.960        13
32.970        47
32.980        13
32.990        47
33.000        13
33.010        13
33.020        40
33.030        33
33.040        20
33.050         7
33.060        47
33.070        40
33.080        13
33.090        33
33.100         7
33.110        20
33.120        27
33.130        73
33.140        47
33.150        40
33.160        33
33.170        40
33.180        47
33.190        33
33.200        13
33.210        27
33.220        20
33.230        27
33.240         7
33.250        27
33.260        47
33.270        20
33.280        33
33.290        13
33.300        20
33.310        20
33.320        27
33.330        27
33.340         7
33.350        20
33.360        13
33.370         0
33.380        20
33.390        33
33.400        20
33.410        13
33.420        27
33.430         7
33.440         7
33.450        33
33.460        20
33.470        13
33.480        27
33.490        27
33.500        13
33.510        27
33.520        13
33.530        13
33.540        33
33.550        20
33.560        13
33.570        20
33.580         7
33.590        20
33.600        33
33.610        20
33.620        20
33.630        33
33.640        27
33.650         7
33.660        20
33.670        13
33.680        27
33.690        33
33.700        20
33.710        20
33.720        27
33.730        13
33.740        20
33.750        13
33.760        40
33.770        27
33.780        47
33.790        13
33.800        40
33.810        33
33.820        27
33.830         7
33.840        27
33.850        47
33.860        27
33.870        40
33.880        33
33.890        27
33.900        20
33.910        40
33.920        13
33.930        40
33.940        27
33.950        13
33.960        33
33.970        33
33.980        60
33.990        27
34.000        20
34.010        47
34.020        33
34.030        20
34.040        20
34.050        13
34.060        20
34.070        33
34.080        27
34.090         7
34.100        33
34.110        13
34.120        40
34.130        13
34.140        13
34.150        13
34.160        13
34.170        47
34.180        20
34.190        53
34.200        33
34.210        33
34.220        33
34.230        47
34.240         7
34.250        27
34.260        33
34.270        27
34.280        27
34.290         7
34.300        20
34.310        33
34.320        13
34.330        27
34.340        13
34.350        20
34.360        20
34.370        20
34.380        20
34.390        20
34.400        33
34.410        20
34.420         0
34.430        20
34.440        13
34.450        13
34.460        20
34.470        40
34.480         7
34.490        20
34.500        13
34.510        13
34.520        20
34.530        20
34.540        13
34.550        20
34.560        53
34.570         7
34.580         0
34.590        20
34.600        20
34.610        27
34.620        13
34.630        13
34.640        40
34.650        13
34.660        33
34.670        47
34.680        47
34.690        53
34.700        13
34.710        13
34.720        20
34.730        13
34.740        53
34.750        13
34.760        33
34.770        33
34.780        40
34.790        27
34.800        87
34.810        33
34.820        20
34.830        13
34.840        33
34.850        27
34.860        40
34.870        47
34.880        27
34.890        40
34.900        33
34.910        33
34.920        33
34.930        33
34.940         7
34.950        27
34.960        33
34.970        27
34.980        20
34.990        33
35.000        60
35.010        40
35.020        47
35.030        60
35.040        40
35.050        53
35.060        47
35.070        53
35.080        93
35.090       160
35.100       193
35.110       167
35.120       207
35.130       227
35.140       373
35.150       433
35.160       520
35.170       573
35.180       686
35.190       540
35.200       593
35.210       433
35.220       420
35.230       320
35.240       313
35.250       340
35.260       367
35.270       307
35.280       320
35.290       293
35.300       280
35.310       207
35.320        93
35.330       107
35.340        73
35.350        33
35.360        67
35.370        47
35.380        47
35.390        60
35.400        27
35.410        33
35.420        27
35.430        33
35.440        13
35.450        53
35.460        13
35.470        33
35.480        13
35.490        27
35.500        33
35.510        27
35.520        33
35.530        27
35.540        13
35.550        40
35.560        27
35.570        33
35.580        20
35.590        47
35.600        20
35.610        53
35.620        13
35.630        33
35.640        13
35.650        13
35.660        53
35.670        40
35.680        20
35.690         7
35.700        13
35.710        20
35.720        33
35.730        27
35.740        47
35.750        27
35.760        20
35.770        40
35.780        40
35.790        20
35.800        20
35.810        33
35.820        27
35.830        27
35.840        33
35.850        27
35.860        20
35.870        13
35.880        33
35.890        13
35.900        40
35.910         7
35.920        20
35.930        20
35.940        53
35.950        13
35.960        20
35.970        13
35.980        13
35.990        33
36.000         7
36.010        27
36.020        13
36.030        20
36.040         7
36.050         0
36.060        20
36.070        20
36.080         7
36.090        33
36.100        20
36.110         0
36.120        33
36.130        47
36.140        20
36.150        47
36.160        13
36.170        40
36.180        20
36.190        27
36.200        33
36.210        27
36.220        40
36.230        27
36.240        13
36.250         7
36.260        40
36.270        20
36.280        13
36.290        33
36.300        53
36.310        20
36.320        33
36.330        20
36.340        27
36.350        33
36.360        27
36.370        33
36.380        33
36.390         7
36.400        13
36.410        53
36.420        20
36.430        13
36.440        13
36.450         7
36.460        27
36.470        20
36.480        40
36.490        20
36.500        20
36.510        20
36.520        20
36.530        13
36.540        13
36.550        20
36.560        13
36.570        13
36.580        40
36.590        40
36.600        20
36.610        20
36.620        60
36.630        20
36.640        13
36.650         0
36.660        20
36.670        27
36.680        33
36.690        47
36.700         7
36.710        27
36.720        40
36.730        20
36.740        13
36.750        13
36.760         7
36.770         7
36.780        27
36.790        60
36.800        13
36.810        27
36.820        33
36.830        20
36.840        13
36.850        20
36.860        33
36.870        40
36.880        40
36.890        20
36.900        20
36.910        40
36.920        20
36.930        33
36.940        13
36.950        47
36.960        40
36.970        40
36.980        53
36.990        40
37.000        40
37.010        13
37.020        20
37.030        13
37.040        13
37.050        20
37.060         0
37.070        27
37.080        13
37.090         7
37.100        27
37.110        47
37.120         7
37.130        13
37.140        20
37.150        27
37.160        40
37.170        33
37.180        20
37.190        40
37.200         7
37.210        20
37.220        13
37.230        40
37.240        20
37.250        53
37.260        13
37.270        20
37.280        20
37.290        13
37.300        27
37.310        27
37.320        13
37.330        20
37.340         0
37.350        40
37.360        13
37.370        13
37.380        47
37.390        13
37.400        13
37.410        40
37.420        20
37.430        33
37.440        33
37.450        13
37.460        20
37.470        33
37.480        27
37.490        47
37.500        33
37.510         7
37.520        13
37.530        47
37.540        20
37.550        27
37.560        27
37.570         0
37.580        40
37.590        20
37.600        33
37.610        40
37.620        27
37.630        33
37.640        40
37.650         7
37.660        33
37.670        47
37.680        27
37.690        53
37.700         7
37.710        20
37.720        73
37.730        47
37.740        60
37.750        33
37.760        53
37.770        53
37.780        40
37.790        67
37.800        73
37.810        53
37.820        53
37.830        73
37.840        47
37.850        53
37.860        33
37.870        40
37.880        33
37.890        20
37.900        73
37.910        47
37.920        33
37.930        40
37.940         7
37.950        47
37.960        27
37.970        27
37.980        13
37.990        40
38.000        33
38.010        33
38.020        20
38.030        47
38.040        20
38.050         0
38.060         0
38.070        20
38.080        67
38.090        20
38.100        13
38.110        47
38.120        47
38.130        27
38.140        20
38.150        33
38.160        27
38.170        33
38.180        27
38.190        20
38.200        27
38.210         7
38.220        13
38.230         7
38.240        27
38.250        13
38.260        13
38.270        27
38.280        13
38.290        13
38.300        27
38.310         7
38.320         7
38.330        20
38.340         7
38.350         0
38.360        13
38.370         0
38.380        40
38.390        40
38.400        13
38.410        20
38.420        33
38.430        27
38.440        33
38.450        33
38.460        27
38.470        13
38.480         0
38.490        13
38.500        13
38.510        13
38.520        27
38.530         7
38.540        27
38.550        27
38.560        27
38.570        27
38.580        13
38.590        40
38.600        13
38.610        13
38.620         7
38.630        20
38.640        27
38.650        13
38.660        27
38.670        27
38.680        33
38.690         7
38.700        13
38.710         7
38.720        20
38.730        20
38.740        20
38.750        33
38.760        13
38.770        33
38.780        20
38.790        40
38.800        27
38.810        33
38.820        33
38.830        13
38.840        13
38.850        13
38.860        13
38.870        20
38.880        20
38.890        47
38.900         7
38.910        53
38.920        13
38.930         7
38.940        13
38.950        13
38.960        13
38.970        13
38.980        13
38.990        33
39.000        60
39.010        20
39.020         7
39.030        13
39.040        33
39.050        27
39.060        13
39.070        13
39.080        27
39.090        20
39.100        47
39.110        27
39.120         7
39.130        20
39.140         7
39.150        33
39.160        20
39.170        20
39.180        27
39.190        20
39.200        20
39.210        33
39.220        20
39.230        20
39.240        33
39.250         7
39.260        20
39.270        20
39.280        27
39.290        27
39.300        20
39.310         7
39.320        33
39.330         7
39.340        40
39.350        20
39.360        20
39.370        33
39.380        40
39.390         7
39.400         7
39.410        13
39.420        20
39.430        33
39.440         7
39.450         7
39.460        20
39.470         7
39.480        27
39.490        27
39.500        33
39.510        20
39.520        20
39.530        40
39.540        20
39.550        20
39.560        20
39.570        13
39.580        20
39.590        20
39.600        20
39.610        47
39.620        20
39.630        33
39.640        13
39.650        27
39.660        27
39.670        47
39.680        20
39.690        33
39.700        33
39.710        20
39.720        13
39.730         7
39.740        27
39.750        13
39.760        20
39.770        53
39.780        40
39.790        13
39.800        20
39.810        27
39.820        13
39.830         0
39.840         7
39.850        13
39.860        13
39.870        33
39.880        33
39.890        33
39.900        13
39.910         7
39.920         7
39.930        13
39.940        13
39.950        20
39.960        13
39.970        13
39.980        40
39.990        13
40.000        33
40.010         7
40.020        13
40.030        13
40.040        13
40.050        20
40.060        13
40.070        27
40.080         7
40.090        20
40.100         7
40.110        13
40.120        20
40.130        33
40.140        27
40.150        20
40.160        33
40.170        13
40.180         0
40.190        20
40.200        33
40.210         7
40.220        27
40.230        20
40.240        20
40.250        13
40.260        67
40.270        13
40.280        27
40.290        20
40.300        13
40.310        27
40.320        20
40.330        20
40.340        33
40.350        27
40.360         0
40.370        27
40.380        53
40.390        20
40.400        33
40.410         7
40.420        13
40.430        13
40.440        20
40.450        27
40.460        33
40.470        13
40.480        20
40.490         7
40.500         7
40.510        40
40.520        13
40.530         7
40.540        47
40.550        27
40.560        20
40.570         7
40.580        13
40.590        27
40.600        40
40.610         0
40.620        27
40.630        13
40.640        47
40.650        20
40.660        13
40.670        33
40.680        13
40.690         7
40.700         7
40.710         7
40.720        20
40.730        13
40.740        40
40.750        27
40.760        20
40.770        20
40.780        33
40.790         7
40.800        47
40.810        20
40.820        27
40.830        13
40.840        27
40.850         7
40.860        27
40.870         7
40.880        33
40.890         0
40.900        20
40.910        40
40.920        33
40.930        20
40.940        47
40.950         7
40.960        20
40.970        27
40.980        40
40.990        33
41.000        33
41.010        27
41.020        27
41.030         7
41.040        13
41.050        27
41.060        53
41.070        13
41.080        20
41.090        47
41.100        27
41.110         7
41.120        13
41.130        33
41.140        27
41.150        33
41.160        13
41.170        20
41.180        27
41.190        27
41.200        20
41.210        33
41.220        13
41.230        27
41.240        53
41.250        40
41.260        13
41.270        27
41.280        20
41.290        13
41.300        27
41.310        13
41.320        20
41.330         7
41.340        13
41.350        20
41.360        20
41.370         7
41.380        20
41.390        20
41.400        27
41.410        33
41.420        53
41.430        13
41.440        13
41.450        27
41.460         7
41.470        13
41.480        33
41.490        40
41.500        20
41.510        60
41.520        60
41.530        40
41.540        40
41.550        27
41.560        27
41.570        67
41.580       100
41.590       100
41.600        67
41.610        60
41.620        80
41.630        93
41.640       113
41.650       133
41.660       147
41.670       180
41.680       193
41.690       247
41.700       193
41.710       220
41.720       200
41.730       193
41.740       153
41.750       200
41.760       107
41.770       113
41.780        87
41.790       127
41.800       140
41.810       107
41.820       133
41.830       147
41.840       113
41.850        87
41.860        47
41.870        47
41.880        60
41.890        33
41.900        47
41.910        13
41.920        13
41.930        27
41.940        13
41.950        33
41.960        33
41.970        20
41.980        27
41.990        33
42.000        20
42.010         7
42.020        13
42.030        13
42.040        20
42.050        20
42.060        47
42.070         7
42.080        33
42.090        27
42.100        20
42.110        53
42.120         7
42.130        20
42.140        27
42.150        47
42.160        20
42.170        13
42.180        20
42.190         7
42.200        40
42.210        13
42.220        20
42.230        33
42.240        20
42.250        33
42.260        20
42.270        33
42.280        33
42.290        13
42.300         0
42.310         7
42.320        13
42.330        20
42.340        20
42.350        13
42.360        20
42.370         7
42.380        33
42.390        20
42.400         7
42.410        13
42.420         7
42.430         7
42.440        40
42.450        13
42.460        27
42.470         7
42.480        27
42.490         7
42.500         7
42.510        33
42.520        20
42.530        20
42.540        27
42.550        20
42.560        20
42.570         0
42.580        13
42.590        13
42.600        47
42.610        13
42.620        40
42.630        47
42.640         0
42.650        27
42.660        33
42.670        13
42.680        13
42.690        33
42.700        20
42.710        20
42.720        20
42.730        20
42.740         7
42.750        13
42.760        13
42.770         7
42.780        40
42.790        33
42.800         7
42.810        13
42.820        27
42.830         7
42.840        20
42.850        40
42.860        33
42.870        27
42.880        27
42.890        13
42.900        20
42.910        40
42.920        33
42.930        33
42.940        20
42.950        20
42.960        13
42.970        47
42.980        47
42.990        20
43.000        27
43.010        13
43.020        20
43.030        33
43.040        27
43.050        53
43.060        33
43.070        40
43.080         7
43.090        20
43.100        13
43.110        87
43.120        33
43.130         7
43.140        27
43.150        47
43.160        27
43.170        53
43.180         7
43.190        60
43.200        53
43.210        20
43.220        27
43.230        67
43.240        67
43.250        47
43.260        53
43.270        60
43.280       100
43.290       133
43.300       107
43.310       247
43.320       240
43.330       420
43.340       433
43.350       333
43.360       420
43.370       253
43.380       140
43.390       260
43.400       153
43.410       240
43.420       260
43.430       333
43.440       260
43.450       280
43.460       240
43.470       193
43.480       180
43.490        93
43.500        93
43.510       107
43.520        80
43.530        80
43.540       107
43.550        80
43.560       133
43.570        53
43.580        47
43.590        47
43.600        40
43.610        33
43.620        13
43.630        33
43.640        20
43.650         0
43.660        20
43.670        20
43.680        33
43.690        40
43.700        13
43.710         0
43.720        20
43.730        13
43.740        33
43.750        13
43.760        47
43.770        13
43.780        27
43.790        27
43.800        33
43.810         7
43.820         7
43.830        13
43.840        13
43.850        47
43.860        40
43.870         7
43.880        60
43.890        13
43.900        33
43.910        13
43.920        47
43.930        27
43.940        27
43.950         7
43.960        33
43.970        13
43.980        47
43.990        13
44.000        20
44.010        33
44.020        13
44.030        20
44.040        27
44.050        20
44.060        13
44.070        20
44.080        20
44.090        13
44.100        20
44.110        40
44.120        27
44.130        53
44.140        13
44.150        33
44.160        20
44.170        47
44.180        27
44.190        40
44.200         7
44.210        27
44.220        33
44.230         7
44.240        13
44.250        33
44.260        33
44.270        27
44.280         7
44.290         7
44.300        27
44.310        13
44.320         0
44.330        27
44.340        33
44.350        13
44.360        33
44.370        20
44.380         0
44.390        13
44.400        33
44.410        13
44.420         0
44.430        27
44.440        13
44.450        20
44.460        27
44.470        27
44.480        33
44.490        27
44.500        20
44.510        13
44.520        27
44.530         0
44.540        27
44.550         7
44.560        20
44.570        20
44.580        20
44.590        20
44.600        40
44.610        20
44.620        27
44.630         7
44.640        20
44.650        13
44.660         7
44.670         7
44.680        20
44.690        13
44.700        40
44.710        13
44.720        27
44.730        33
44.740         0
44.750        20
44.760        20
44.770         7
44.780        33
44.790        33
44.800        40
44.810         7
44.820        27
44.830        40
44.840         0
44.850        27
44.860         0
44.870        13
44.880         0
44.890         7
44.900        13
44.910        13
44.920        27
44.930        13
44.940        33
44.950         7
44.960        33
44.970        20
44.980        33
44.990        20
45.000        27
45.010        33
45.020        13
45.030        13
45.040        27
45.050        20
45.060        27
45.070        33
45.080         0
45.090        27
45.100        13
45.110        20
45.120        20
45.130        13
45.140        13
45.150         0
45.160        13
45.170        20
45.180         7
45.190        13
45.200         7
45.210        27
45.220        27
45.230        13
45.240        20
45.250         0
45.260        33
45.270        53
45.280        20
45.290        20
45.300        13
45.310        20
45.320        60
45.330        20
45.340         7
45.350        27
45.360        13
45.370        13
45.380         0
45.390         7
45.400        13
45.410        13
45.420         7
45.430        13
45.440        40
45.450        20
45.460        13
45.470        27
45.480        47
45.490        47
45.500        33
45.510         7
45.520         0
45.530         0
45.540        13
45.550         7
45.560        27
45.570        13
45.580         7
45.590        13
45.600        27
45.610        33
45.620        20
45.630        20
45.640         7
45.650         7
45.660        27
45.670         7
45.680        27
45.690         0
45.700        27
45.710        20
45.720         7
45.730        20
45.740        20
45.750        27
45.760        13
45.770        20
45.780        13
45.790        27
45.800        13
45.810        13
45.820        13
45.830         0
45.840        33
45.850         7
45.860        33
45.870        20
45.880        13
45.890        27
45.900        13
45.910        13
45.920        33
45.930        20
45.940        40
45.950        13
45.960         7
45.970        20
45.980        33
45.990         7
46.000        13
46.010         7
46.020        20
46.030        20
46.040        27
46.050        13
46.060        27
46.070        33
46.080         7
46.090        13
46.100        27
46.110        13
46.120        13
46.130        13
46.140         7
46.150        27
46.160        13
46.170         0
46.180         7
46.190        20
46.200         7
46.210        20
46.220        27
46.230        33
46.240        27
46.250        27
46.260        13
46.270        13
46.280        13
46.290        27
46.300        13
46.310        20
46.320        40
46.330        47
46.340        20
46.350        20
46.360        20
46.370         7
46.380         0
46.390        33
46.400        40
46.410        20
46.420         7
46.430         7
46.440        33
46.450        13
46.460         7
46.470        20
46.480        13
46.490        20
46.500        20
46.510        33
46.520        13
46.530        13
46.540        47
46.550        13
46.560         7
46.570        13
46.580        13
46.590         7
46.600        40
46.610        20
46.620        33
46.630        53
46.640         7
46.650        13
46.660        27
46.670        13
46.680        33
46.690        13
46.700        13
46.710         0
46.720        13
46.730        20
46.740         7
46.750        20
46.760        27
46.770        20
46.780         7
46.790         7
46.800         7
46.810        13
46.820        27
46.830        27
46.840        27
46.850        33
46.860        20
46.870        13
46.880        13
46.890        13
46.900        20
46.910         0
46.920         7
46.930        20
46.940        13
46.950         0
46.960        13
46.970        27
46.980         7
46.990        13
47.000         7
47.010        13
47.020        20
47.030         7
47.040        27
47.050         0
47.060        13
47.070         7
47.080        13
47.090        13
47.100         7
47.110        13
47.120        13
47.130         0
47.140        20
47.150        20
47.160        20
47.170        13
47.180        13
47.190        20
47.200         7
47.210        33
47.220        13
47.230        27
47.240        13
47.250         0
47.260        13
47.270        40
47.280        27
47.290         7
47.300        20
47.310        13
47.320         7
47.330         7
47.340        20
47.350         7
47.360        13
47.370        13
47.380         7
47.390        33
47.400         7
47.410         0
47.420         0
47.430         0
47.440         0
47.450         7
47.460         7
47.470         7
47.480         7
47.490         0
47.500         7
47.510        13
47.520        20
47.530        13
47.540         0
47.550        20
47.560        13
47.570        27
47.580         7
47.590        13
47.600         7
47.610        13
47.620        20
47.630         0
47.640        20
47.650         7
47.660        13
47.670         7
47.680         7
47.690         0
47.700        40
47.710         7
47.720        27
47.730        13
47.740         7
47.750        27
47.760        13
47.770        20
47.780        20
47.790        13
47.800        13
47.810         7
47.820         0
47.830        20
47.840        20
47.850         7
47.860        20
47.870        27
47.880        20
47.890         0
47.900         7
47.910         7
47.920        13
47.930        13
47.940        13
47.950        13
47.960        13
47.970         0
47.980        40
47.990        20
48.000         7
48.010         0
48.020        13
48.030        20
48.040        13
48.050         7
48.060        20
48.070        20
48.080         7
48.090        27
48.100        20
48.110        13
48.120        13
48.130         0
48.140        27
48.150         0
48.160         0
48.170         0
48.180        13
48.190        20
48.200        20
48.210        13
48.220        27
48.230         0
48.240        13
48.250         7
48.260        20
48.270        13
48.280        27
48.290        20
48.300         7
48.310         0
48.320        20
48.330         0
48.340        13
48.350        13
48.360         7
48.370        13
48.380        13
48.390        13
48.400         7
48.410        20
48.420        13
48.430        13
48.440         7
48.450        20
48.460         7
48.470         7
48.480        27
48.490         0
48.500         7
48.510        27
48.520         7
48.530         0
48.540         0
48.550        27
48.560         0
48.570        13
48.580        33
48.590        13
48.600        27
48.610        20
48.620        40
48.630        27
48.640        20
48.650        13
48.660         7
48.670        13
48.680         7
48.690        20
48.700         7
48.710        27
48.720         7
48.730         7
48.740         7
48.750        20
48.760         7
48.770         7
48.780        20
48.790         7
48.800         7
48.810        13
48.820        20
48.830        13
48.840         7
48.850        13
48.860        27
48.870         7
48.880        13
48.890        13
48.900        27
48.910         0
48.920        27
48.930        13
48.940        20
48.950        20
48.960        33
48.970        40
48.980        13
48.990         0
49.000        20
49.010        20
49.020        27
49.030        20
49.040         7
49.050         7
49.060        13
49.070        27
49.080        13
49.090        20
49.100         7
49.110        13
49.120         7
49.130        20
49.140        20
49.150         7
49.160         0
49.170         7
49.180        13
49.190        20
49.200        13
49.210         7
49.220        13
49.230        20
49.240        13
49.250         7
49.260        20
49.270        20
49.280         0
49.290        20
49.300         7
49.310        13
49.320        20
49.330         7
49.340         7
49.350        20
49.360         7
49.370        13
49.380        47
49.390         7
49.400        20
49.410        13
49.420        13
49.430        20
49.440         0
49.450        13
49.460         7
49.470        13
49.480        33
49.490        20
49.500         7
49.510        13
49.520        33
49.530        13
49.540        13
49.550         7
49.560         0
49.570        20
49.580         0
49.590        13
49.600        20
49.610        13
49.620        33
49.630        20
49.640        20
49.650         7
49.660        27
49.670         0
49.680        20
49.690         7
49.700        13
49.710         7
49.720        33
49.730        27
49.740        13
49.750        13
49.760        13
49.770        13
49.780         7
49.790        20
49.800        20
49.810        13
49.820        13
49.830        20
49.840        13
49.850        13
49.860        40
49.870        20
49.880        13
49.890        20
49.900        33
49.910        20
49.920         7
49.930         7
49.940        20
49.950        27
49.960         7
49.970        20
49.980         7
49.990         7
50.000        13
50.010        20
50.020        13
50.030        20
50.040         7
50.050        13
50.060        13
50.070         0
50.080        13
50.090        40
50.100         7
50.110         7
50.120        13
50.130         7
50.140        13
50.150         0
50.160         7
50.170        13
50.180        20
50.190        13
50.200        20
50.210        13
50.220        13
50.230         7
50.240         7
50.250        13
50.260        13
50.270        13
50.280        13
50.290        40
50.300         7
50.310        20
50.320        13
50.330        27
50.340        27
50.350        13
50.360        33
50.370        20
50.380        13
50.390        13
50.400        13
50.410        13
50.420         0
50.430        33
50.440        33
50.450        27
50.460         7
50.470         0
50.480        13
50.490        13
50.500        13
50.510        20
50.520         7
50.530         0
50.540        27
50.550         7
50.560         7
50.570         7
50.580        33
50.590         7
50.600         7
50.610         7
50.620        20
50.630         7
50.640         7
50.650        33
50.660        20
50.670         7
50.680         0
50.690        13
50.700        27
50.710         7
50.720        13
50.730        13
50.740        27
50.750         7
50.760         7
50.770         7
50.780         7
50.790        27
50.800        13
50.810        13
50.820        27
50.830        20
50.840        20
50.850         0
50.860        20
50.870        13
50.880         7
50.890        13
50.900        40
50.910         7
50.920         0
50.930         0
50.940        20
50.950        13
50.960        13
50.970         7
50.980        13
50.990         0
51.000        20
51.010         7
51.020        27
51.030         7
51.040        13
51.050        20
51.060        20
51.070        13
51.080         7
51.090         7
51.100         7
51.110         7
51.120         7
51.130         7
51.140         0
51.150         0
51.160        13
51.170        13
51.180         7
51.190         7
51.200        20
51.210         7
51.220        13
51.230        13
51.240         7
51.250         7
51.260        13
51.270        13
51.280         0
51.290        13
51.300        27
51.310        20
51.320        20
51.330        13
51.340        20
51.350         0
51.360        13
51.370        13
51.380        20
51.390         7
51.400        20
51.410        13
51.420         7
51.430        27
51.440        40
51.450        13
51.460        13
51.470        20
51.480        20
51.490        27
51.500        27
51.510        20
51.520        13
51.530        27
51.540        13
51.550        20
51.560        40
51.570        40
51.580        13
51.590         7
51.600        67
51.610        33
51.620        13
51.630        20
51.640         7
51.650         7
51.660        47
51.670        20
51.680         0
51.690        13
51.700        20
51.710        20
51.720         7
51.730        13
51.740        20
51.750         0
51.760        13
51.770        13
51.780         0
51.790         7
51.800        27
51.810        20
51.820        13
51.830         0
51.840        20
51.850         0
51.860        13
51.870        13
51.880        20
51.890        13
51.900        13
51.910        13
51.920        20
51.930         7
51.940        27
51.950         0
51.960         0
51.970         7
51.980        13
51.990        40
52.000         7
52.010        13
52.020        27
52.030        20
52.040        13
52.050        33
52.060         0
52.070        13
52.080        13
52.090        13
52.100        27
52.110        27
52.120        13
52.130        27
52.140        20
52.150        13
52.160         7
52.170        27
52.180        40
52.190         0
52.200        27
52.210        13
52.220        27
52.230        13
52.240        20
52.250         7
52.260        13
52.270        40
52.280         7
52.290        33
52.300        27
52.310        20
52.320        13
52.330         7
52.340        13
52.350         7
52.360        13
52.370        27
52.380        47
52.390        40
52.400        33
52.410        40
52.420        53
52.430        93
52.440        67
52.450        67
52.460        73
52.470        40
52.480        20
52.490        27
52.500        27
52.510        27
52.520        33
52.530        40
52.540        47
52.550        33
52.560        60
52.570        53
52.580        33
52.590        53
52.600        47
52.610         0
52.620        40
52.630        27
52.640        40
52.650        20
52.660        13
52.670        27
52.680        13
52.690        13
52.700        20
52.710        13
52.720        27
52.730         0
52.740        20
52.750        27
52.760        20
52.770        13
52.780         7
52.790        13
52.800        27
52.810         0
52.820         7
52.830         7
52.840         7
52.850        20
52.860        33
52.870        27
52.880         7
52.890        20
52.900        20
52.910        20
52.920        13
52.930        13
52.940        33
52.950        13
52.960         7
52.970        27
52.980         7
52.990        13
53.000        33
53.010         7
53.020        20
53.030         7
53.040         7
53.050        13
53.060         7
53.070        20
53.080        20
53.090         7
53.100        13
53.110        13
53.120        13
53.130         0
53.140        13
53.150         0
53.160        20
53.170        27
53.180        33
53.190        33
53.200         7
53.210         7
53.220        27
53.230        20
53.240        27
53.250        27
53.260         7
53.270        27
53.280        13
53.290        13
53.300         7
53.310        20
53.320        13
53.330         0
53.340        20
53.350        20
53.360        13
53.370        27
53.380        20
53.390        33
53.400         7
53.410         7
53.420         0
53.430        27
53.440         7
53.450        33
53.460        13
53.470        13
53.480        20
53.490         7
53.500        27
53.510         0
53.520        20
53.530        20
53.540        20
53.550        13
53.560        20
53.570        13
53.580         7
53.590        20
53.600        20
53.610        13
53.620         7
53.630        13
53.640        20
53.650        33
53.660        13
53.670        20
53.680        27
53.690        13
53.700        20
53.710         7
53.720         7
53.730        13
53.740        13
53.750        33
53.760        47
53.770         7
53.780        13
53.790        13
53.800        20
53.810        13
53.820        13
53.830         0
53.840         7
53.850        20
53.860        13
53.870        13
53.880         7
53.890        13
53.900         7
53.910        13
53.920        13
53.930        13
53.940         7
53.950        27
53.960        13
53.970         0
53.980         7
53.990        13
54.000         7
54.010         7
54.020         7
54.030        40
54.040         7
54.050        13
54.060        13
54.070        27
54.080        27
54.090         7
54.100        13
54.110        13
54.120        27
54.130        20
54.140        13
54.150        27
54.160        47
54.170        13
54.180         7
54.190        13
54.200        20
54.210         0
54.220         7
54.230        27
54.240        40
54.250         7
54.260        20
54.270        27
54.280         0
54.290        20
54.300        13
54.310        13
54.320        20
54.330        20
54.340         0
54.350        20
54.360        20
54.370        27
54.380        13
54.390         7
54.400        20
54.410        13
54.420         7
54.430        27
54.440         7
54.450         7
54.460        20
54.470        40
54.480        27
54.490         0
54.500        13
54.510        13
54.520        13
54.530         7
54.540        27
54.550        13
54.560         7
54.570         7
54.580         0
54.590         7
54.600        20
54.610         7
54.620        33
54.630         0
54.640         7
54.650        27
54.660        13
54.670        40
54.680        20
54.690         7
54.700        33
54.710         7
54.720         7
54.730        13
54.740         0
54.750        13
54.760        13
54.770        13
54.780         0
54.790        47
54.800        20
54.810        20
54.820         7
54.830        20
54.840        40
54.850         7
54.860        13
54.870        20
54.880         7
54.890         7
54.900        20
54.910        20
54.920        13
54.930        13
54.940         7
54.950         7
54.960         0
54.970         7
54.980        20
54.990        13
55.000         7
55.010         0
55.020         7
55.030         7
55.040         7
55.050        20
55.060        13
55.070         7
55.080        20
55.090        20
55.100        27
55.110         7
55.120         0
55.130        33
55.140        20
55.150        13
55.160         7
55.170         7
55.180        13
55.190         0
55.200         7
55.210        20
55.220        20
55.230        33
55.240        20
55.250        20
55.260        20
55.270         0
55.280         0
55.290         7
55.300         0
55.310         7
55.320         0
55.330        20
55.340         0
55.350        13
55.360        13
55.370         7
55.380        13
55.390        53
55.400        20
55.410        13
55.420         7
55.430         7
55.440        20
55.450         0
55.460        20
55.470         7
55.480        13
55.490         0
55.500        27
55.510         7
55.520         7
55.530        20
55.540        20
55.550         0
55.560        13
55.570        20
55.580        20
55.590         7
55.600        20
55.610        33
55.620        13
55.630        13
55.640        27
55.650         0
55.660        27
55.670        27
55.680        27
55.690         0
55.700         7
55.710        20
55.720         7
55.730        33
55.740         7
55.750         7
55.760         7
55.770        20
55.780         0
55.790         0
55.800        13
55.810         0
55.820         7
55.830        20
55.840         0
55.850         7
55.860        33
55.870         7
55.880        20
55.890         7
55.900         0
55.910         7
55.920        13
55.930        20
55.940        40
55.950         7
55.960         0
55.970        20
55.980         0
55.990         7
56.000        20
56.010        20
56.020        20
56.030        13
56.040        13
56.050        47
56.060        40
56.070        40
56.080        13
56.090         0
56.100        13
56.110        20
56.120        40
56.130         7
56.140        13
56.150         7
56.160        27
56.170         7
56.180         7
56.190         7
56.200        40
56.210         7
56.220        20
56.230        20
56.240         7
56.250        27
56.260         7
56.270        13
56.280         7
56.290         0
56.300         0
56.310         0
56.320         0
56.330        13
56.340        13
56.350        13
56.360         0
56.370        33
56.380         7
56.390         0
56.400         7
56.410        20
56.420        13
56.430         7
56.440         7
56.450        27
56.460         0
56.470        13
56.480         7
56.490        13
56.500         7
56.510        20
56.520        13
56.530        20
56.540        13
56.550        20
56.560         0
56.570        13
56.580         7
56.590         7
56.600        20
56.610         7
56.620         7
56.630         7
56.640         7
56.650        20
56.660        13
56.670         7
56.680        13
56.690         7
56.700         7
56.710        13
56.720        13
56.730        27
56.740        13
56.750        13
56.760        20
56.770        20
56.780        13
56.790        27
56.800        13
56.810        20
56.820        20
56.830         7
56.840        13
56.850         7
56.860        33
56.870         0
56.880         7
56.890        33
56.900         7
56.910        13
56.920        27
56.930         7
56.940        13
56.950         0
56.960         7
56.970        20
56.980        27
56.990        27
57.000         7
57.010         7
57.020         7
57.030         0
57.040         7
57.050        27
57.060        20
57.070        13
57.080         7
57.090        13
57.100        13
57.110        27
57.120         7
57.130         7
57.140        20
57.150         7
57.160         7
57.170        13
57.180        20
57.190        13
57.200        40
57.210        20
57.220        33
57.230        33
57.240        20
57.250        47
57.260        27
57.270        40
57.280        27
57.290        33
57.300         7
57.310        27
57.320        33
57.330        27
57.340        40
57.350        33
57.360        40
57.370        53
57.380        13
57.390        80
57.400        67
57.410        60
57.420        80
57.430       107
57.440       100
57.450        60
57.460       147
57.470       173
57.480       267
57.490       393
57.500       426
57.510       586
57.520       533
57.530       660
57.540       926
57.550       640
57.560       620
57.570       553
57.580       253
57.590       300
57.600       207
57.610       160
57.620       140
57.630       153
57.640       227
57.650       220
57.660       260
57.670       367
57.680       360
57.690       433
57.700       373
57.710       333
57.720       240
57.730       220
57.740       193
57.750       107
57.760        93
57.770       113
57.780         7
57.790        60
57.800        60
57.810        33
57.820        33
57.830        20
57.840        27
57.850        27
57.860        20
57.870        13
57.880        40
57.890        33
57.900         7
57.910        20
57.920        33
57.930        13
57.940        13
57.950        27
57.960         7
57.970        13
57.980        20
57.990         7
58.000         7
58.010         0
58.020        13
58.030        27
58.040         7
58.050        20
58.060         0
58.070         0
58.080        20
58.090         7
58.100         7
58.110        20
58.120         7
58.130         7
58.140        13
58.150        20
58.160         0
58.170        13
58.180        13
58.190         0
58.200        20
58.210         7
58.220        13
58.230        20
58.240         0
58.250        40
58.260         7
58.270        13
58.280        27
58.290        20
58.300         0
58.310         7
58.320        20
58.330         7
58.340        33
58.350         0
58.360        13
58.370        13
58.380         7
58.390         0
58.400        33
58.410        13
58.420         7
58.430        13
58.440        13
58.450         7
58.460        13
58.470        20
58.480        27
58.490         7
58.500        13
58.510        13
58.520        20
58.530        20
58.540        13
58.550        33
58.560        13
58.570         0
58.580         0
58.590        20
58.600         7
58.610         7
58.620         0
58.630         7
58.640        13
58.650         7
58.660        27
58.670         7
58.680        20
58.690         7
58.700        40
58.710        13
58.720        33
58.730         7
58.740         7
58.750         0
58.760        13
58.770        27
58.780        13
58.790        33
58.800        27
58.810         7
58.820        20
58.830        27
58.840         7
58.850        33
58.860         0
58.870        13
58.880        20
58.890         7
58.900        27
58.910        20
58.920         0
58.930        33
58.940        13
58.950        13
58.960         7
58.970        13
58.980         7
58.990        13
59.000        20
59.010         7
59.020        13
59.030         0
59.040        13
59.050        20
59.060        27
59.070         7
59.080         0
59.090        20
59.100        13
59.110        13
59.120         7
59.130        20
59.140        27
59.150         0
59.160        40
59.170         7
59.180        20
59.190         0
59.200        47
59.210         0
59.220        13
59.230        20
59.240        13
59.250        20
59.260        13
59.270        13
59.280        20
59.290        20
59.300        13
59.310        20
59.320        13
59.330        20
59.340         7
59.350        27
59.360         7
59.370        20
59.380        13
59.390         7
59.400         0
59.410        13
59.420        47
59.430        33
59.440         7
59.450         7
59.460         7
59.470         0
59.480        13
59.490        20
59.500        20
59.510        20
59.520         7
59.530        27
59.540         7
59.550        20
59.560        20
59.570        13
59.580        33
59.590         0
59.600        13
59.610        27
59.620        13
59.630        13
59.640        20
59.650        27
59.660        20
59.670        13
59.680         0
59.690        20
59.700        27
59.710         7
59.720         7
59.730        13
59.740        33
59.750         7
59.760         7
59.770         7
59.780        27
59.790        27
59.800        13
59.810        20
59.820        13
59.830        27
59.840         7
59.850        20
59.860        33
59.870        13
59.880        27
59.890        13
59.900        20
59.910        27
59.920        13
59.930        13
59.940        13
59.950         0
59.960        20
59.970        13
59.980         0
59.990         0
60.000         0
