20.000        13
20.010        13
20.020        47
20.030        47
20.040        27
20.050        80
20.060        40
20.070        53
20.080        13
20.090        20
20.100        20
20.110        13
20.120        67
20.130        27
20.140        40
20.150        33
20.160        67
20.170        40
20.180        60
20.190        27
20.200        27
20.210        60
20.220        13
20.230        53
20.240        33
20.250        67
20.260        33
20.270        53
20.280        47
20.290        27
20.300        33
20.310        53
20.320        60
20.330        40
20.340        47
20.350        13
20.360        53
20.370        27
20.380        47
20.390        13
20.400        40
20.410        27
20.420        33
20.430        13
20.440        40
20.450        13
20.460        53
20.470        33
20.480         7
20.490        40
20.500        33
20.510        27
20.520        40
20.530        27
20.540        60
20.550        20
20.560        27
20.570        27
20.580        47
20.590        47
20.600        27
20.610        40
20.620         7
20.630        40
20.640        40
20.650        20
20.660        53
20.670        40
20.680        27
20.690        27
20.700        67
20.710        67
20.720        33
20.730        40
20.740        47
20.750        33
20.760        47
20.770        60
20.780        33
20.790        20
20.800        47
20.810        40
20.820        27
20.830        53
20.840        27
20.850        47
20.860        53
20.870        53
20.880        20
20.890        40
20.900        33
20.910        27
20.920        47
20.930        20
20.940        67
20.950        53
20.960        53
20.970        67
20.980        60
20.990        67
21.000        27
21.010        47
21.020        33
21.030        67
21.040        13
21.050        40
21.060        33
21.070        33
21.080        47
21.090        27
21.100        20
21.110        60
21.120        33
21.130        60
21.140        20
21.150        47
21.160        47
21.170        20
21.180        13
21.190        20
21.200        40
21.210        40
21.220        40
21.230        60
21.240        67
21.250        33
21.260        40
21.270        13
21.280        13
21.290        27
21.300        40
21.310        27
21.320        53
21.330        13
21.340        40
21.350        13
21.360        27
21.370        27
21.380        33
21.390        53
21.400        27
21.410        53
21.420        33
21.430        53
21.440        47
21.450        27
21.460        33
21.470        33
21.480        27
21.490        33
21.500        33
21.510        20
21.520        33
21.530        67
21.540         7
21.550        40
21.560        33
21.570        13
21.580        20
21.590        27
21.600         7
21.610        53
21.620        40
21.630        20
21.640        27
21.650        40
21.660        13
21.670        20
21.680         7
21.690        80
21.700        60
21.710        27
21.720        20
21.730        40
21.740        13
21.750        40
21.760        20
21.770        53
21.780        60
21.790        13
21.800        20
21.810        53
21.820        40
21.830        33
21.840        27
21.850        40
21.860        33
21.870        33
21.880        60
21.890        47
21.900        60
21.910        27
21.920        40
21.930         7
21.940        33
21.950        67
21.960        20
21.970        40
21.980        27
21.990        13
22.000        27
22.010        33
22.020        33
22.030        13
22.040         7
22.050        20
22.060        53
22.070        47
22.080        40
22.090        27
22.100        13
22.110        27
22.120        27
22.130        27
22.140        40
22.150        33
22.160        20
22.170        33
22.180        33
22.190        40
22.200        47
22.210        13
22.220        20
22.230        27
22.240        20
22.250        20
22.260        20
22.270        40
22.280        40
22.290        20
22.300        20
22.310        20
22.320        33
22.330        47
22.340        40
22.350        27
22.360        27
22.370        47
22.380        20
22.390        13
22.400        33
22.410        27
22.420        47
22.430        33
22.440        13
22.450        47
22.460        20
22.470         7
22.480        13
22.490        27
22.500        20
22.510        33
22.520        13
22.530        47
22.540        60
22.550        20
22.560        40
22.570        53
22.580         7
22.590        40
22.600         7
22.610        27
22.620        33
22.630        33
22.640        13
22.650        13
22.660        13
22.670        20
22.680        47
22.690        27
22.700        20
22.710        33
22.720        20
22.730        47
22.740        13
22.750        27
22.760        33
22.770        33
22.780        27
22.790        13
22.800        27
22.810        47
22.820        47
22.830        40
22.840        27
22.850        53
22.860        20
22.870        47
22.880        13
22.890        33
22.900        40
22.910        40
22.920        20
22.930        40
22.940        60
22.950        33
22.960        20
22.970        27
22.980        33
22.990        13
23.000        27
23.010        27
23.020        20
23.030        20
23.040        13
23.050        20
23.060        47
23.070        53
23.080        13
23.090        13
23.100        33
23.110        47
23.120        33
23.130        27
23.140        27
23.150        53
23.160        53
23.170         7
23.180        27
23.190        40
23.200        13
23.210        20
23.220        67
23.230        33
23.240        13
23.250        53
23.260        33
23.270        13
23.280        13
23.290        33
23.300        33
23.310        47
23.320        33
23.330        40
23.340        20
23.350        33
23.360        27
23.370        20
23.380        20
23.390        20
23.400        27
23.410         7
23.420        27
23.430        53
23.440         7
23.450         7
23.460        20
23.470        33
23.480        47
23.490        20
23.500        33
23.510        33
23.520        20
23.530        40
23.540        27
23.550        33
23.560        40
23.570        47
23.580        20
23.590        13
23.600        27
23.610        27
23.620        13
23.630        27
23.640        27
23.650        20
23.660        47
23.670        20
23.680        20
23.690         7
23.700        27
23.710        33
23.720        13
23.730        33
23.740        20
23.750        13
23.760        27
23.770        33
23.780        33
23.790        27
23.800        33
23.810        20
23.820        67
23.830         7
23.840         7
23.850        33
23.860        33
23.870        27
23.880        33
23.890        20
23.900        40
23.910        20
23.920        53
23.930        13
23.940        13
23.950        27
23.960         0
23.970        33
23.980        27
23.990        20
24.000        47
24.010        20
24.020        13
24.030        20
24.040        33
24.050        20
24.060        27
24.070        27
24.080        40
24.090        53
24.100        47
24.110        40
24.120        33
24.130        40
24.140        60
24.150        13
24.160        20
24.170        20
24.180        20
24.190        47
24.200        13
24.210        47
24.220        53
24.230        53
24.240        33
24.250        40
24.260        40
24.270        47
24.280        27
24.290         7
24.300        33
24.310        20
24.320        20
24.330        13
24.340        33
24.350        20
24.360        13
24.370        33
24.380        27
24.390        13
24.400        20
24.410        20
24.420        27
24.430        40
24.440        20
24.450        33
24.460        13
24.470        20
24.480        27
24.490        27
24.500         7
24.510        13
24.520        27
24.530        33
24.540        13
24.550        20
24.560        13
24.570        20
24.580        27
24.590        27
24.600        33
24.610         7
24.620        33
24.630        53
24.640         7
24.650        20
24.660        27
24.670        20
24.680        47
24.690        20
24.700        40
24.710        13
24.720         7
24.730        27
24.740        53
24.750        47
24.760        27
24.770        13
24.780        27
24.790        13
24.800        40
24.810        20
24.820        33
24.830         0
24.840        27
24.850        33
24.860        20
24.870        27
24.880        20
24.890        13
24.900        33
24.910        40
24.920        40
24.930         7
24.940        27
24.950         7
24.960        33
24.970        13
24.980        13
24.990        53
25.000        20
25.010        40
25.020        20
25.030        33
25.040        20
25.050        13
25.060        13
25.070        27
25.080        13
25.090        33
25.100        27
25.110         7
25.120        33
25.130        20
25.140        27
25.150        13
25.160        27
25.170        33
25.180        47
25.190        20
25.200        40
25.210        27
25.220        27
25.230        27
25.240        40
25.250         0
25.260        20
25.270        33
25.280         0
25.290        27
25.300        33
25.310        20
25.320         7
25.330         7
25.340        20
25.350        27
25.360        13
25.370        20
25.380        27
25.390        47
25.400        40
25.410        13
25.420        13
25.430        27
25.440        27
25.450        13
25.460        20
25.470         7
25.480        13
25.490        40
25.500        13
25.510        27
25.520        27
25.530        27
25.540        47
25.550        53
25.560        20
25.570         7
25.580         7
25.590        13
25.600        27
25.610        13
25.620        33
25.630        27
25.640        20
25.650        47
25.660        20
25.670        13
25.680        13
25.690        13
25.700        20
25.710        27
25.720         7
25.730        20
25.740        27
25.750        33
25.760         7
25.770        40
25.780        40
25.790        20
25.800        53
25.810        27
25.820        40
25.830        13
25.840        20
25.850        20
25.860        27
25.870         7
25.880         7
25.890        13
25.900        20
25.910         7
25.920        13
25.930        33
25.940        40
25.950        20
25.960        47
25.970        13
25.980         7
25.990        40
26.000        13
26.010        13
26.020        13
26.030        47
26.040        40
26.050        33
26.060        20
26.070        47
26.080        27
26.090        20
26.100        13
26.110        13
26.120        27
26.130        13
26.140         7
26.150        40
26.160        33
26.170        27
26.180        20
26.190        13
26.200        33
26.210        13
26.220        27
26.230        33
26.240        27
26.250        27
26.260         7
26.270        27
26.280        40
26.290         7
26.300        33
26.310        13
26.320        47
26.330        33
26.340        33
26.350        40
26.360         7
26.370        27
26.380        27
26.390        27
26.400        27
26.410        13
26.420        27
26.430        20
26.440        20
26.450        33
26.460        33
26.470        33
26.480        33
26.490        33
26.500        13
26.510         7
26.520         7
26.530        13
26.540        20
26.550        27
26.560        20
26.570        20
26.580        47
26.590        47
26.600        13
26.610        13
26.620        13
26.630        13
26.640        20
26.650        47
26.660        33
26.670        20
26.680        33
26.690         7
26.700        27
26.710         7
26.720        13
26.730         7
26.740        33
26.750        27
26.760        20
26.770        27
26.780        27
26.790        20
26.800        27
26.810        13
26.820        33
26.830        20
26.840        20
26.850        27
26.860        20
26.870        33
26.880        60
26.890        53
26.900         0
26.910        33
26.920        20
26.930        67
26.940        27
26.950        40
26.960        13
26.970         0
26.980        27
26.990        13
27.000        13
27.010        27
27.020        20
27.030        33
27.040        53
27.050        40
27.060        13
27.070         7
27.080        27
27.090         0
27.100        20
27.110         7
27.120        13
27.130        13
27.140         7
27.150        27
27.160        27
27.170        20
27.180         7
27.190        20
27.200        27
27.210        20
27.220        20
27.230        27
27.240        47
27.250        13
27.260        13
27.270        13
27.280         0
27.290         7
27.300        20
27.310        20
27.320        13
27.330        27
27.340        13
27.350        27
27.360        33
27.370        27
27.380        20
27.390        67
27.400        20
27.410        27
27.420        27
27.430        40
27.440        33
27.450        27
27.460        13
27.470         7
27.480        20
27.490        47
27.500        27
27.510        20
27.520        13
27.530         7
27.540         7
27.550        27
27.560        20
27.570        13
27.580        53
27.590        40
27.600        13
27.610        27
27.620        13
27.630        33
27.640        20
27.650         0
27.660        33
27.670        13
27.680        33
27.690        60
27.700        40
27.710        33
27.720        20
27.730        13
27.740        13
27.750        13
27.760        20
27.770        20
27.780        33
27.790        33
27.800         7
27.810        53
27.820        20
27.830         0
27.840        13
27.850        33
27.860         7
27.870        47
27.880        13
27.890         7
27.900        20
27.910        40
27.920        13
27.930        27
27.940        20
27.950        20
27.960        27
27.970        13
27.980        27
27.990         7
28.000        40
28.010        20
28.020        13
28.030        33
28.040        27
28.050        27
28.060        20
28.070        40
28.080        20
28.090        27
28.100        47
28.110        20
28.120        13
28.130         7
28.140         7
28.150        20
28.160        20
28.170         7
28.180         7
28.190        13
28.200         7
28.210        13
28.220        33
28.230         7
28.240        13
28.250        20
28.260        27
28.270        27
28.280        20
28.290        20
28.300        40
28.310        13
28.320         7
28.330         7
28.340        20
28.350        40
28.360        20
28.370        27
28.380         0
28.390        13
28.400        13
28.410         0
28.420        27
28.430        20
28.440         7
28.450        20
28.460         7
28.470        40
28.480        47
28.490        13
28.500        13
28.510        20
28.520        20
28.530         0
28.540        13
28.550        53
28.560        20
28.570         7
28.580        13
28.590         7
28.600         0
28.610        27
28.620        27
28.630         7
28.640         7
28.650         7
28.660        13
28.670         7
28.680         0
28.690         7
28.700        13
28.710        13
28.720        20
28.730         7
28.740        33
28.750        20
28.760        20
28.770        20
28.780        47
28.790        27
28.800        40
28.810        53
28.820         0
28.830        13
28.840        27
28.850        47
28.860        20
28.870        20
28.880        13
28.890        13
28.900        20
28.910        27
28.920        40
28.930        20
28.940        20
28.950        33
28.960        20
28.970        20
28.980        40
28.990         7
29.000        27
29.010        13
29.020         7
29.030        33
29.040        13
29.050        13
29.060        33
29.070        13
29.080        13
29.090        40
29.100        20
29.110        33
29.120         7
29.130        13
29.140        33
29.150        27
29.160        33
29.170        20
29.180        20
29.190        27
29.200        27
29.210         7
29.220        20
29.230        33
29.240        67
29.250        27
29.260         7
29.270        20
29.280         7
29.290        27
29.300        27
29.310        33
29.320        27
29.330        20
29.340         7
29.350        27
29.360        20
29.370        27
29.380         0
29.390        33
29.400         7
29.410        27
29.420        40
29.430        20
29.440        20
29.450        20
29.460        20
29.470         7
29.480        13
29.490        33
29.500        13
29.510         0
29.520        13
29.530        13
29.540         7
29.550        33
29.560        33
29.570        27
29.580        27
29.590         7
29.600         7
29.610        20
29.620        20
29.630        13
29.640        27
29.650        40
29.660        20
29.670        20
29.680        33
29.690         0
29.700        27
29.710        13
29.720         0
29.730         7
29.740        27
29.750        13
29.760        20
29.770        20
29.780        20
29.790         7
29.800        13
29.810         7
29.820        27
29.830         7
29.840        20
29.850         7
29.860        20
29.870        13
29.880         7
29.890         7
29.900        13
29.910        13
29.920        33
29.930        20
29.940        40
29.950         7
29.960        13
29.970        13
29.980         7
29.990        20
30.000         0
30.010        13
30.020        20
30.030         7
30.040         0
30.050        13
30.060         7
30.070         0
30.080        20
30.090         7
30.100         7
30.110        20
30.120        13
30.130         7
30.140        20
30.150        33
30.160         7
30.170        13
30.180        20
30.190         0
30.200        27
30.210         7
30.220        20
30.230         7
30.240        20
30.250        20
30.260         7
30.270        20
30.280        13
30.290        27
30.300        33
30.310        13
30.320        27
30.330        27
30.340        20
30.350         7
30.360         7
30.370        13
30.380        47
30.390         7
30.400        27
30.410        13
30.420        33
30.430         0
30.440        13
30.450        13
30.460        27
30.470         7
30.480         7
30.490        13
30.500        33
30.510        13
30.520        27
30.530        33
30.540        13
30.550        13
30.560         7
30.570        20
30.580        33
30.590        13
30.600        20
30.610        13
30.620        20
30.630         0
30.640        13
30.650        27
30.660         7
30.670        27
30.680        13
30.690        13
30.700        27
30.710         7
30.720        27
30.730        33
30.740        20
30.750        13
30.760        13
30.770         0
30.780         7
30.790         7
30.800        13
30.810         7
30.820        20
30.830        33
30.840        27
30.850        13
30.860         7
30.870        27
30.880        13
30.890         7
30.900         7
30.910        13
30.920         7
30.930        13
30.940        27
30.950        20
30.960        27
30.970        13
30.980        20
30.990        20
31.000        13
31.010        47
31.020        27
31.030        20
31.040        20
31.050        20
31.060         7
31.070         7
31.080        27
31.090        20
31.100        20
31.110        20
31.120        33
31.130        13
31.140        40
31.150        20
31.160         7
31.170         7
31.180        40
31.190        20
31.200        27
31.210        27
31.220         7
31.230         0
31.240        20
31.250         7
31.260        27
31.270        27
31.280        13
31.290         7
31.300        13
31.310         7
31.320        27
31.330        13
31.340        13
31.350         7
31.360        20
31.370         7
31.380        20
31.390        27
31.400        13
31.410         7
31.420        27
31.430        20
31.440        27
31.450         7
31.460        27
31.470        13
31.480        20
31.490        33
31.500        13
31.510        20
31.520        33
31.530         7
31.540        33
31.550         7
31.560         7
31.570        40
31.580        33
31.590         7
31.600        13
31.610        20
31.620         7
31.630         7
31.640        13
31.650        20
31.660         7
31.670        40
31.680         7
31.690         0
31.700         0
31.710         0
31.720         7
31.730        20
31.740        13
31.750        20
31.760        27
31.770        13
31.780        13
31.790         7
31.800         0
31.810        27
31.820        13
31.830        33
31.840        20
31.850        27
31.860         0
31.870         7
31.880        13
31.890        20
31.900        13
31.910        27
31.920         7
31.930         7
31.940        13
31.950        40
31.960        20
31.970         7
31.980         7
31.990         7
32.000         0
32.010        20
32.020        20
32.030        20
32.040        33
32.050        20
32.060        33
32.070        13
32.080        27
32.090        33
32.100        13
32.110        20
32.120         7
32.130        33
32.140         7
32.150        40
32.160        27
32.170        33
32.180         0
32.190        27
32.200        40
32.210        33
32.220         0
32.230         7
32.240        33
32.250        20
32.260        20
32.270         0
32.280        27
32.290        13
32.300         7
32.310        20
32.320         7
32.330        40
32.340        33
32.350         0
32.360         0
32.370        27
32.380        20
32.390        27
32.400        13
32.410        13
32.420        13
32.430        33
32.440        20
32.450        13
32.460        20
32.470        33
32.480        40
32.490        20
32.500        53
32.510        13
32.520        13
32.530        33
32.540        33
32.550        13
32.560        33
32.570        27
32.580        27
32.590        53
32.600        60
32.610        13
32.620        13
32.630        20
32.640        33
32.650        27
32.660        40
32.670        27
32.680        47
32.690        13
32.700        27
32.710        47
32.720        47
32.730        27
32.740        40
32.750        40
32.760        33
32.770         7
32.780        33
32.790        47
32.800        13
32.810        20
32.820        27
32.830        13
32.840        27
32.850         7
32.860         0
32.870        27
32.880        13
32.890         7
32.900        27
32.910        33
32.920        40
32.930        13
32.940         7
32.950        20
32.960        20
32.970        33
32.980         7
32.990         7
33.000         7
33.010        13
33.020         7
33.030         7
33.040        40
33.050        20
33.060        27
33.070        20
33.080         7
33.090        20
33.100        13
33.110        13
33.120        40
33.130         0
33.140        13
33.150         0
33.160        20
33.170        13
33.180        20
33.190        20
33.200         7
33.210        13
33.220        20
33.230        13
33.240        20
33.250         7
33.260        13
33.270        20
33.280         7
33.290        13
33.300         7
33.310        27
33.320        20
33.330        33
33.340         7
33.350         0
33.360         0
33.370        20
33.380        20
33.390         7
33.400         7
33.410        13
33.420        27
33.430        27
33.440         7
33.450        27
33.460        20
33.470        27
33.480        20
33.490         7
33.500         7
33.510        13
33.520        27
33.530         0
33.540        20
33.550        27
33.560         0
33.570        27
33.580         7
33.590         7
33.600        47
33.610        33
33.620        13
33.630        20
33.640        13
33.650         0
33.660         7
33.670        13
33.680        27
33.690        13
33.700        13
33.710        13
33.720        40
33.730         7
33.740         0
33.750        27
33.760         7
33.770        20
33.780        20
33.790         7
33.800         0
33.810        27
33.820        20
33.830        20
33.840        40
33.850        27
33.860         7
33.870        27
33.880        20
33.890        13
33.900         0
33.910         0
33.920         7
33.930         7
33.940        27
33.950        33
33.960        33
33.970         7
33.980        13
33.990        27
34.000        13
34.010        33
34.020         7
34.030        20
34.040        33
34.050        27
34.060        20
34.070        13
34.080        40
34.090        13
34.100        33
34.110        13
34.120        13
34.130        13
34.140        33
34.150        20
34.160        33
34.170        20
34.180        27
34.190         7
34.200        20
34.210        13
34.220        20
34.230        33
34.240        13
34.250        27
34.260        13
34.270        27
34.280        20
34.290        40
34.300        20
34.310        13
34.320        13
34.330        40
34.340        13
34.350        20
34.360        27
34.370        20
34.380        20
34.390        27
34.400        20
34.410        47
34.420        20
34.430        20
34.440         0
34.450         7
34.460        13
34.470        13
34.480        20
34.490        27
34.500        20
34.510        27
34.520        13
34.530        20
34.540        27
34.550        27
34.560        20
34.570        27
34.580        27
34.590        27
34.600        20
34.610        20
34.620        47
34.630        20
34.640        13
34.650        27
34.660        47
34.670        13
34.680        27
34.690        13
34.700        27
34.710        20
34.720        47
34.730        20
34.740        13
34.750        20
34.760        20
34.770        33
34.780        20
34.790        20
34.800        13
34.810        13
34.820        27
34.830         7
34.840         0
34.850        40
34.860         7
34.870        13
34.880        47
34.890        27
34.900        20
34.910        13
34.920        20
34.930        27
34.940        33
34.950        27
34.960        53
34.970        13
34.980        20
34.990        13
35.000         0
35.010        20
35.020        53
35.030        13
35.040        47
35.050        20
35.060        47
35.070        47
35.080        33
35.090        53
35.100        27
35.110        53
35.120        27
35.130        40
35.140        20
35.150        20
35.160        13
35.170        47
35.180        33
35.190        47
35.200        33
35.210        20
35.220        20
35.230        13
35.240        40
35.250        47
35.260        80
35.270       113
35.280       113
35.290       120
35.300       173
35.310       147
35.320       240
35.330       160
35.340       333
35.350       393
35.360       460
35.370       400
35.380       320
35.390       347
35.400       387
35.410       367
35.420       273
35.430       280
35.440       307
35.450       260
35.460       327
35.470       240
35.480       240
35.490       200
35.500       173
35.510       180
35.520       153
35.530       220
35.540       140
35.550       167
35.560       167
35.570       220
35.580       167
35.590       240
35.600       293
35.610       307
35.620       293
35.630       267
35.640       367
35.650       400
35.660       287
35.670       393
35.680       220
35.690       247
35.700       260
35.710       307
35.720       260
35.730       193
35.740       220
35.750       227
35.760       127
35.770       127
35.780       140
35.790        87
35.800        53
35.810        73
35.820        87
35.830        60
35.840        20
35.850        73
35.860        87
35.870        73
35.880        60
35.890        27
35.900        33
35.910        60
35.920        53
35.930        53
35.940        80
35.950        47
35.960        53
35.970        67
35.980        60
35.990        20
36.000        67
36.010        60
36.020        33
36.030        40
36.040        47
36.050        47
36.060        40
36.070        47
36.080        27
36.090        47
36.100        27
36.110        47
36.120        40
36.130        47
36.140        33
36.150        20
36.160        53
36.170        60
36.180        47
36.190        40
36.200        27
36.210        27
36.220        27
36.230        60
36.240        33
36.250        40
36.260        20
36.270        33
36.280        33
36.290        40
36.300         7
36.310        40
36.320        40
36.330        13
36.340        33
36.350        40
36.360         7
36.370        47
36.380        40
36.390        13
36.400        27
36.410        20
36.420        33
36.430        33
36.440        27
36.450        33
36.460        20
36.470        33
36.480        20
36.490        20
36.500        53
36.510        20
36.520        40
36.530        53
36.540        47
36.550        27
36.560        40
36.570        13
36.580        13
36.590         7
36.600        20
36.610        33
36.620        20
36.630        33
36.640         7
36.650        20
36.660        27
36.670        53
36.680        33
36.690        13
36.700        33
36.710        27
36.720        27
36.730        13
36.740        13
36.750        13
36.760        13
36.770         7
36.780        13
36.790        40
36.800        33
36.810        40
36.820        20
36.830         0
36.840        27
36.850        13
36.860        27
36.870        40
36.880         7
36.890        20
36.900        13
36.910        27
36.920        27
36.930        33
36.940        27
36.950        40
36.960        47
36.970        13
36.980        27
36.990        20
37.000        13
37.010        13
37.020        53
37.030         0
37.040         7
37.050         7
37.060        20
37.070        13
37.080        20
37.090        27
37.100        33
37.110        13
37.120        20
37.130        13
37.140        13
37.150        33
37.160        47
37.170        20
37.180        20
37.190        20
37.200        40
37.210        47
37.220        27
37.230        27
37.240        40
37.250        13
37.260        27
37.270         7
37.280         7
37.290         7
37.300        13
37.310         7
37.320        13
37.330        40
37.340        33
37.350        40
37.360         0
37.370        20
37.380        33
37.390        13
37.400        13
37.410        33
37.420         7
37.430        20
37.440        13
37.450        13
37.460         7
37.470        13
37.480        20
37.490        20
37.500        13
37.510        13
37.520        20
37.530        27
37.540        20
37.550        13
37.560         7
37.570        27
37.580        27
37.590        27
37.600        13
37.610        13
37.620        13
37.630        13
37.640        20
37.650         0
37.660        13
37.670        33
37.680        20
37.690         7
37.700        20
37.710        13
37.720        33
37.730        40
37.740        20
37.750        13
37.760        13
37.770        27
37.780        33
37.790        13
37.800         7
37.810        13
37.820        27
37.830        27
37.840         7
37.850        13
37.860         7
37.870        33
37.880         7
37.890        40
37.900        13
37.910         7
37.920        13
37.930         7
37.940        27
37.950        13
37.960        27
37.970        20
37.980         7
37.990         0
38.000        20
38.010         7
38.020         7
38.030         7
38.040        27
38.050         7
38.060        27
38.070         0
38.080        20
38.090        13
38.100        40
38.110        20
38.120        20
38.130        13
38.140        13
38.150        20
38.160        27
38.170         0
38.180        27
38.190        20
38.200         0
38.210         7
38.220         7
38.230        13
38.240        20
38.250        33
38.260        33
38.270         0
38.280        13
38.290         7
38.300        20
38.310        27
38.320        13
38.330        20
38.340        13
38.350         7
38.360        20
38.370        27
38.380        13
38.390        13
38.400        27
38.410        20
38.420         7
38.430        20
38.440        20
38.450        13
38.460        13
38.470        13
38.480         7
38.490        33
38.500        20
38.510        20
38.520         7
38.530        20
38.540        20
38.550        20
38.560         0
38.570        13
38.580        27
38.590         7
38.600         7
38.610        13
38.620         7
38.630        13
38.640        13
38.650        13
38.660        13
38.670         7
38.680        27
38.690        27
38.700         7
38.710        13
38.720        27
38.730        13
38.740        20
38.750        27
38.760        13
38.770        20
38.780        20
38.790        33
38.800        27
38.810         7
38.820        20
38.830         7
38.840        20
38.850        13
38.860        13
38.870        13
38.880        20
38.890         7
38.900        47
38.910         7
38.920         7
38.930        13
38.940        27
38.950        13
38.960        20
38.970        13
38.980        13
38.990        13
39.000         7
39.010        13
39.020        13
39.030        20
39.040        27
39.050         7
39.060        13
39.070        27
39.080         7
39.090        27
39.100        13
39.110        13
39.120        13
39.130        20
39.140        13
39.150        27
39.160        33
39.170        13
39.180         7
39.190        20
39.200        13
39.210        20
39.220         7
39.230        27
39.240        40
39.250        13
39.260        20
39.270        20
39.280        40
39.290        20
39.300        20
39.310         7
39.320        20
39.330         0
39.340        13
39.350        27
39.360        20
39.370        20
39.380        33
39.390         7
39.400        13
39.410        13
39.420        20
39.430        20
39.440        13
39.450        33
39.460         7
39.470         7
39.480         7
39.490        33
39.500         7
39.510         7
39.520        27
39.530         0
39.540         0
39.550        20
39.560         0
39.570         0
39.580         7
39.590        13
39.600        27
39.610        20
39.620        40
39.630         0
39.640        27
39.650        33
39.660        40
39.670        27
39.680        20
39.690         7
39.700        20
39.710        20
39.720        20
39.730        13
39.740        27
39.750         7
39.760        13
39.770        33
39.780        13
39.790        20
39.800        13
39.810        13
39.820         7
39.830        13
39.840         7
39.850        33
39.860         7
39.870        27
39.880        27
39.890        13
39.900        27
39.910        20
39.920        13
39.930        33
39.940        13
39.950        20
39.960        13
39.970        20
39.980        20
39.990        33
40.000        27
40.010        20
40.020        20
40.030        20
40.040         7
40.050        13
40.060        27
40.070        13
40.080        33
40.090        20
40.100        40
40.110        20
40.120         7
40.130        20
40.140        20
40.150        27
40.160        20
40.170        13
40.180        13
40.190        20
40.200         7
40.210        13
40.220        33
40.230        13
40.240        20
40.250         0
40.260        20
40.270         7
40.280        20
40.290        20
40.300        20
40.310        20
40.320        20
40.330        20
40.340        27
40.350        27
40.360        20
40.370        13
40.380         7
40.390        27
40.400        33
40.410        13
40.420        20
40.430        13
40.440        20
40.450        20
40.460        13
40.470        33
40.480        13
40.490        33
40.500         7
40.510        20
40.520        33
40.530         7
40.540        40
40.550         7
40.560        40
40.570        20
40.580        20
40.590        20
40.600        20
40.610        13
40.620        33
40.630        20
40.640        13
40.650        20
40.660         7
40.670        20
40.680        20
40.690         7
40.700        33
40.710        20
40.720        20
40.730        13
40.740        13
40.750         7
40.760         7
40.770        20
40.780         7
40.790        20
40.800        13
40.810         0
40.820        13
40.830         0
40.840         7
40.850        20
40.860        20
40.870        20
40.880        13
40.890        20
40.900         7
40.910        20
40.920        20
40.930        13
40.940        20
40.950        20
40.960        33
40.970        20
40.980        27
40.990        20
41.000        60
41.010        33
41.020         7
41.030        47
41.040         0
41.050         7
41.060        13
41.070         0
41.080        20
41.090        27
41.100        13
41.110         7
41.120        13
41.130        13
41.140        20
41.150        33
41.160        13
41.170        40
41.180        20
41.190         7
41.200        20
41.210        20
41.220         7
41.230        20
41.240         7
41.250         0
41.260        13
41.270        20
41.280         7
41.290        20
41.300         7
41.310        13
41.320        13
41.330        27
41.340        13
41.350        20
41.360        33
41.370        20
41.380         0
41.390         7
41.400        13
41.410        27
41.420         7
41.430        53
41.440        40
41.450        13
41.460         7
41.470        33
41.480         7
41.490        20
41.500         7
41.510        27
41.520        13
41.530        13
41.540        47
41.550         0
41.560        20
41.570        13
41.580         7
41.590         7
41.600        20
41.610        13
41.620         0
41.630         7
41.640        20
41.650        13
41.660         7
41.670         7
41.680        13
41.690        13
41.700        20
41.710         7
41.720        27
41.730        20
41.740         7
41.750        13
41.760        13
41.770        13
41.780        27
41.790         7
41.800        13
41.810        13
41.820        13
41.830        13
41.840        27
41.850        13
41.860        20
41.870         0
41.880        27
41.890        13
41.900        20
41.910        33
41.920        20
41.930        27
41.940        27
41.950        27
41.960        47
41.970        27
41.980         7
41.990        27
42.000        13
42.010        27
42.020         0
42.030        13
42.040        20
42.050        40
42.060         7
42.070        20
42.080        33
42.090         7
42.100        13
42.110        13
42.120        13
42.130        13
42.140        33
42.150        27
42.160        20
42.170         7
42.180         7
42.190        20
42.200         0
42.210         7
42.220        20
42.230        20
42.240         7
42.250        27
42.260        20
42.270         0
42.280        13
42.290        13
42.300        27
42.310         7
42.320        13
42.330        13
42.340        20
42.350        20
42.360         0
42.370        27
42.380        20
42.390        13
42.400         7
42.410        20
42.420         7
42.430        13
42.440        27
42.450        13
42.460        33
42.470        40
42.480        27
42.490        33
42.500        27
42.510         0
42.520         0
42.530        27
42.540        20
42.550        20
42.560        33
42.570        33
42.580        20
42.590        20
42.600         0
42.610        27
42.620        27
42.630        13
42.640        13
42.650        33
42.660        27
42.670        13
42.680         7
42.690        13
42.700        33
42.710        20
42.720        20
42.730        33
42.740        13
42.750        20
42.760        13
42.770        20
42.780        13
42.790        20
42.800        53
42.810        20
42.820        13
42.830         7
42.840        53
42.850        13
42.860        13
42.870        20
42.880        20
42.890        13
42.900        13
42.910        20
42.920        33
42.930        20
42.940        13
42.950         7
42.960        13
42.970        27
42.980        33
42.990        27
43.000        13
43.010        40
43.020        13
43.030        33
43.040        13
43.050        20
43.060        20
43.070        13
43.080        67
43.090        13
43.100         7
43.110        13
43.120        13
43.130        20
43.140        33
43.150        27
43.160        13
43.170        13
43.180        20
43.190        20
43.200        27
43.210        13
43.220        27
43.230        13
43.240        13
43.250        33
43.260        27
43.270        27
43.280        20
43.290        33
43.300        20
43.310        33
43.320        13
43.330        47
43.340        27
43.350        27
43.360         0
43.370        13
43.380        13
43.390         7
43.400        20
43.410        47
43.420        27
43.430         7
43.440         7
43.450        20
43.460        27
43.470         7
43.480        20
43.490        53
43.500        20
43.510         0
43.520         0
43.530        40
43.540        27
43.550        13
43.560        27
43.570        20
43.580        27
43.590        33
43.600        13
43.610        53
43.620        27
43.630        13
43.640        20
43.650        13
43.660        13
43.670        13
43.680        20
43.690        13
43.700        13
43.710        40
43.720         7
43.730        20
43.740        20
43.750         7
43.760        33
43.770        27
43.780        13
43.790        20
43.800        27
43.810         0
43.820        20
43.830         7
43.840        27
43.850        13
43.860        27
43.870        60
43.880         7
43.890        20
43.900        13
43.910        20
43.920        20
43.930        33
43.940        13
43.950         7
43.960        53
43.970        20
43.980        13
43.990        27
44.000        13
44.010        13
44.020        27
44.030         7
44.040        33
44.050        27
44.060        13
44.070         0
44.080         7
44.090        13
44.100        20
44.110         7
44.120         0
44.130         7
44.140         0
44.150        20
44.160        13
44.170         7
44.180         7
44.190        33
44.200        27
44.210        20
44.220        27
44.230        33
44.240        20
44.250         7
44.260        33
44.270        27
44.280        20
44.290        33
44.300        33
44.310        33
44.320        20
44.330        27
44.340         7
44.350        40
44.360        20
44.370        20
44.380        20
44.390        20
44.400        27
44.410        20
44.420        13
44.430        20
44.440        20
44.450        27
44.460        33
44.470         7
44.480         0
44.490        20
44.500        20
44.510         7
44.520        40
44.530        47
44.540        13
44.550        60
44.560         7
44.570        13
44.580        40
44.590        20
44.600        20
44.610        33
44.620        33
44.630        27
44.640         7
44.650        33
44.660        13
44.670         7
44.680         7
44.690        13
44.700        13
44.710        13
44.720         0
44.730        33
44.740         7
44.750        20
44.760        27
44.770         0
44.780         7
44.790        27
44.800         7
44.810        20
44.820        20
44.830        20
44.840        27
44.850        40
44.860        13
44.870        27
44.880        20
44.890         0
44.900        20
44.910        33
44.920        13
44.930        20
44.940        13
44.950        20
44.960         0
44.970        13
44.980        27
44.990        20
45.000        13
45.010        27
45.020        13
45.030        13
45.040        27
45.050        13
45.060        20
45.070        27
45.080        33
45.090        27
45.100        27
45.110        20
45.120        13
45.130        20
45.140        13
45.150        20
45.160        27
45.170        13
45.180         0
45.190         7
45.200        27
45.210        27
45.220         7
45.230        27
45.240        27
45.250         0
45.260        20
45.270         7
45.280        20
45.290        27
45.300        33
45.310        13
45.320         7
45.330        27
45.340        40
45.350        20
45.360        27
45.370        47
45.380        13
45.390         0
45.400        33
45.410        13
45.420        33
45.430        13
45.440        27
45.450        27
45.460         7
45.470         7
45.480        40
45.490        13
45.500        20
45.510         7
45.520        27
45.530         7
45.540        40
45.550        33
45.560        13
45.570        27
45.580        33
45.590        40
45.600        20
45.610        27
45.620        20
45.630        13
45.640        47
45.650        27
45.660        27
45.670        33
45.680        20
45.690        13
45.700        20
45.710        27
45.720        47
45.730        13
45.740        33
45.750        27
45.760         7
45.770        27
45.780        13
45.790         7
45.800        13
45.810        20
45.820        20
45.830        33
45.840        20
45.850        40
45.860        33
45.870        27
45.880         7
45.890        13
45.900        27
45.910        13
45.920        20
45.930        33
45.940        20
45.950         0
45.960        27
45.970        33
45.980        40
45.990        20
46.000         0
46.010        33
46.020        27
46.030        13
46.040        33
46.050        40
46.060         0
46.070        20
46.080        20
46.090        20
46.100        47
46.110        13
46.120         7
46.130        33
46.140         0
46.150        33
46.160        20
46.170        20
46.180        13
46.190         7
46.200         7
46.210        20
46.220        20
46.230        40
46.240        40
46.250        27
46.260        27
46.270         7
46.280        13
46.290        27
46.300        33
46.310         7
46.320        13
46.330        33
46.340        20
46.350         7
46.360        13
46.370         7
46.380         0
46.390        13
46.400        40
46.410        20
46.420        20
46.430        40
46.440        13
46.450        13
46.460        13
46.470        20
46.480        47
46.490        20
46.500        40
46.510        13
46.520        27
46.530        33
46.540        20
46.550         7
46.560         7
46.570        33
46.580        20
46.590        27
46.600         0
46.610         7
46.620        20
46.630        13
46.640        20
46.650        27
46.660        13
46.670         0
46.680        20
46.690        40
46.700        20
46.710        20
46.720        13
46.730        27
46.740        20
46.750         7
46.760        27
46.770        40
46.780        20
46.790        13
46.800        33
46.810        20
46.820        33
46.830        13
46.840         0
46.850        33
46.860        13
46.870         0
46.880        27
46.890         7
46.900        33
46.910         0
46.920         7
46.930        53
46.940        27
46.950        27
46.960        20
46.970        27
46.980         7
46.990        27
47.000        27
47.010        20
47.020        27
47.030         7
47.040         7
47.050        27
47.060        13
47.070        33
47.080         0
47.090        33
47.100        33
47.110        20
47.120         0
47.130         7
47.140        33
47.150        27
47.160        47
47.170        13
47.180        13
47.190        13
47.200        33
47.210        20
47.220        53
47.230        33
47.240        33
47.250         7
47.260         7
47.270        27
47.280        13
47.290         7
47.300        13
47.310        27
47.320        20
47.330        20
47.340         7
47.350        27
47.360        20
47.370        13
47.380         7
47.390        27
47.400        13
47.410        13
47.420        27
47.430        27
47.440        33
47.450        40
47.460        20
47.470        13
47.480        13
47.490         7
47.500         7
47.510        13
47.520         7
47.530         7
47.540        13
47.550        20
47.560        33
47.570         0
47.580        40
47.590        27
47.600        13
47.610        20
47.620        33
47.630         7
47.640        13
47.650        13
47.660        20
47.670         7
47.680        13
47.690        13
47.700        13
47.710        27
47.720        27
47.730        27
47.740        13
47.750        20
47.760        20
47.770         7
47.780         7
47.790        13
47.800        27
47.810        13
47.820        40
47.830        13
47.840         7
47.850        33
47.860         0
47.870         7
47.880        27
47.890         7
47.900        20
47.910        13
47.920         7
47.930        20
47.940        20
47.950        13
47.960        27
47.970        20
47.980        33
47.990         7
48.000        33
48.010         0
48.020        33
48.030        20
48.040        33
48.050        20
48.060        13
48.070        27
48.080        20
48.090        13
48.100        20
48.110        33
48.120        13
48.130        20
48.140        20
48.150        27
48.160         0
48.170        27
48.180        13
48.190        20
48.200        13
48.210        13
48.220        40
48.230        13
48.240        13
48.250        20
48.260        27
48.270        27
48.280        27
48.290        27
48.300        20
48.310        27
48.320        20
48.330         0
48.340         7
48.350        27
48.360         7
48.370        13
48.380        27
48.390         0
48.400        13
48.410        13
48.420         7
48.430        27
48.440        33
48.450         7
48.460        27
48.470        20
48.480         0
48.490         7
48.500        13
48.510        27
48.520        13
48.530        20
48.540         7
48.550        20
48.560        13
48.570        20
48.580        13
48.590         7
48.600        13
48.610        27
48.620        20
48.630        33
48.640        20
48.650        20
48.660        20
48.670        20
48.680        20
48.690        13
48.700         7
48.710        40
48.720        20
48.730         7
48.740        20
48.750        13
48.760        13
48.770         7
48.780        27
48.790         7
48.800        13
48.810        53
48.820        20
48.830         7
48.840        33
48.850        20
48.860        27
48.870        27
48.880         7
48.890        33
48.900        20
48.910        13
48.920         7
48.930        27
48.940        13
48.950        47
48.960        33
48.970        13
48.980        27
48.990         0
49.000        27
49.010        20
49.020         0
49.030         0
49.040        27
49.050         0
49.060        20
49.070         7
49.080        13
49.090         7
49.100         7
49.110        20
49.120        27
49.130        13
49.140        13
49.150         7
49.160        13
49.170         7
49.180         7
49.190         7
49.200        13
49.210        20
49.220         7
49.230         7
49.240        20
49.250        20
49.260         7
49.270        40
49.280        27
49.290        33
49.300        27
49.310        27
49.320        20
49.330         0
49.340        27
49.350         0
49.360        33
49.370        27
49.380        33
49.390        27
49.400        33
49.410         0
49.420         7
49.430        33
49.440        27
49.450        27
49.460        33
49.470        33
49.480        20
49.490        27
49.500        33
49.510        27
49.520        20
49.530        13
49.540         7
49.550         7
49.560        40
49.570         0
49.580        20
49.590        20
49.600        20
49.610        20
49.620        20
49.630         0
49.640        20
49.650        13
49.660        20
49.670         7
49.680         7
49.690        40
49.700        13
49.710        13
49.720        13
49.730        13
49.740        13
49.750        13
49.760        13
49.770        13
49.780        33
49.790        27
49.800        27
49.810        13
49.820        33
49.830        13
49.840        13
49.850        27
49.860         0
49.870        20
49.880        40
49.890        27
49.900        27
49.910        20
49.920         7
49.930         7
49.940        27
49.950        27
49.960        20
49.970        20
49.980        13
49.990        33
50.000        20
50.010         7
50.020         7
50.030        27
50.040        13
50.050        13
50.060         0
50.070        27
50.080        13
50.090        20
50.100         0
50.110        33
50.120        27
50.130        13
50.140        20
50.150        13
50.160        13
50.170        20
50.180        20
50.190        13
50.200        20
50.210        20
50.220         7
50.230        20
50.240         0
50.250         7
50.260        27
50.270         7
50.280        20
50.290        20
50.300        20
50.310        27
50.320        20
50.330        40
50.340        13
50.350         7
50.360        20
50.370        13
50.380         7
50.390        20
50.400         0
50.410        20
50.420        20
50.430        20
50.440        40
50.450         7
50.460        13
50.470         7
50.480         7
50.490         7
50.500        60
50.510        60
50.520        27
50.530         7
50.540         7
50.550        13
50.560        33
50.570        20
50.580         7
50.590        27
50.600         7
50.610        27
50.620         7
50.630        13
50.640        13
50.650        13
50.660        27
50.670        13
50.680         7
50.690         7
50.700        13
50.710        20
50.720        13
50.730        20
50.740         7
50.750         0
50.760        33
50.770         7
50.780        20
50.790        20
50.800         0
50.810        13
50.820        13
50.830         0
50.840        13
50.850        33
50.860        13
50.870        47
50.880        13
50.890        33
50.900         7
50.910        13
50.920         0
50.930        33
50.940        13
50.950        20
50.960        13
50.970        13
50.980         7
50.990        13
51.000        27
51.010        33
51.020        27
51.030        13
51.040        40
51.050        13
51.060         7
51.070        27
51.080        13
51.090        13
51.100        13
51.110         7
51.120        13
51.130         0
51.140         7
51.150        20
51.160        40
51.170        27
51.180        27
51.190        20
51.200        27
51.210        20
51.220        27
51.230        13
51.240         7
51.250        27
51.260         0
51.270        27
51.280        13
51.290        20
51.300         7
51.310        33
51.320        20
51.330        13
51.340         7
51.350        20
51.360        20
51.370         7
51.380        13
51.390        33
51.400         7
51.410        27
51.420         0
51.430         7
51.440        13
51.450        20
51.460        27
51.470         7
51.480        13
51.490        13
51.500         0
51.510        20
51.520        13
51.530        27
51.540         7
51.550         0
51.560         7
51.570        33
51.580        13
51.590         7
51.600        33
51.610        40
51.620         7
51.630        27
51.640        20
51.650        20
51.660        20
51.670        20
51.680        20
51.690        13
51.700         0
51.710         7
51.720        13
51.730        13
51.740         0
51.750        13
51.760         7
51.770        20
51.780         7
51.790        13
51.800        13
51.810        27
51.820        13
51.830         7
51.840        47
51.850        13
51.860        20
51.870        20
51.880        27
51.890        27
51.900        13
51.910         7
51.920        27
51.930        13
51.940        13
51.950        20
51.960        13
51.970        20
51.980        13
51.990         7
52.000        27
52.010        13
52.020        47
52.030        20
52.040        13
52.050         7
52.060        13
52.070        27
52.080        13
52.090        13
52.100        13
52.110        13
52.120        13
52.130        33
52.140        27
52.150        27
52.160        13
52.170        20
52.180        33
52.190        13
52.200        13
52.210        13
52.220         7
52.230        13
52.240        13
52.250        13
52.260        20
52.270        13
52.280        13
52.290        33
52.300        27
52.310        13
52.320        33
52.330         7
52.340         7
52.350        20
52.360         7
52.370        13
52.380        13
52.390         7
52.400        20
52.410        33
52.420        13
52.430        13
52.440         0
52.450        13
52.460        33
52.470         7
52.480        33
52.490         7
52.500         7
52.510        13
52.520        27
52.530        33
52.540        13
52.550        33
52.560         0
52.570         0
52.580        13
52.590         7
52.600        33
52.610         0
52.620        20
52.630        27
52.640        13
52.650        47
52.660         7
52.670         0
52.680        20
52.690        13
52.700        13
52.710        13
52.720        13
52.730        13
52.740        20
52.750        13
52.760         7
52.770         7
52.780        33
52.790        27
52.800        13
52.810        20
52.820         7
52.830        13
52.840        20
52.850        33
52.860        27
52.870        13
52.880        27
52.890        27
52.900        20
52.910        20
52.920         7
52.930         0
52.940        13
52.950        27
52.960        27
52.970        33
52.980         7
52.990        20
53.000        20
53.010        20
53.020        20
53.030        20
53.040        20
53.050        33
53.060        20
53.070        13
53.080         7
53.090         0
53.100        13
53.110        13
53.120         0
53.130        20
53.140        27
53.150        13
53.160        20
53.170        20
53.180         7
53.190         7
53.200         7
53.210         7
53.220        13
53.230         7
53.240        13
53.250        27
53.260        27
53.270        13
53.280        20
53.290        20
53.300        13
53.310         7
53.320        27
53.330        13
53.340        20
53.350         7
53.360        27
53.370        13
53.380         7
53.390        20
53.400         0
53.410        20
53.420        47
53.430        13
53.440        20
53.450        27
53.460        27
53.470        20
53.480        13
53.490        13
53.500        13
53.510         0
53.520        20
53.530        33
53.540        27
53.550        27
53.560         7
53.570        20
53.580        13
53.590         7
53.600         7
53.610         7
53.620         7
53.630        13
53.640        33
53.650        33
53.660         7
53.670        27
53.680         7
53.690        33
53.700        27
53.710        13
53.720         7
53.730         7
53.740        20
53.750        13
53.760        20
53.770         0
53.780        33
53.790         7
53.800        20
53.810        13
53.820        13
53.830         7
53.840        20
53.850        13
53.860         7
53.870        27
53.880         7
53.890        20
53.900        33
53.910        20
53.920        20
53.930         7
53.940        20
53.950        20
53.960         7
53.970        33
53.980        13
53.990         7
54.000         7
54.010        20
54.020        13
54.030        13
54.040        20
54.050        20
54.060        20
54.070        13
54.080        33
54.090        13
54.100        33
54.110        33
54.120        27
54.130         7
54.140        40
54.150         0
54.160        40
54.170        13
54.180         7
54.190        33
54.200         7
54.210         7
54.220        13
54.230        33
54.240         0
54.250        27
54.260        27
54.270         7
54.280         7
54.290        13
54.300         7
54.310        13
54.320        13
54.330        33
54.340        20
54.350        20
54.360         7
54.370        20
54.380        20
54.390        47
54.400        20
54.410        33
54.420        33
54.430        33
54.440        20
54.450         0
54.460        20
54.470        20
54.480        13
54.490        20
54.500        27
54.510        20
54.520        20
54.530         7
54.540        13
54.550        20
54.560         7
54.570        33
54.580         0
54.590        20
54.600        27
54.610        33
54.620         7
54.630        27
54.640        13
54.650        13
54.660        13
54.670        27
54.680        33
54.690         7
54.700        27
54.710        27
54.720        27
54.730         7
54.740        13
54.750        20
54.760        20
54.770        20
54.780        20
54.790        33
54.800         0
54.810         7
54.820         0
54.830        27
54.840        40
54.850        20
54.860         0
54.870        33
54.880        20
54.890        13
54.900        13
54.910        13
54.920        27
54.930        27
54.940        40
54.950        27
54.960         7
54.970         0
54.980         0
54.990        13
55.000        27
55.010         7
55.020        20
55.030        13
55.040        20
55.050        47
55.060        13
55.070        27
55.080        13
55.090        27
55.100        13
55.110        13
55.120        13
55.130        40
55.140        20
55.150        20
55.160        20
55.170        20
55.180         0
55.190         7
55.200         7
55.210        27
55.220        13
55.230         7
55.240        27
55.250        40
55.260        13
55.270        13
55.280         0
55.290        13
55.300         7
55.310        40
55.320        13
55.330         7
55.340        13
55.350        33
55.360         7
55.370        33
55.380        27
55.390         7
55.400        20
55.410        13
55.420        27
55.430        20
55.440         0
55.450         7
55.460        13
55.470        20
55.480        20
55.490        20
55.500         7
55.510        20
55.520        20
55.530        20
55.540         7
55.550        27
55.560        40
55.570         7
55.580        27
55.590        20
55.600        13
55.610        13
55.620        27
55.630         7
55.640        40
55.650         0
55.660        20
55.670        47
55.680        33
55.690         7
55.700        27
55.710        27
55.720         7
55.730        27
55.740        20
55.750        33
55.760        27
55.770        20
55.780        27
55.790        33
55.800        27
55.810         7
55.820        27
55.830        13
55.840        40
55.850        13
55.860        13
55.870        33
55.880        40
55.890        13
55.900        13
55.910        20
55.920        20
55.930        40
55.940         7
55.950        13
55.960        20
55.970         7
55.980         7
55.990        27
56.000        33
56.010         0
56.020         7
56.030        20
56.040        27
56.050         7
56.060        27
56.070        13
56.080         7
56.090        13
56.100        13
56.110        27
56.120        20
56.130        20
56.140        13
56.150        33
56.160        13
56.170        20
56.180         7
56.190        33
56.200        13
56.210        13
56.220        27
56.230        20
56.240         0
56.250         7
56.260        13
56.270        33
56.280        20
56.290        27
56.300        47
56.310        20
56.320        27
56.330        27
56.340        20
56.350        13
56.360        47
56.370         7
56.380        20
56.390        27
56.400        20
56.410        13
56.420         0
56.430        27
56.440        27
56.450        20
56.460        13
56.470        53
56.480        27
56.490        27
56.500        13
56.510        40
56.520        27
56.530         7
56.540        33
56.550        27
56.560        27
56.570         7
56.580        33
56.590        27
56.600        40
56.610        13
56.620        27
56.630        20
56.640        13
56.650        13
56.660        20
56.670        20
56.680        13
56.690        13
56.700        47
56.710        27
56.720        40
56.730        20
56.740        20
56.750        27
56.760        13
56.770        27
56.780        27
56.790        13
56.800        20
56.810        33
56.820        20
56.830        27
56.840        13
56.850        27
56.860        20
56.870         7
56.880        20
56.890         0
56.900         7
56.910        33
56.920        27
56.930        13
56.940        13
56.950         7
56.960        33
56.970         7
56.980        13
56.990        13
57.000         7
57.010        33
57.020        33
57.030         7
57.040         7
57.050        47
57.060        20
57.070         7
57.080        27
57.090        27
57.100        13
57.110        27
57.120        20
57.130        13
57.140         7
57.150        47
57.160        20
57.170        13
57.180        27
57.190        20
57.200        20
57.210        20
57.220        40
57.230        27
57.240        27
57.250         7
57.260        27
57.270        13
57.280        20
57.290        13
57.300        13
57.310        40
57.320         7
57.330         7
57.340        13
57.350        20
57.360        20
57.370        27
57.380         7
57.390        27
57.400        13
57.410        27
57.420        33
57.430        20
57.440        13
57.450        40
57.460        13
57.470        40
57.480        27
57.490         7
57.500        13
57.510         7
57.520        33
57.530        13
57.540        33
57.550         7
57.560        27
57.570        20
57.580        20
57.590        13
57.600         7
57.610        13
57.620        27
57.630         0
57.640         7
57.650        27
57.660        13
57.670        27
57.680        33
57.690         7
57.700        27
57.710        27
57.720        13
57.730        13
57.740         7
57.750        27
57.760         7
57.770        27
57.780         7
57.790        33
57.800         7
57.810        27
57.820        20
57.830        13
57.840         7
57.850        33
57.860        13
57.870        53
57.880        20
57.890        13
57.900         7
57.910        20
57.920        13
57.930        13
57.940        20
57.950        27
57.960         7
57.970        20
57.980        33
57.990        27
58.000        33
58.010        27
58.020        27
58.030        20
58.040        27
58.050        27
58.060        20
58.070        13
58.080        33
58.090        20
58.100        47
58.110        20
58.120        20
58.130        40
58.140        20
58.150         0
58.160        20
58.170        13
58.180        40
58.190        40
58.200        27
58.210         7
58.220        20
58.230        40
58.240        47
58.250        20
58.260         7
58.270         7
58.280        40
58.290        20
58.300        33
58.310        33
58.320        27
58.330        27
58.340        27
58.350        13
58.360        13
58.370        20
58.380         7
58.390        33
58.400        13
58.410        13
58.420        13
58.430        53
58.440        33
58.450        33
58.460        27
58.470        13
58.480        13
58.490        20
58.500         7
58.510        27
58.520        33
58.530        27
58.540        20
58.550        27
58.560        13
58.570         7
58.580        20
58.590        13
58.600        13
58.610         7
58.620        27
58.630        60
58.640        20
58.650        20
58.660         7
58.670        33
58.680        27
58.690        20
58.700        20
58.710        13
58.720        20
58.730         7
58.740        27
58.750         7
58.760        27
58.770         7
58.780        27
58.790        20
58.800         0
58.810        33
58.820        13
58.830        27
58.840        40
58.850         7
58.860        20
58.870         0
58.880        13
58.890        27
58.900        33
58.910        40
58.920        20
58.930        27
58.940         7
58.950        20
58.960        33
58.970         7
58.980        20
58.990        13
59.000         7
59.010        33
59.020        20
59.030        33
59.040        13
59.050         7
59.060        27
59.070        20
59.080         7
59.090         7
59.100        13
59.110        20
59.120         7
59.130         7
59.140        13
59.150        33
59.160         7
59.170         7
59.180        27
59.190        13
59.200        27
59.210         7
59.220        27
59.230        40
59.240        20
59.250        33
59.260        27
59.270         0
59.280        20
59.290        13
59.300        13
59.310        13
59.320        40
59.330        27
59.340        13
59.350        13
59.360        13
59.370        20
59.380         7
59.390        33
59.400        13
59.410        20
59.420        27
59.430        13
59.440        13
59.450         0
59.460        27
59.470         7
59.480        27
59.490        13
59.500        13
59.510         0
59.520        13
59.530         0
59.540        27
59.550        20
59.560        27
59.570        27
59.580        53
59.590        13
59.600        13
59.610        13
59.620        40
59.630         7
59.640        40
59.650         7
59.660        20
59.670         7
59.680         0
59.690        27
59.700         0
59.710        40
59.720        20
59.730        13
59.740        20
59.750        20
59.760        13
59.770        13
59.780        20
59.790        27
59.800         7
59.810        27
59.820         7
59.830        27
59.840        27
59.850        13
59.860        13
59.870        13
59.880        20
59.890        33
59.900        33
59.910        13
59.920         7
59.930        27
59.940        13
59.950        20
59.960         7
59.970        47
59.980        33
59.990        27
60.000        20
