20.000        13
20.010        13
20.020        40
20.030        67
20.040        47
20.050        60
20.060        40
20.070        20
20.080        20
20.090        60
20.100        60
20.110        33
20.120        87
20.130        40
20.140        53
20.150        60
20.160        67
20.170        33
20.180        33
20.190        67
20.200        40
20.210        20
20.220        53
20.230        80
20.240        40
20.250        53
20.260        47
20.270        60
20.280        53
20.290        27
20.300        47
20.310        60
20.320        53
20.330        53
20.340         7
20.350        33
20.360        33
20.370        20
20.380        33
20.390        40
20.400        60
20.410        33
20.420        27
20.430        67
20.440        40
20.450        40
20.460        47
20.470        47
20.480        33
20.490        33
20.500        33
20.510        87
20.520        80
20.530        67
20.540        67
20.550        27
20.560        33
20.570        60
20.580        73
20.590        27
20.600        27
20.610        60
20.620        27
20.630        60
20.640        67
20.650        47
20.660        33
20.670        33
20.680        47
20.690        47
20.700        53
20.710        27
20.720        53
20.730        20
20.740        20
20.750        33
20.760        27
20.770        33
20.780        67
20.790        60
20.800        60
20.810        60
20.820        33
20.830        13
20.840        53
20.850        47
20.860        33
20.870        40
20.880        27
20.890        47
20.900        40
20.910        53
20.920        13
20.930        73
20.940        53
20.950        20
20.960        33
20.970        53
20.980        27
20.990        53
21.000        20
21.010        47
21.020        40
21.030        60
21.040        40
21.050        67
21.060        80
21.070        20
21.080        33
21.090        73
21.100        67
21.110        53
21.120        60
21.130        40
21.140        67
21.150        20
21.160        13
21.170        40
21.180        33
21.190        53
21.200        20
21.210        33
21.220        47
21.230        27
21.240        53
21.250        47
21.260        40
21.270        33
21.280        40
21.290        20
21.300        67
21.310        27
21.320        53
21.330        33
21.340        33
21.350        33
21.360        27
21.370        40
21.380        33
21.390        47
21.400        47
21.410        47
21.420        73
21.430         7
21.440        20
21.450        33
21.460        13
21.470        40
21.480        53
21.490        40
21.500        87
21.510        27
21.520        40
21.530        20
21.540        40
21.550        60
21.560        13
21.570        47
21.580        40
21.590        20
21.600        47
21.610        33
21.620        33
21.630        27
21.640        20
21.650        80
21.660        67
21.670        20
21.680        67
21.690        20
21.700        53
21.710        27
21.720        47
21.730        33
21.740        27
21.750        33
21.760        33
21.770        40
21.780        33
21.790        27
21.800        53
21.810        87
21.820        40
21.830        47
21.840        40
21.850        60
21.860        20
21.870        60
21.880        20
21.890        53
21.900        40
21.910        27
21.920        60
21.930        73
21.940        40
21.950        53
21.960        33
21.970        53
21.980        53
21.990        33
22.000        40
22.010        60
22.020        60
22.030        67
22.040        53
22.050        47
22.060        47
22.070        33
22.080        47
22.090        40
22.100        47
22.110        53
22.120        47
22.130        20
22.140        60
22.150        27
22.160        33
22.170        47
22.180        40
22.190        33
22.200        40
22.210        33
22.220        40
22.230        40
22.240        13
22.250        33
22.260        60
22.270        53
22.280        33
22.290        60
22.300        60
22.310         7
22.320        53
22.330        53
22.340        93
22.350        47
22.360        67
22.370        53
22.380        60
22.390         7
22.400        80
22.410        60
22.420        73
22.430        40
22.440        67
22.450        53
22.460        40
22.470        93
22.480        73
22.490        80
22.500        73
22.510       127
22.520        60
22.530        60
22.540        47
22.550       100
22.560       100
22.570       140
22.580       120
22.590       133
22.600       140
22.610       180
22.620       193
22.630       180
22.640       240
22.650       207
22.660       220
22.670       200
22.680       200
22.690       287
22.700       273
22.710       287
22.720       207
22.730       247
22.740       240
22.750       220
22.760       293
22.770       213
22.780       233
22.790       227
22.800       227
22.810       193
22.820       180
22.830       187
22.840        80
22.850       187
22.860       153
22.870       153
22.880       107
22.890       100
22.900        93
22.910       113
22.920       133
22.930        80
22.940        73
22.950        80
22.960        67
22.970        93
22.980        67
22.990       107
23.000       100
23.010        53
23.020        40
23.030        87
23.040        67
23.050        47
23.060        60
23.070       100
23.080        53
23.090        33
23.100        33
23.110        40
23.120        80
23.130        40
23.140        80
23.150        53
23.160        47
23.170        33
23.180        60
23.190        40
23.200        47
23.210        53
23.220        60
23.230        47
23.240        47
23.250        60
23.260        33
23.270        27
23.280        53
23.290        53
23.300        33
23.310        73
23.320        40
23.330        80
23.340        60
23.350        27
23.360        20
23.370        73
23.380        53
23.390        73
23.400        27
23.410        33
23.420        80
23.430        67
23.440        33
23.450        20
23.460        47
23.470        60
23.480        40
23.490        13
23.500        47
23.510        20
23.520        27
23.530        20
23.540        40
23.550        53
23.560        60
23.570        53
23.580        67
23.590        13
23.600        20
23.610        27
23.620        47
23.630        60
23.640        27
23.650        33
23.660        53
23.670        53
23.680        20
23.690        40
23.700        40
23.710        20
23.720         7
23.730        27
23.740        27
23.750        40
23.760        20
23.770        67
23.780        73
23.790        47
23.800        53
23.810        87
23.820         7
23.830        20
23.840        20
23.850        27
23.860        27
23.870        20
23.880         7
23.890        40
23.900        53
23.910        53
23.920        27
23.930        40
23.940        53
23.950        33
23.960        27
23.970        27
23.980        20
23.990        47
24.000        33
24.010        60
24.020        33
24.030        60
24.040        33
24.050        73
24.060        20
24.070        47
24.080        40
24.090        47
24.100        73
24.110        13
24.120        40
24.130        27
24.140        47
24.150        47
24.160        33
24.170        27
24.180        40
24.190        53
24.200        20
24.210        20
24.220        27
24.230        27
24.240        47
24.250        33
24.260        47
24.270        40
24.280        13
24.290        47
24.300        53
24.310        33
24.320        27
24.330        40
24.340        27
24.350        53
24.360        20
24.370        33
24.380        47
24.390        60
24.400        53
24.410        60
24.420        20
24.430        27
24.440        73
24.450        53
24.460        53
24.470        40
24.480        40
24.490        53
24.500        53
24.510        40
24.520        40
24.530        20
24.540        20
24.550        20
24.560        47
24.570        20
24.580        33
24.590        53
24.600        40
24.610        53
24.620        47
24.630        27
24.640        40
24.650        27
24.660        53
24.670        13
24.680        47
24.690        53
24.700        33
24.710        27
24.720        40
24.730        13
24.740        40
24.750        33
24.760        53
24.770        47
24.780        33
24.790        13
24.800        40
24.810        47
24.820        67
24.830        47
24.840        67
24.850        40
24.860         7
24.870        20
24.880        33
24.890        27
24.900        53
24.910        27
24.920        27
24.930        53
24.940        40
24.950        20
24.960        47
24.970        27
24.980        40
24.990        47
25.000        40
25.010        87
25.020        53
25.030        33
25.040        20
25.050        33
25.060        40
25.070        47
25.080        33
25.090         0
25.100        60
25.110        20
25.120        20
25.130        40
25.140        33
25.150        13
25.160        20
25.170        33
25.180        60
25.190        13
25.200        33
25.210        53
25.220        33
25.230        40
25.240        60
25.250         0
25.260        47
25.270        33
25.280        40
25.290        33
25.300        33
25.310        27
25.320        27
25.330        20
25.340        47
25.350        33
25.360        47
25.370        20
25.380        33
25.390        47
25.400        60
25.410        60
25.420        67
25.430        33
25.440        73
25.450        67
25.460        73
25.470        60
25.480        47
25.490        73
25.500        33
25.510        40
25.520        73
25.530       100
25.540        80
25.550       113
25.560        60
25.570       133
25.580        60
25.590       127
25.600       160
25.610       187
25.620       207
25.630       253
25.640       233
25.650       313
25.660       233
25.670       173
25.680       193
25.690       167
25.700       133
25.710       180
25.720       147
25.730        93
25.740        67
25.750        53
25.760        73
25.770        60
25.780        60
25.790        33
25.800        73
25.810        40
25.820        47
25.830        40
25.840        27
25.850        27
25.860        33
25.870        27
25.880        20
25.890        40
25.900        20
25.910        47
25.920        47
25.930        33
25.940        47
25.950        60
25.960        33
25.970        40
25.980        13
25.990        20
26.000        27
26.010        13
26.020        27
26.030        33
26.040        47
26.050        40
26.060        47
26.070        40
26.080        27
26.090        20
26.100        20
26.110        27
26.120        47
26.130        40
26.140        27
26.150        67
26.160        33
26.170        33
26.180        33
26.190        40
26.200        67
26.210         7
26.220        20
26.230        40
26.240        33
26.250         7
26.260        47
26.270        60
26.280        47
26.290        13
26.300        27
26.310        47
26.320        53
26.330        20
26.340        60
26.350        60
26.360        40
26.370        53
26.380        13
26.390        47
26.400        40
26.410        53
26.420        40
26.430        33
26.440        67
26.450        40
26.460        20
26.470        20
26.480        47
26.490        53
26.500        40
26.510        40
26.520        33
26.530        33
26.540        13
26.550        33
26.560        27
26.570        33
26.580         7
26.590         7
26.600        20
26.610        33
26.620         7
26.630        40
26.640        40
26.650        53
26.660        53
26.670        20
26.680        27
26.690        53
26.700        27
26.710        33
26.720        20
26.730        40
26.740        67
26.750        20
26.760        13
26.770        27
26.780        40
26.790        33
26.800        27
26.810        40
26.820        27
26.830        33
26.840        13
26.850        20
26.860        60
26.870        40
26.880        40
26.890        33
26.900        47
26.910        27
26.920        53
26.930        13
26.940        40
26.950        40
26.960        13
26.970        40
26.980        33
26.990        20
27.000        20
27.010        27
27.020        53
27.030        47
27.040        27
27.050        27
27.060        27
27.070        33
27.080        33
27.090        87
27.100        33
27.110        60
27.120        20
27.130        13
27.140        53
27.150        33
27.160        40
27.170        80
27.180        27
27.190        33
27.200        27
27.210        33
27.220        13
27.230        20
27.240        13
27.250        27
27.260        20
27.270        40
27.280        40
27.290        40
27.300        40
27.310        40
27.320        40
27.330        20
27.340        13
27.350        67
27.360        40
27.370        33
27.380        47
27.390        33
27.400        47
27.410        40
27.420        20
27.430        53
27.440        27
27.450        20
27.460        47
27.470        27
27.480        13
27.490        33
27.500        20
27.510        27
27.520        47
27.530        53
27.540        33
27.550        40
27.560        20
27.570        27
27.580        20
27.590        33
27.600        20
27.610        40
27.620        27
27.630        47
27.640        47
27.650        40
27.660        47
27.670        40
27.680        27
27.690        47
27.700        40
27.710        33
27.720        20
27.730        20
27.740        33
27.750        33
27.760        47
27.770        20
27.780        40
27.790        47
27.800        60
27.810        40
27.820        40
27.830        40
27.840        27
27.850        53
27.860        27
27.870        27
27.880        53
27.890        53
27.900        53
27.910        20
27.920        73
27.930        47
27.940        27
27.950        53
27.960        53
27.970        47
27.980        33
27.990        13
28.000        73
28.010        53
28.020        33
28.030        40
28.040        40
28.050        27
28.060        27
28.070        20
28.080        13
28.090        33
28.100        20
28.110        27
28.120        27
28.130        47
28.140        27
28.150        33
28.160        20
28.170        27
28.180        53
28.190        47
28.200        20
28.210        40
28.220        13
28.230        13
28.240        33
28.250        27
28.260        27
28.270        40
28.280        20
28.290        27
28.300        27
28.310        40
28.320        20
28.330        27
28.340        20
28.350        47
28.360        33
28.370        13
28.380        33
28.390        27
28.400        47
28.410        53
28.420        33
28.430        27
28.440        47
28.450        13
28.460        33
28.470        47
28.480        33
28.490         7
28.500        40
28.510        13
28.520        47
28.530         7
28.540        33
28.550        40
28.560        20
28.570        40
28.580        27
28.590        53
28.600        33
28.610         7
28.620        33
28.630        33
28.640        33
28.650        13
28.660        60
28.670        27
28.680        33
28.690        47
28.700        20
28.710        27
28.720        47
28.730        40
28.740        13
28.750        13
28.760        47
28.770         7
28.780         7
28.790        27
28.800        20
28.810         0
28.820        20
28.830        13
28.840        27
28.850        20
28.860        33
28.870        60
28.880        40
28.890        33
28.900        33
28.910        47
28.920        27
28.930        27
28.940        27
28.950        33
28.960        27
28.970        20
28.980        33
28.990        47
29.000        40
29.010        53
29.020        13
29.030        20
29.040        47
29.050        27
29.060        53
29.070        27
29.080        53
29.090        33
29.100        33
29.110        60
29.120        27
29.130        47
29.140        13
29.150        73
29.160        33
29.170        20
29.180        33
29.190        27
29.200        27
29.210        53
29.220        47
29.230        27
29.240        27
29.250        13
29.260        20
29.270        27
29.280        13
29.290        33
29.300        13
29.310        40
29.320        13
29.330        27
29.340         7
29.350        27
29.360        27
29.370        67
29.380        40
29.390        27
29.400        33
29.410         7
29.420        33
29.430        27
29.440        20
29.450        27
29.460         7
29.470        53
29.480        27
29.490        20
29.500        47
29.510        13
29.520        40
29.530        27
29.540        27
29.550        33
29.560        20
29.570        40
29.580        27
29.590        33
29.600        27
29.610        40
29.620        33
29.630        53
29.640        27
29.650        20
29.660        47
29.670        47
29.680        47
29.690        47
29.700        33
29.710        13
29.720        53
29.730        47
29.740        20
29.750        40
29.760        27
29.770        13
29.780        33
29.790        27
29.800         7
29.810        13
29.820         7
29.830        27
29.840        27
29.850        13
29.860        27
29.870        27
29.880        20
29.890        40
29.900        60
29.910        13
29.920         7
29.930         7
29.940        20
29.950        47
29.960        27
29.970        20
29.980        27
29.990        40
30.000        20
30.010        47
30.020        13
30.030         7
30.040        20
30.050        40
30.060        13
30.070        40
30.080        40
30.090        20
30.100        27
30.110        27
30.120        20
30.130        40
30.140        47
30.150        27
30.160        40
30.170        47
30.180        13
30.190        20
30.200        53
30.210        47
30.220        40
30.230         7
30.240        40
30.250        40
30.260        40
30.270        27
30.280        60
30.290        73
30.300        13
30.310        33
30.320        20
30.330        27
30.340        40
30.350        20
30.360        33
30.370        33
30.380        20
30.390        40
30.400         7
30.410        20
30.420        27
30.430        27
30.440        47
30.450        33
30.460        33
30.470        13
30.480         7
30.490        20
30.500        20
30.510        27
30.520         0
30.530        27
30.540        27
30.550        27
30.560        33
30.570        13
30.580        33
30.590        13
30.600         7
30.610        47
30.620        27
30.630        40
30.640        40
30.650        47
30.660        20
30.670        20
30.680        20
30.690        33
30.700        13
30.710        33
30.720        20
30.730        60
30.740        47
30.750        40
30.760        13
30.770        33
30.780         7
30.790        20
30.800        20
30.810        20
30.820        33
30.830        33
30.840         7
30.850        20
30.860        20
30.870        40
30.880        27
30.890        40
30.900        20
30.910        27
30.920        20
30.930         7
30.940        13
30.950        27
30.960        47
30.970        13
30.980        13
30.990        20
31.000        27
31.010        40
31.020        47
31.030        47
31.040        20
31.050        27
31.060        40
31.070        40
31.080        33
31.090        27
31.100         7
31.110        27
31.120        33
31.130        60
31.140        20
31.150        53
31.160        53
31.170        33
31.180        27
31.190        33
31.200        40
31.210        27
31.220        40
31.230        20
31.240        20
31.250        13
31.260        20
31.270        40
31.280        27
31.290        20
31.300        27
31.310        27
31.320        20
31.330        40
31.340        60
31.350        47
31.360        40
31.370        47
31.380        20
31.390         0
31.400        13
31.410         0
31.420        20
31.430        13
31.440        27
31.450        60
31.460        20
31.470        47
31.480        13
31.490        33
31.500        33
31.510        47
31.520        40
31.530        20
31.540        13
31.550        13
31.560        40
31.570        27
31.580        40
31.590        47
31.600        40
31.610        40
31.620        27
31.630        27
31.640        27
31.650        13
31.660         7
31.670        20
31.680        40
31.690        67
31.700        40
31.710        80
31.720        53
31.730        27
31.740        53
31.750        33
31.760        20
31.770        47
31.780        27
31.790        13
31.800        47
31.810        27
31.820        33
31.830        20
31.840        40
31.850        27
31.860        13
31.870         7
31.880        20
31.890        53
31.900        27
31.910        27
31.920        40
31.930        47
31.940         7
31.950        27
31.960         7
31.970        20
31.980        13
31.990        53
32.000        27
32.010         7
32.020        47
32.030        53
32.040        40
32.050        40
32.060        33
32.070        27
32.080        67
32.090        27
32.100        13
32.110        60
32.120        40
32.130        60
32.140        40
32.150        27
32.160        40
32.170        20
32.180        27
32.190        27
32.200        60
32.210        40
32.220        47
32.230       100
32.240        60
32.250        33
32.260        67
32.270        80
32.280       100
32.290        87
32.300       120
32.310       147
32.320       127
32.330       107
32.340        87
32.350        60
32.360       113
32.370        73
32.380        93
32.390       180
32.400        53
32.410       133
32.420       140
32.430       167
32.440       153
32.450       153
32.460       153
32.470       100
32.480       187
32.490       127
32.500       120
32.510       127
32.520       120
32.530        87
32.540        87
32.550        93
32.560       113
32.570       100
32.580        87
32.590       120
32.600       100
32.610        53
32.620        53
32.630        53
32.640        73
32.650        60
32.660        60
32.670        73
32.680        47
32.690        47
32.700        40
32.710        53
32.720        33
32.730        67
32.740        60
32.750        20
32.760        73
32.770        33
32.780        27
32.790        27
32.800        20
32.810        27
32.820        33
32.830         7
32.840        27
32.850        40
32.860        20
32.870        20
32.880         7
32.890        13
32.900        20
32.910        27
32.920        40
32.930        13
32.940        27
32.950        47
32.960        13
32.970        40
32.980         0
32.990        20
33.000        33
33.010         7
33.020        13
33.030        60
33.040        13
33.050        20
33.060        13
33.070        33
33.080        40
33.090        13
33.100        13
33.110        20
33.120        20
33.130        47
33.140        33
33.150        20
33.160        13
33.170        53
33.180        27
33.190        53
33.200        47
33.210        13
33.220        33
33.230        33
33.240         7
33.250        27
33.260        27
33.270        27
33.280        13
33.290        33
33.300        27
33.310        13
33.320        27
33.330         7
33.340        33
33.350        33
33.360        20
33.370        13
33.380        20
33.390        20
33.400        27
33.410        13
33.420       133
33.430        27
33.440        40
33.450        20
33.460        20
33.470        13
33.480         7
33.490        33
33.500        27
33.510        33
33.520        33
33.530         7
33.540        33
33.550        53
33.560        20
33.570        27
33.580        27
33.590        40
33.600        20
33.610        47
33.620        40
33.630        13
33.640        27
33.650        13
33.660        20
33.670        13
33.680        27
33.690         0
33.700        33
33.710        20
33.720         7
33.730        33
33.740        27
33.750        20
33.760        33
33.770        13
33.780        13
33.790        20
33.800        13
33.810        27
33.820        33
33.830        20
33.840        27
33.850        13
33.860        20
33.870        27
33.880        20
33.890        13
33.900        47
33.910        40
33.920        27
33.930        20
33.940        20
33.950        33
33.960        27
33.970        33
33.980        13
33.990        13
34.000         7
34.010        13
34.020        53
34.030        20
34.040        33
34.050        20
34.060        27
34.070        47
34.080        27
34.090        40
34.100        47
34.110        33
34.120         7
34.130        27
34.140        67
34.150        27
34.160        13
34.170        20
34.180        27
34.190        13
34.200        13
34.210        20
34.220        13
34.230        33
34.240        13
34.250        13
34.260        27
34.270        27
34.280         7
34.290        13
34.300        33
34.310        27
34.320        27
34.330        33
34.340        13
34.350        27
34.360        27
34.370        27
34.380        20
34.390        20
34.400        40
34.410        27
34.420        47
34.430        27
34.440        13
34.450        27
34.460        33
34.470        47
34.480        13
34.490        40
34.500         7
34.510        40
34.520        13
34.530         7
34.540        13
34.550        13
34.560        40
34.570        40
34.580        20
34.590        27
34.600         7
34.610        20
34.620         7
34.630        20
34.640        40
34.650        20
34.660         7
34.670        13
34.680        20
34.690        27
34.700         7
34.710        20
34.720        20
34.730        40
34.740        33
34.750        33
34.760        13
34.770         0
34.780        20
34.790        33
34.800         7
34.810         7
34.820        20
34.830        40
34.840        20
34.850        33
34.860        33
34.870        27
34.880        33
34.890        20
34.900        53
34.910        40
34.920        27
34.930        53
34.940        67
34.950        33
34.960        20
34.970        13
34.980        13
34.990        33
35.000        33
35.010       100
35.020        73
35.030        67
35.040        80
35.050       120
35.060       133
35.070        73
35.080       133
35.090       140
35.100       133
35.110       180
35.120       133
35.130       153
35.140       153
35.150       287
35.160       267
35.170       313
35.180       400
35.190       453
35.200       433
35.210       340
35.220       393
35.230       540
35.240       426
35.250       380
35.260       273
35.270       193
35.280       260
35.290       280
35.300       213
35.310       240
35.320       233
35.330       173
35.340       173
35.350        80
35.360        60
35.370        40
35.380        53
35.390        53
35.400        53
35.410         7
35.420        40
35.430        33
35.440        47
35.450        20
35.460        27
35.470         7
35.480        20
35.490        40
35.500        27
35.510        20
35.520        27
35.530        33
35.540        20
35.550        33
35.560        40
35.570        27
35.580        13
35.590        27
35.600        13
35.610        27
35.620        27
35.630        13
35.640        27
35.650         7
35.660        27
35.670        27
35.680        40
35.690        33
35.700        20
35.710        27
35.720        27
35.730        40
35.740        33
35.750        27
35.760        27
35.770        47
35.780        20
35.790        33
35.800        13
35.810        40
35.820        20
35.830        13
35.840        13
35.850        27
35.860        13
35.870        33
35.880        27
35.890        33
35.900         0
35.910        33
35.920        13
35.930        27
35.940         0
35.950        33
35.960        40
35.970         7
35.980        13
35.990        20
36.000        27
36.010        20
36.020        53
36.030         0
36.040        27
36.050         7
36.060        13
36.070         0
36.080        20
36.090        33
36.100        27
36.110        20
36.120        20
36.130        13
36.140        13
36.150        33
36.160        20
36.170        20
36.180        20
36.190         0
36.200         7
36.210        33
36.220        33
36.230         7
36.240        27
36.250        20
36.260        13
36.270        40
36.280        20
36.290        40
36.300         7
36.310        20
36.320        33
36.330        20
36.340        33
36.350        40
36.360        20
36.370         7
36.380        13
36.390        27
36.400        13
36.410        53
36.420        20
36.430        27
36.440        20
36.450        20
36.460        20
36.470        33
36.480        33
36.490        27
36.500         7
36.510         7
36.520        40
36.530        33
36.540        40
36.550        20
36.560        20
36.570        33
36.580        27
36.590        40
36.600        33
36.610        27
36.620         0
36.630        27
36.640        20
36.650        13
36.660        33
36.670        20
36.680        13
36.690         7
36.700        20
36.710        60
36.720        13
36.730        27
36.740        27
36.750        13
36.760        53
36.770        33
36.780        13
36.790        27
36.800        40
36.810        40
36.820        53
36.830        20
36.840        47
36.850         7
36.860        20
36.870         7
36.880        40
36.890        27
36.900        20
36.910        40
36.920         0
36.930        33
36.940        20
36.950        40
36.960        20
36.970        33
36.980        20
36.990        20
37.000        40
37.010        20
37.020        33
37.030        33
37.040        27
37.050        33
37.060        20
37.070        13
37.080        40
37.090        13
37.100        27
37.110        27
37.120        33
37.130        20
37.140        40
37.150        13
37.160        47
37.170        13
37.180         7
37.190        20
37.200        33
37.210        13
37.220         7
37.230        13
37.240        27
37.250         7
37.260        13
37.270        13
37.280        27
37.290        13
37.300        27
37.310         7
37.320         0
37.330        33
37.340        33
37.350        20
37.360        27
37.370         7
37.380        13
37.390        40
37.400        47
37.410         0
37.420        27
37.430         7
37.440        20
37.450        20
37.460        20
37.470        33
37.480        20
37.490         7
37.500        20
37.510        13
37.520        13
37.530        27
37.540        27
37.550        13
37.560        40
37.570        20
37.580        40
37.590        27
37.600        53
37.610         7
37.620        40
37.630        40
37.640        20
37.650        27
37.660        40
37.670        33
37.680        33
37.690        53
37.700        47
37.710        53
37.720        33
37.730        73
37.740        47
37.750        87
37.760        73
37.770        67
37.780        60
37.790        40
37.800       133
37.810       140
37.820       140
37.830        73
37.840       113
37.850        80
37.860       100
37.870        53
37.880        80
37.890        40
37.900        73
37.910        27
37.920        53
37.930        73
37.940        33
37.950        60
37.960        80
37.970        40
37.980        20
37.990        33
38.000        33
38.010        40
38.020        33
38.030         7
38.040        27
38.050        33
38.060        33
38.070        40
38.080        13
38.090        27
38.100        40
38.110        47
38.120        33
38.130        20
38.140        27
38.150        20
38.160        33
38.170        33
38.180        33
38.190        33
38.200         7
38.210        27
38.220        33
38.230        33
38.240        20
38.250        20
38.260        33
38.270        27
38.280         7
38.290        27
38.300        13
38.310         7
38.320        13
38.330         7
38.340        40
38.350        20
38.360         7
38.370        20
38.380        20
38.390        53
38.400        20
38.410        33
38.420        40
38.430        20
38.440        40
38.450         7
38.460        20
38.470        20
38.480         7
38.490        33
38.500        27
38.510        20
38.520         0
38.530        20
38.540        27
38.550        13
38.560        20
38.570         7
38.580        47
38.590        40
38.600        27
38.610        20
38.620        33
38.630         0
38.640        20
38.650        20
38.660        13
38.670        13
38.680         7
38.690        20
38.700        27
38.710        13
38.720        33
38.730        27
38.740        40
38.750        13
38.760        20
38.770         0
38.780        33
38.790        27
38.800        20
38.810        13
38.820        40
38.830         7
38.840         7
38.850        40
38.860         7
38.870        13
38.880        13
38.890         7
38.900        27
38.910        20
38.920        40
38.930        27
38.940        47
38.950        27
38.960         0
38.970        40
38.980        40
38.990        20
39.000        13
39.010        40
39.020        53
39.030         7
39.040        47
39.050        20
39.060         0
39.070         7
39.080         0
39.090        20
39.100        20
39.110        33
39.120        33
39.130        20
39.140        20
39.150         0
39.160        20
39.170        27
39.180        20
39.190         7
39.200        13
39.210        33
39.220        20
39.230        13
39.240        20
39.250         7
39.260        33
39.270        13
39.280        20
39.290        20
39.300        33
39.310        27
39.320        20
39.330        40
39.340        27
39.350        20
39.360        33
39.370        27
39.380         7
39.390        27
39.400        20
39.410        20
39.420        13
39.430         7
39.440         7
39.450        27
39.460         0
39.470         7
39.480        40
39.490        13
39.500        27
39.510        27
39.520        20
39.530        27
39.540        27
39.550        27
39.560        13
39.570        20
39.580        40
39.590         0
39.600         0
39.610        20
39.620        40
39.630        27
39.640        20
39.650        47
39.660        20
39.670        27
39.680        27
39.690        53
39.700        33
39.710        53
39.720         0
39.730        27
39.740        13
39.750        33
39.760        27
39.770         7
39.780        20
39.790        53
39.800        20
39.810        13
39.820        47
39.830        27
39.840        60
39.850        33
39.860        60
39.870        47
39.880        47
39.890        53
39.900        33
39.910        80
39.920        60
39.930        73
39.940        53
39.950        87
39.960        87
39.970        67
39.980       167
39.990       147
40.000        93
40.010        73
40.020       140
40.030       100
40.040        60
40.050        93
40.060       140
40.070       133
40.080        73
40.090       113
40.100        93
40.110        47
40.120       127
40.130        80
40.140       107
40.150        93
40.160        67
40.170        53
40.180        60
40.190        53
40.200        67
40.210        60
40.220        40
40.230        40
40.240        33
40.250        33
40.260        40
40.270        20
40.280        73
40.290         7
40.300        27
40.310        40
40.320        47
40.330         7
40.340        33
40.350         7
40.360        40
40.370        20
40.380        40
40.390        40
40.400        33
40.410        40
40.420         0
40.430        33
40.440        20
40.450        33
40.460        20
40.470         7
40.480        47
40.490        13
40.500        13
40.510         0
40.520        40
40.530        60
40.540        33
40.550         0
40.560        13
40.570         0
40.580        33
40.590        33
40.600        20
40.610        27
40.620        33
40.630         7
40.640        13
40.650        27
40.660        27
40.670        20
40.680        20
40.690        40
40.700        20
40.710        33
40.720        20
40.730        33
40.740         7
40.750        13
40.760        20
40.770        13
40.780         7
40.790        13
40.800        13
40.810        13
40.820        20
40.830         0
40.840        40
40.850        20
40.860         0
40.870        20
40.880        27
40.890        27
40.900         7
40.910        20
40.920        33
40.930        33
40.940        27
40.950         0
40.960         0
40.970        13
40.980         7
40.990        20
41.000        33
41.010        20
41.020        20
41.030        13
41.040        20
41.050        20
41.060        20
41.070        13
41.080        20
41.090        20
41.100        27
41.110        27
41.120         7
41.130        20
41.140        20
41.150        27
41.160        27
41.170        47
41.180         7
41.190        20
41.200        33
41.210        27
41.220        13
41.230        27
41.240        40
41.250         0
41.260        13
41.270        13
41.280        20
41.290        27
41.300        27
41.310        13
41.320         7
41.330        27
41.340        27
41.350        13
41.360        13
41.370        27
41.380        20
41.390        13
41.400        20
41.410        27
41.420         0
41.430        27
41.440        67
41.450         7
41.460        47
41.470        20
41.480         0
41.490         7
41.500        33
41.510        40
41.520        40
41.530        20
41.540        20
41.550        47
41.560        60
41.570        60
41.580        60
41.590        47
41.600        60
41.610        40
41.620        73
41.630        53
41.640        40
41.650        47
41.660        93
41.670       127
41.680       100
41.690       100
41.700       193
41.710       220
41.720       133
41.730       227
41.740       147
41.750       140
41.760       147
41.770       113
41.780       120
41.790        87
41.800        60
41.810       107
41.820        93
41.830       120
41.840        93
41.850       127
41.860       107
41.870       113
41.880        73
41.890        53
41.900        60
41.910        33
41.920        20
41.930         7
41.940        27
41.950        33
41.960        33
41.970        33
41.980        40
41.990        40
42.000        27
42.010        20
42.020        20
42.030         7
42.040        40
42.050         7
42.060        27
42.070        27
42.080        40
42.090         7
42.100        27
42.110        27
42.120        13
42.130         0
42.140        20
42.150        33
42.160        20
42.170        27
42.180         7
42.190        47
42.200         0
42.210        47
42.220        13
42.230        27
42.240        27
42.250        20
42.260        20
42.270        27
42.280        27
42.290        13
42.300         0
42.310        20
42.320        20
42.330        27
42.340        27
42.350        13
42.360        20
42.370        20
42.380        40
42.390        13
42.400        27
42.410         7
42.420        40
42.430        27
42.440        20
42.450        27
42.460        27
42.470        27
42.480        27
42.490        20
42.500        20
42.510        13
42.520        20
42.530         0
42.540        20
42.550        20
42.560        33
42.570        13
42.580         7
42.590        13
42.600        27
42.610        47
42.620        40
42.630        33
42.640        13
42.650        33
42.660        13
42.670        27
42.680        20
42.690         7
42.700        27
42.710         0
42.720        20
42.730        27
42.740        33
42.750         7
42.760        33
42.770        47
42.780        33
42.790        47
42.800        20
42.810         7
42.820        40
42.830        20
42.840        20
42.850        53
42.860        47
42.870        40
42.880        20
42.890         7
42.900         7
42.910        20
42.920        33
42.930        27
42.940         7
42.950        27
42.960        33
42.970        13
42.980        20
42.990        13
43.000        27
43.010        13
43.020         7
43.030        27
43.040        13
43.050        60
43.060        33
43.070        33
43.080        47
43.090        47
43.100        20
43.110        27
43.120        20
43.130        33
43.140        20
43.150        33
43.160        53
43.170        53
43.180        27
43.190        33
43.200        47
43.210        33
43.220        13
43.230        60
43.240        67
43.250        60
43.260        40
43.270        40
43.280        47
43.290        47
43.300        80
43.310       120
43.320       147
43.330       200
43.340       240
43.350       433
43.360       473
43.370       433
43.380       460
43.390       460
43.400       373
43.410       440
43.420       353
43.430       280
43.440       287
43.450       260
43.460       293
43.470       240
43.480       293
43.490       260
43.500       273
43.510       327
43.520       200
43.530       193
43.540       127
43.550       120
43.560        73
43.570        33
43.580        47
43.590        27
43.600        33
43.610        13
43.620        13
43.630        33
43.640        47
43.650        47
43.660        20
43.670        13
43.680        20
43.690        33
43.700        47
43.710        47
43.720         7
43.730        40
43.740        20
43.750        33
43.760        27
43.770        33
43.780        27
43.790        13
43.800        33
43.810        27
43.820        53
43.830        13
43.840        27
43.850         7
43.860         7
43.870        20
43.880        53
43.890        27
43.900        40
43.910        13
43.920        47
43.930        20
43.940        20
43.950        40
43.960        27
43.970        27
43.980        20
43.990        33
44.000        27
44.010        20
44.020        33
44.030        40
44.040        33
44.050        20
44.060        13
44.070        47
44.080        27
44.090        40
44.100        20
44.110        53
44.120        13
44.130        13
44.140        20
44.150        20
44.160        20
44.170        27
44.180        20
44.190        27
44.200        33
44.210        20
44.220        27
44.230        20
44.240        33
44.250        20
44.260        27
44.270        20
44.280        13
44.290        27
44.300        20
44.310        33
44.320        20
44.330        53
44.340        33
44.350        27
44.360        27
44.370        47
44.380         7
44.390        27
44.400         0
44.410        47
44.420        27
44.430        53
44.440        27
44.450        20
44.460        13
44.470        20
44.480        27
44.490        13
44.500        27
44.510        27
44.520        53
44.530        47
44.540        27
44.550         7
44.560        47
44.570        33
44.580        33
44.590        27
44.600        53
44.610        33
44.620        40
44.630        13
44.640        13
44.650        33
44.660        40
44.670        33
44.680        33
44.690        33
44.700        40
44.710        33
44.720        20
44.730        33
44.740        53
44.750        47
44.760        33
44.770        53
44.780        27
44.790        40
44.800        40
44.810        47
44.820        13
44.830        40
44.840        67
44.850        33
44.860        33
44.870        33
44.880        53
44.890        73
44.900        93
44.910        47
44.920        47
44.930        73
44.940        47
44.950        53
44.960        60
44.970        60
44.980        80
44.990        47
45.000        53
45.010        27
45.020        33
45.030        80
45.040        13
45.050        67
45.060        40
45.070        67
45.080        47
45.090        27
45.100        40
45.110        27
45.120        53
45.130        60
45.140        67
45.150        53
45.160        27
45.170        40
45.180        27
45.190        80
45.200        87
45.210        27
45.220        73
45.230        47
45.240        73
45.250        53
45.260        73
45.270        53
45.280        47
45.290        60
45.300        60
45.310        60
45.320        47
45.330        40
45.340        53
45.350        93
45.360        93
45.370        60
45.380        60
45.390        67
45.400        73
45.410        73
45.420        67
45.430        87
45.440        87
45.450        47
45.460        80
45.470        87
45.480        60
45.490        73
45.500        47
45.510        40
45.520       107
45.530        87
45.540        87
45.550       133
45.560        67
45.570        73
45.580        93
45.590        87
45.600       107
45.610        67
45.620        93
45.630        60
45.640        87
45.650       173
45.660        87
45.670       107
45.680        60
45.690       113
45.700       113
45.710        67
45.720       100
45.730       113
45.740       107
45.750       167
45.760       160
45.770        73
45.780       207
45.790       187
45.800       140
45.810       213
45.820       180
45.830       160
45.840       227
45.850       227
45.860       367
45.870       220
45.880       253
45.890       240
45.900       207
45.910       307
45.920       360
45.930       373
45.940       327
45.950       307
45.960       280
45.970       380
45.980       267
45.990       380
46.000       433
46.010       500
46.020       426
46.030       440
46.040       493
46.050       560
46.060       686
46.070       733
46.080       546
46.090       793
46.100       713
46.110       793
46.120       746
46.130       933
46.140       846
46.150       886
46.160       913
46.170      1046
46.180       973
46.190      1006
46.200      1160
46.210      1200
46.220      1153
46.230      1313
46.240      1293
46.250      1419
46.260      1539
46.270      1553
46.280      1566
46.290      1706
46.300      1779
46.310      1759
46.320      1586
46.330      1559
46.340      1779
46.350      1933
46.360      1799
46.370      1846
46.380      1853
46.390      1713
46.400      1973
46.410      1726
46.420      1786
46.430      1773
46.440      1699
46.450      1733
46.460      1646
46.470      1773
46.480      1879
46.490      1606
46.500      1686
46.510      1639
46.520      1606
46.530      1599
46.540      1579
46.550      1226
46.560      1446
46.570      1326
46.580      1273
46.590      1346
46.600      1293
46.610      1053
46.620      1020
46.630      1046
46.640      1006
46.650      1153
46.660      1000
46.670       780
46.680       860
46.690       866
46.700       800
46.710       773
46.720       846
46.730       706
46.740       653
46.750       580
46.760       573
46.770       500
46.780       520
46.790       426
46.800       433
46.810       433
46.820       500
46.830       433
46.840       407
46.850       367
46.860       313
46.870       367
46.880       233
46.890       320
46.900       260
46.910       213
46.920       240
46.930       267
46.940       327
46.950       227
46.960       253
46.970       240
46.980       207
46.990       173
47.000       200
47.010       187
47.020       247
47.030       200
47.040       187
47.050       153
47.060       133
47.070       153
47.080       207
47.090       113
47.100       167
47.110       180
47.120       113
47.130       133
47.140       107
47.150       100
47.160       113
47.170        87
47.180        93
47.190       113
47.200       127
47.210       113
47.220        60
47.230        93
47.240       147
47.250       107
47.260        33
47.270       147
47.280        93
47.290       113
47.300        67
47.310        47
47.320        87
47.330        67
47.340       107
47.350        67
47.360        87
47.370        53
47.380        40
47.390       107
47.400        87
47.410        47
47.420        47
47.430        33
47.440        67
47.450        53
47.460       107
47.470        73
47.480        80
47.490        53
47.500        87
47.510        67
47.520        33
47.530        73
47.540        87
47.550        27
47.560        33
47.570        40
47.580        27
47.590        47
47.600        53
47.610        27
47.620        60
47.630        67
47.640        33
47.650        40
47.660        73
47.670        60
47.680        40
47.690        60
47.700        60
47.710        60
47.720        80
47.730        13
47.740        33
47.750        53
47.760        47
47.770        53
47.780        40
47.790         7
47.800        53
47.810        33
47.820        47
47.830        27
47.840        47
47.850        33
47.860        67
47.870        53
47.880        53
47.890        33
47.900        13
47.910        33
47.920        20
47.930        33
47.940        27
47.950        13
47.960        40
47.970        47
47.980        67
47.990        20
48.000        53
48.010        33
48.020        53
48.030        47
48.040        40
48.050        53
48.060         0
48.070        27
48.080        53
48.090        27
48.100        47
48.110        13
48.120        40
48.130        27
48.140        40
48.150        40
48.160        33
48.170        20
48.180        53
48.190        27
48.200        27
48.210        27
48.220        20
48.230        13
48.240        47
48.250        47
48.260        13
48.270        60
48.280        20
48.290        40
48.300        60
48.310        53
48.320        47
48.330        53
48.340        20
48.350        27
48.360        33
48.370        47
48.380        20
48.390        27
48.400        20
48.410        53
48.420        40
48.430        67
48.440        20
48.450        47
48.460         7
48.470        27
48.480        13
48.490        33
48.500        20
48.510        33
48.520        47
48.530        33
48.540        13
48.550        33
48.560        47
48.570        13
48.580        40
48.590        27
48.600        60
48.610         7
48.620        27
48.630        60
48.640        53
48.650        33
48.660        33
48.670        20
48.680        33
48.690        40
48.700        20
48.710        13
48.720        47
48.730        47
48.740        53
48.750        33
48.760        27
48.770        73
48.780        13
48.790        47
48.800        53
48.810        40
48.820        33
48.830        47
48.840        40
48.850        47
48.860        13
48.870        33
48.880        13
48.890        33
48.900        53
48.910        13
48.920        13
48.930        27
48.940        20
48.950        20
48.960        20
48.970        33
48.980        60
48.990        53
49.000        20
49.010        20
49.020        20
49.030        13
49.040        33
49.050        20
49.060        33
49.070        33
49.080        20
49.090        20
49.100        27
49.110        47
49.120        13
49.130        27
49.140        13
49.150        40
49.160        33
49.170        33
49.180        13
49.190        40
49.200        13
49.210         7
49.220         7
49.230        13
49.240        33
49.250         7
49.260         7
49.270        27
49.280        53
49.290        27
49.300        20
49.310        27
49.320        33
49.330        53
49.340        13
49.350        33
49.360        27
49.370         7
49.380        53
49.390        33
49.400        47
49.410        20
49.420        47
49.430        33
49.440        33
49.450        20
49.460        27
49.470        27
49.480        20
49.490        27
49.500        47
49.510        33
49.520        13
49.530        20
49.540        33
49.550        13
49.560        13
49.570         7
49.580        40
49.590        20
49.600        13
49.610        20
49.620        33
49.630         7
49.640        47
49.650        40
49.660         7
49.670        13
49.680        27
49.690        40
49.700        27
49.710        40
49.720        40
49.730        53
49.740         7
49.750        27
49.760        20
49.770         7
49.780        33
49.790        40
49.800        27
49.810        13
49.820         7
49.830        20
49.840        27
49.850        27
49.860         7
49.870        20
49.880        27
49.890         0
49.900        40
49.910        20
49.920        13
49.930        13
49.940        20
49.950        40
49.960         7
49.970        27
49.980         7
49.990         7
50.000        33
50.010        40
50.020         7
50.030        27
50.040        33
50.050        27
50.060        27
50.070        27
50.080        27
50.090        20
50.100         7
50.110        33
50.120        20
50.130        27
50.140         7
50.150         0
50.160        33
50.170        20
50.180        33
50.190        13
50.200         0
50.210        27
50.220        20
50.230        47
50.240        47
50.250         7
50.260        13
50.270        13
50.280        33
50.290        13
50.300        27
50.310        20
50.320        20
50.330        13
50.340        20
50.350        27
50.360        27
50.370        27
50.380        20
50.390        40
50.400        20
50.410         7
50.420        13
50.430        33
50.440        33
50.450        27
50.460        13
50.470        27
50.480        20
50.490        20
50.500        27
50.510        27
50.520        27
50.530        13
50.540         7
50.550         7
50.560        33
50.570        13
50.580        33
50.590        20
50.600         7
50.610        13
50.620        13
50.630         7
50.640         0
50.650        33
50.660        13
50.670        33
50.680        33
50.690        27
50.700        13
50.710        33
50.720        40
50.730         0
50.740        20
50.750        13
50.760        40
50.770         7
50.780        13
50.790        27
50.800        13
50.810        27
50.820        13
50.830        33
50.840        20
50.850        33
50.860        53
50.870        20
50.880        20
50.890        27
50.900        40
50.910        13
50.920        13
50.930        20
50.940        20
50.950        27
50.960        20
50.970         7
50.980        27
50.990        13
51.000        27
51.010         7
51.020        20
51.030        40
51.040        20
51.050         0
51.060         7
51.070         7
51.080        47
51.090        33
51.100        27
51.110        20
51.120        40
51.130        20
51.140        27
51.150        13
51.160        33
51.170        27
51.180        40
51.190        13
51.200        27
51.210        27
51.220        40
51.230        27
51.240        20
51.250        13
51.260        27
51.270        33
51.280         7
51.290        47
51.300        20
51.310        13
51.320        27
51.330         7
51.340         7
51.350        27
51.360        27
51.370         0
51.380        13
51.390        13
51.400        13
51.410        27
51.420        20
51.430         7
51.440        47
51.450        27
51.460        27
51.470        33
51.480        40
51.490        27
51.500        20
51.510         7
51.520        40
51.530        33
51.540        27
51.550        20
51.560        53
51.570        33
51.580         7
51.590         7
51.600        20
51.610        53
51.620        73
51.630        27
51.640        33
51.650         7
51.660        20
51.670        20
51.680         7
51.690        33
51.700        20
51.710        13
51.720        13
51.730         0
51.740        13
51.750        13
51.760        13
51.770        27
51.780        13
51.790        33
51.800         7
51.810        27
51.820        13
51.830        33
51.840        20
51.850        13
51.860        20
51.870        40
51.880        20
51.890        20
51.900        13
51.910        33
51.920        20
51.930        47
51.940        27
51.950        27
51.960        20
51.970         7
51.980         7
51.990         7
52.000        13
52.010        53
52.020        20
52.030        33
52.040        33
52.050        27
52.060        20
52.070        33
52.080        13
52.090        20
52.100        27
52.110        27
52.120        13
52.130        27
52.140        13
52.150        13
52.160        27
52.170        20
52.180        20
52.190        20
52.200         7
52.210        27
52.220        20
52.230         0
52.240        53
52.250        33
52.260         7
52.270        27
52.280        33
52.290        13
52.300        13
52.310        20
52.320        27
52.330        40
52.340        40
52.350        13
52.360        13
52.370        53
52.380        33
52.390        27
52.400        20
52.410        53
52.420        40
52.430        27
52.440        33
52.450        13
52.460        20
52.470        27
52.480         7
52.490        33
52.500        53
52.510        33
52.520        53
52.530        73
52.540        40
52.550        87
52.560       153
52.570        93
52.580       147
52.590       140
52.600       167
52.610        93
52.620       133
52.630        87
52.640       133
52.650        53
52.660        87
52.670        93
52.680        47
52.690        93
52.700        80
52.710        67
52.720       100
52.730       107
52.740       113
52.750       107
52.760       133
52.770        53
52.780        47
52.790        53
52.800        47
52.810        53
52.820        47
52.830        13
52.840        20
52.850        27
52.860        47
52.870        33
52.880        20
52.890        33
52.900        27
52.910        20
52.920        20
52.930        40
52.940        40
52.950        13
52.960        13
52.970        20
52.980         7
52.990        13
53.000        27
53.010        27
53.020        27
53.030        40
53.040        20
53.050         7
53.060        20
53.070        13
53.080         7
53.090        20
53.100        27
53.110        33
53.120         0
53.130        13
53.140        33
53.150        33
53.160        20
53.170        20
53.180        20
53.190        33
53.200         0
53.210         0
53.220        33
53.230        20
53.240         7
53.250        13
53.260         7
53.270        33
53.280        27
53.290        20
53.300        20
53.310        27
53.320        20
53.330        13
53.340        27
53.350        27
53.360        13
53.370        20
53.380        40
53.390        20
53.400         7
53.410        13
53.420         0
53.430         0
53.440        20
53.450        47
53.460        13
53.470        47
53.480        13
53.490        20
53.500        47
53.510        13
53.520        33
53.530         7
53.540        33
53.550        13
53.560        27
53.570         0
53.580        20
53.590        27
53.600        20
53.610        13
53.620         7
53.630         0
53.640        27
53.650        40
53.660        13
53.670        20
53.680        20
53.690        13
53.700         7
53.710        13
53.720        13
53.730        20
53.740         7
53.750         7
53.760        47
53.770        13
53.780        20
53.790        20
53.800        13
53.810        13
53.820        20
53.830        27
53.840        13
53.850        27
53.860        40
53.870         7
53.880        13
53.890        27
53.900        13
53.910         0
53.920        13
53.930        13
53.940        13
53.950        33
53.960        13
53.970        13
53.980        27
53.990        27
54.000         7
54.010        13
54.020        33
54.030         7
54.040        20
54.050        33
54.060        20
54.070        27
54.080        40
54.090        13
54.100        27
54.110        20
54.120        20
54.130        20
54.140        20
54.150        13
54.160        20
54.170        13
54.180        20
54.190         7
54.200         7
54.210        33
54.220        13
54.230        33
54.240        13
54.250        13
54.260        20
54.270        47
54.280        20
54.290         7
54.300        53
54.310        40
54.320        13
54.330         7
54.340        40
54.350         0
54.360        33
54.370        40
54.380        13
54.390        27
54.400        13
54.410        13
54.420        33
54.430        13
54.440         7
54.450        27
54.460        13
54.470        13
54.480        33
54.490         0
54.500        27
54.510         0
54.520        27
54.530        20
54.540        13
54.550        40
54.560         7
54.570        13
54.580         7
54.590        27
54.600         7
54.610        33
54.620        27
54.630        27
54.640        33
54.650        13
54.660        20
54.670        13
54.680        20
54.690         7
54.700        20
54.710        27
54.720        40
54.730         0
54.740         7
54.750        13
54.760        13
54.770        20
54.780        20
54.790        13
54.800        27
54.810        20
54.820        13
54.830        33
54.840        33
54.850        33
54.860        40
54.870         7
54.880        40
54.890        13
54.900        20
54.910        27
54.920        13
54.930         0
54.940        20
54.950        20
54.960         0
54.970        33
54.980        13
54.990        33
55.000        13
55.010        20
55.020        13
55.030        27
55.040        40
55.050        27
55.060        27
55.070        20
55.080         7
55.090        13
55.100        20
55.110        47
55.120         7
55.130        20
55.140        13
55.150         0
55.160         7
55.170        20
55.180        20
55.190        20
55.200        20
55.210        27
55.220        13
55.230        20
55.240        27
55.250        20
55.260         7
55.270         7
55.280         7
55.290        20
55.300        47
55.310        20
55.320         7
55.330        27
55.340        13
55.350         0
55.360        27
55.370        20
55.380        20
55.390        13
55.400        13
55.410        40
55.420        27
55.430        20
55.440        40
55.450        27
55.460        13
55.470         7
55.480        27
55.490         7
55.500        40
55.510        13
55.520         7
55.530        33
55.540        13
55.550        20
55.560        20
55.570        20
55.580        33
55.590        27
55.600        33
55.610         7
55.620        27
55.630        27
55.640         7
55.650        27
55.660        53
55.670         7
55.680         7
55.690        13
55.700        27
55.710        13
55.720        27
55.730        13
55.740        47
55.750        20
55.760        13
55.770        13
55.780         0
55.790        13
55.800        13
55.810        40
55.820        13
55.830        40
55.840        33
55.850        13
55.860        33
55.870        20
55.880        20
55.890        13
55.900        47
55.910         7
55.920        47
55.930        27
55.940        27
55.950         0
55.960        20
55.970        27
55.980         7
55.990        13
56.000        33
56.010        13
56.020         7
56.030        13
56.040         7
56.050        33
56.060        53
56.070        20
56.080        13
56.090        13
56.100        47
56.110        20
56.120        20
56.130         7
56.140        20
56.150         7
56.160        20
56.170        13
56.180        33
56.190        13
56.200        27
56.210        20
56.220        20
56.230        27
56.240        20
56.250        27
56.260        13
56.270        27
56.280        33
56.290        27
56.300        13
56.310        20
56.320        33
56.330        13
56.340         7
56.350         7
56.360        40
56.370        13
56.380        20
56.390         0
56.400         0
56.410        33
56.420        20
56.430         0
56.440        13
56.450         7
56.460        13
56.470        13
56.480        13
56.490        13
56.500        27
56.510        20
56.520         7
56.530        20
56.540        20
56.550         0
56.560         7
56.570        20
56.580        40
56.590        20
56.600        27
56.610        20
56.620        27
56.630        13
56.640        27
56.650        20
56.660        27
56.670        13
56.680        27
56.690         7
56.700        47
56.710        20
56.720         7
56.730         7
56.740         7
56.750        27
56.760        13
56.770        13
56.780        13
56.790        13
56.800         7
56.810        13
56.820        20
56.830        13
56.840        20
56.850        13
56.860        13
56.870         7
56.880        20
56.890        40
56.900        20
56.910        40
56.920        20
56.930        40
56.940        13
56.950        33
56.960        27
56.970        33
56.980        53
56.990        27
57.000         7
57.010        47
57.020        20
57.030        27
57.040         7
57.050         7
57.060        20
57.070        40
57.080        20
57.090         7
57.100         0
57.110        47
57.120        27
57.130        40
57.140        33
57.150        33
57.160        20
57.170        20
57.180        33
57.190        47
57.200        40
57.210        20
57.220        20
57.230        33
57.240        33
57.250        27
57.260        87
57.270        20
57.280        13
57.290        53
57.300        27
57.310        60
57.320        13
57.330        13
57.340        40
57.350        27
57.360        53
57.370        20
57.380        33
57.390        33
57.400        60
57.410        67
57.420        53
57.430        80
57.440        47
57.450        87
57.460        93
57.470        87
57.480       107
57.490       120
57.500       207
57.510       180
57.520       307
57.530       407
57.540       413
57.550       426
57.560       453
57.570       460
57.580       466
57.590       360
57.600       340
57.610       287
57.620       193
57.630       120
57.640       160
57.650       107
57.660       127
57.670       140
57.680       240
57.690       213
57.700       300
57.710       253
57.720       287
57.730       240
57.740       307
57.750       247
57.760       227
57.770       260
57.780        80
57.790        47
57.800        87
57.810        33
57.820        47
57.830        60
57.840        47
57.850        33
57.860        53
57.870        53
57.880        60
57.890        33
57.900        33
57.910        33
57.920        53
57.930        20
57.940        27
57.950        20
57.960        20
57.970        40
57.980        47
57.990        33
58.000        60
58.010        47
58.020        27
58.030        40
58.040        27
58.050        20
58.060        27
58.070        60
58.080        20
58.090         7
58.100        27
58.110        20
58.120        40
58.130         0
58.140        47
58.150        13
58.160        27
58.170        20
58.180        20
58.190        47
58.200        13
58.210        13
58.220        33
58.230        40
58.240        33
58.250        13
58.260         7
58.270        20
58.280        33
58.290         7
58.300        13
58.310        20
58.320        13
58.330        33
58.340         0
58.350        13
58.360        13
58.370        13
58.380        13
58.390        33
58.400         7
58.410        13
58.420        33
58.430        20
58.440        20
58.450        13
58.460        13
58.470         7
58.480        27
58.490        13
58.500         0
58.510        13
58.520        27
58.530        13
58.540        13
58.550         7
58.560        27
58.570        40
58.580        33
58.590         7
58.600        27
58.610         7
58.620        27
58.630         0
58.640        27
58.650         0
58.660         0
58.670        13
58.680        33
58.690         7
58.700         7
58.710        27
58.720        13
58.730        13
58.740        40
58.750        13
58.760        13
58.770        13
58.780        13
58.790        20
58.800        33
58.810         7
58.820        13
58.830        33
58.840         7
58.850         7
58.860        33
58.870        20
58.880         7
58.890        20
58.900        27
58.910        13
58.920        20
58.930         0
58.940        13
58.950        27
58.960        20
58.970         0
58.980         7
58.990        13
59.000         7
59.010         7
59.020        13
59.030        13
59.040        27
59.050         0
59.060        27
59.070        13
59.080        20
59.090         7
59.100        13
59.110        13
59.120         7
59.130        20
59.140         7
59.150         7
59.160        33
59.170        13
59.180        40
59.190        20
59.200        33
59.210        13
59.220         0
59.230        20
59.240         7
59.250        13
59.260         7
59.270        20
59.280        13
59.290        33
59.300         7
59.310        20
59.320         7
59.330        27
59.340         7
59.350        13
59.360        27
59.370         7
59.380        13
59.390        13
59.400        27
59.410        20
59.420        13
59.430        27
59.440         0
59.450        20
59.460        33
59.470         7
59.480        20
59.490        20
59.500        13
59.510        40
59.520        27
59.530        27
59.540        27
59.550        33
59.560        27
59.570        20
59.580        20
59.590        47
59.600         7
59.610        33
59.620         0
59.630         0
59.640        13
59.650         7
59.660        20
59.670        13
59.680        20
59.690        20
59.700        33
59.710        47
59.720         0
59.730        13
59.740        13
59.750         7
59.760        33
59.770        27
59.780        27
59.790        20
59.800         7
59.810        13
59.820        27
59.830        33
59.840        13
59.850        20
59.860        27
59.870        33
59.880         7
59.890        13
59.900        33
59.910        33
59.920        20
59.930        20
59.940        13
59.950        33
59.960        20
59.970        20
59.980         7
59.990        20
60.000         7
