20.000         0
20.010         0
20.020         0
20.030         0
20.040         0
20.050         0
20.060         0
20.070         0
20.080         0
20.090         0
20.100         0
20.110         0
20.120         0
20.130         0
20.140         0
20.150         0
20.160         0
20.170         0
20.180         0
20.190         0
20.200         0
20.210         0
20.220         0
20.230         0
20.240         0
20.250         0
20.260         7
20.270         0
20.280         0
20.290         7
20.300        60
20.310        93
20.320        80
20.330       107
20.340       147
20.350        87
20.360        73
20.370        80
20.380        67
20.390        67
20.400        73
20.410        47
20.420        27
20.430        73
20.440       100
20.450        93
20.460       100
20.470        40
20.480        80
20.490        53
20.500       113
20.510        93
20.520        93
20.530        73
20.540       100
20.550       113
20.560        73
20.570       113
20.580        67
20.590       113
20.600       100
20.610        53
20.620       107
20.630        87
20.640        47
20.650        80
20.660        93
20.670       100
20.680        87
20.690        87
20.700        33
20.710        47
20.720       107
20.730       100
20.740       107
20.750       107
20.760        73
20.770       133
20.780       107
20.790       120
20.800        87
20.810        80
20.820        80
20.830       107
20.840       113
20.850       100
20.860        67
20.870        87
20.880        73
20.890        73
20.900       100
20.910       147
20.920        93
20.930        67
20.940        87
20.950       107
20.960        60
20.970        80
20.980        87
20.990       100
21.000        67
21.010        53
21.020        73
21.030       107
21.040        60
21.050       113
21.060       120
21.070       107
21.080        80
21.090       127
21.100        73
21.110        93
21.120        73
21.130        93
21.140        93
21.150       107
21.160       140
21.170       120
21.180        93
21.190        40
21.200        93
21.210        60
21.220        60
21.230       100
21.240       107
21.250        80
21.260        60
21.270        80
21.280        73
21.290        73
21.300        67
21.310        73
21.320       100
21.330        67
21.340        73
21.350       100
21.360       133
21.370       100
21.380        93
21.390       113
21.400        80
21.410       127
21.420        87
21.430       113
21.440       107
21.450        87
21.460        80
21.470        73
21.480        93
21.490        93
21.500        47
21.510       113
21.520        67
21.530        93
21.540       127
21.550       120
21.560        93
21.570        53
21.580       120
21.590       100
21.600       107
21.610        93
21.620        87
21.630       107
21.640        47
21.650        60
21.660       120
21.670        80
21.680        73
21.690       113
21.700       107
21.710       113
21.720       100
21.730        67
21.740       107
21.750        73
21.760        73
21.770       153
21.780        73
21.790        67
21.800        67
21.810       100
21.820       133
21.830       133
21.840        93
21.850       107
21.860        80
21.870       133
21.880       107
21.890        53
21.900        73
21.910       113
21.920        87
21.930       173
21.940       107
21.950       140
21.960       127
21.970       107
21.980       113
21.990       160
22.000        87
22.010       127
22.020       120
22.030        93
22.040       113
22.050       107
22.060       107
22.070       133
22.080       113
22.090       120
22.100       100
22.110        87
22.120       120
22.130       100
22.140       127
22.150       147
22.160       140
22.170        80
22.180       120
22.190        87
22.200       173
22.210       173
22.220       140
22.230       107
22.240       113
22.250        87
22.260       133
22.270       127
22.280       140
22.290       107
22.300        93
22.310       140
22.320       127
22.330       147
22.340       133
22.350       107
22.360       153
22.370       127
22.380       180
22.390       160
22.400       127
22.410       140
22.420       193
22.430       160
22.440       133
22.450       173
22.460       113
22.470       107
22.480       153
22.490        80
22.500       193
22.510       140
22.520       127
22.530       180
22.540       100
22.550        93
22.560       153
22.570       140
22.580       187
22.590       160
22.600       147
22.610       140
22.620       127
22.630       120
22.640       147
22.650       160
22.660       200
22.670       140
22.680       167
22.690       133
22.700       127
22.710       173
22.720       113
22.730       167
22.740       127
22.750        93
22.760       167
22.770       180
22.780       173
22.790        73
22.800        93
22.810       107
22.820       133
22.830       173
22.840       173
22.850       207
22.860       153
22.870       113
22.880       173
22.890       187
22.900       173
22.910       260
22.920       127
22.930       240
22.940       187
22.950       193
22.960       180
22.970       193
22.980       193
22.990       233
23.000       173
23.010       160
23.020       220
23.030       247
23.040       253
23.050       280
23.060       333
23.070       380
23.080       740
23.090      1080
23.100      1160
23.110      1226
23.120      1326
23.130      1273
23.140      1086
23.150       926
23.160       586
23.170       433
23.180       320
23.190       240
23.200       180
23.210       213
23.220       240
23.230       153
23.240       153
23.250       233
23.260       167
23.270       173
23.280       167
23.290       193
23.300       180
23.310       153
23.320        93
23.330       173
23.340       167
23.350       180
23.360       120
23.370       120
23.380       167
23.390       187
23.400       147
23.410       153
23.420       173
23.430       133
23.440       113
23.450       100
23.460       207
23.470       207
23.480       147
23.490       153
23.500       180
23.510       113
23.520       153
23.530       167
23.540       193
23.550       200
23.560       140
23.570       173
23.580       153
23.590       180
23.600       153
23.610       127
23.620       133
23.630       120
23.640       140
23.650       213
23.660       200
23.670       167
23.680       173
23.690       147
23.700       173
23.710       120
23.720       127
23.730       127
23.740       180
23.750       167
23.760       107
23.770       167
23.780       167
23.790       127
23.800       133
23.810       227
23.820       187
23.830       113
23.840       200
23.850       100
23.860       180
23.870       153
23.880       207
23.890       113
23.900       107
23.910       200
23.920       173
23.930       153
23.940       133
23.950       213
23.960       180
23.970       193
23.980       140
23.990       173
24.000       147
24.010       173
24.020       153
24.030       133
24.040       127
24.050       127
24.060       193
24.070       140
24.080       160
24.090       167
24.100       133
24.110       120
24.120       113
24.130       120
24.140       180
24.150       113
24.160       100
24.170       160
24.180        87
24.190       173
24.200       160
24.210       167
24.220        80
24.230       173
24.240       120
24.250       120
24.260       207
24.270       153
24.280       147
24.290       127
24.300       180
24.310       140
24.320       120
24.330       133
24.340       193
24.350       100
24.360       147
24.370       173
24.380       153
24.390       167
24.400       180
24.410        93
24.420       167
24.430       100
24.440       153
24.450       100
24.460       113
24.470       107
24.480       153
24.490       100
24.500       173
24.510       167
24.520       120
24.530       140
24.540       153
24.550       127
24.560       147
24.570       173
24.580       147
24.590       173
24.600       140
24.610       120
24.620       193
24.630       193
24.640       153
24.650       153
24.660       120
24.670       240
24.680       173
24.690       187
24.700       180
24.710       267
24.720       313
24.730       367
24.740       407
24.750       460
24.760       493
24.770       493
24.780       566
24.790       513
24.800       713
24.810       646
24.820       600
24.830       640
24.840       546
24.850       653
24.860       586
24.870       726
24.880       633
24.890       493
24.900       680
24.910       640
24.920       613
24.930       713
24.940       733
24.950       720
24.960       653
24.970       533
24.980       600
24.990       640
25.000       660
25.010       680
25.020       606
25.030       606
25.040       746
25.050       806
25.060       586
25.070       593
25.080       613
25.090       640
25.100       540
25.110       646
25.120       693
25.130       586
25.140       600
25.150       726
25.160       666
25.170       640
25.180       793
25.190       706
25.200       760
25.210       646
25.220       666
25.230       693
25.240       673
25.250       646
25.260       900
25.270       853
25.280       686
25.290       800
25.300       806
25.310       900
25.320       960
25.330      1040
25.340       880
25.350       920
25.360      1146
25.370      1319
25.380      1753
25.390      2199
25.400      2486
25.410      3032
25.420      3445
25.430      4165
25.440      5158
25.450      5758
25.460      6164
25.470      6811
25.480      7844
25.490      8370
25.500      8770
25.510      9743
25.520      9936
25.530     10616
25.540     11709
25.550     13181
25.560     18673
25.570     35839
25.580     66367
25.590    101180
25.600    123391
25.610    136859
25.620    139917
25.630    145435
25.640    146848
25.650    139051
25.660    121818
25.670    100127
25.680     88618
25.690     84146
25.700     82427
25.710     73970
25.720     55844
25.730     34713
25.740     19605
25.750     12355
25.760      9303
25.770      7857
25.780      6671
25.790      5478
25.800      5145
25.810      4118
25.820      3365
25.830      3085
25.840      2679
25.850      2159
25.860      1746
25.870      1533
25.880      1419
25.890      1160
25.900      1266
25.910      1140
25.920      1186
25.930      1033
25.940       986
25.950       993
25.960      1000
25.970      1033
25.980       840
25.990       780
26.000       780
26.010       700
26.020       860
26.030       853
26.040       740
26.050       686
26.060       666
26.070       806
26.080       720
26.090       853
26.100       700
26.110       773
26.120       766
26.130       673
26.140       680
26.150       720
26.160       620
26.170       653
26.180       666
26.190       726
26.200       593
26.210       693
26.220       613
26.230       500
26.240       573
26.250       606
26.260       593
26.270       506
26.280       540
26.290       520
26.300       613
26.310       600
26.320       606
26.330       566
26.340       526
26.350       486
26.360       466
26.370       653
26.380       520
26.390       546
26.400       533
26.410       433
26.420       440
26.430       520
26.440       526
26.450       520
26.460       500
26.470       493
26.480       460
26.490       553
26.500       613
26.510       500
26.520       580
26.530       500
26.540       500
26.550       573
26.560       433
26.570       453
26.580       466
26.590       486
26.600       500
26.610       553
26.620       500
26.630       393
26.640       460
26.650       506
26.660       420
26.670       480
26.680       526
26.690       407
26.700       420
26.710       400
26.720       466
26.730       466
26.740       500
26.750       460
26.760       413
26.770       393
26.780       313
26.790       506
26.800       506
26.810       486
26.820       480
26.830       413
26.840       380
26.850       373
26.860       353
26.870       640
26.880       413
26.890       440
26.900       553
26.910       493
26.920       466
26.930       493
26.940       440
26.950       387
26.960       453
26.970       433
26.980       360
26.990       433
27.000       400
27.010       440
27.020       420
27.030       400
27.040       387
27.050       440
27.060       387
27.070       420
27.080       327
27.090       466
27.100       420
27.110       393
27.120       426
27.130       460
27.140       473
27.150       420
27.160       407
27.170       446
27.180       380
27.190       287
27.200       460
27.210       320
27.220       360
27.230       460
27.240       433
27.250       420
27.260       453
27.270       446
27.280       327
27.290       420
27.300       480
27.310       433
27.320       373
27.330       367
27.340       426
27.350       353
27.360       426
27.370       373
27.380       267
27.390       387
27.400       313
27.410       367
27.420       373
27.430       360
27.440       347
27.450       380
27.460       353
27.470       460
27.480       373
27.490       367
27.500       360
27.510       320
27.520       373
27.530       313
27.540       387
27.550       506
27.560       360
27.570       420
27.580       420
27.590       353
27.600       327
27.610       333
27.620       320
27.630       413
27.640       367
27.650       327
27.660       307
27.670       293
27.680       347
27.690       440
27.700       347
27.710       373
27.720       333
27.730       320
27.740       353
27.750       320
27.760       380
27.770       353
27.780       333
27.790       353
27.800       340
27.810       460
27.820       353
27.830       287
27.840       307
27.850       340
27.860       373
27.870       333
27.880       426
27.890       367
27.900       347
27.910       280
27.920       460
27.930       313
27.940       273
27.950       340
27.960       280
27.970       420
27.980       393
27.990       340
28.000       340
28.010       407
28.020       300
28.030       307
28.040       393
28.050       307
28.060       313
28.070       280
28.080       373
28.090       393
28.100       347
28.110       407
28.120       300
28.130       367
28.140       353
28.150       280
28.160       280
28.170       233
28.180       280
28.190       320
28.200       333
28.210       300
28.220       347
28.230       287
28.240       413
28.250       313
28.260       340
28.270       273
28.280       367
28.290       293
28.300       320
28.310       287
28.320       280
28.330       373
28.340       367
28.350       253
28.360       313
28.370       307
28.380       333
28.390       340
28.400       313
28.410       360
28.420       307
28.430       307
28.440       333
28.450       287
28.460       280
28.470       307
28.480       320
28.490       333
28.500       313
28.510       320
28.520       367
28.530       273
28.540       367
28.550       300
28.560       240
28.570       300
28.580       333
28.590       313
28.600       360
28.610       247
28.620       287
28.630       333
28.640       320
28.650       347
28.660       247
28.670       300
28.680       327
28.690       307
28.700       307
28.710       180
28.720       393
28.730       213
28.740       367
28.750       293
28.760       240
28.770       300
28.780       347
28.790       333
28.800       313
28.810       327
28.820       287
28.830       273
28.840       247
28.850       333
28.860       267
28.870       287
28.880       353
28.890       327
28.900       227
28.910       200
28.920       333
28.930       253
28.940       287
28.950       313
28.960       293
28.970       273
28.980       293
28.990       267
29.000       320
29.010       227
29.020       307
29.030       307
29.040       247
29.050       367
29.060       273
29.070       293
29.080       313
29.090       207
29.100       180
29.110       253
29.120       327
29.130       267
29.140       327
29.150       233
29.160       287
29.170       273
29.180       273
29.190       273
29.200       327
29.210       320
29.220       233
29.230       247
29.240       220
29.250       253
29.260       353
29.270       280
29.280       280
29.290       327
29.300       360
29.310       353
29.320       267
29.330       273
29.340       240
29.350       327
29.360       260
29.370       307
29.380       287
29.390       287
29.400       280
29.410       193
29.420       313
29.430       260
29.440       320
29.450       253
29.460       307
29.470       327
29.480       247
29.490       247
29.500       300
29.510       293
29.520       247
29.530       293
29.540       280
29.550       207
29.560       313
29.570       247
29.580       213
29.590       260
29.600       313
29.610       247
29.620       193
29.630       327
29.640       253
29.650       247
29.660       273
29.670       247
29.680       287
29.690       200
29.700       200
29.710       207
29.720       260
29.730       253
29.740       273
29.750       287
29.760       227
29.770       240
29.780       247
29.790       273
29.800       280
29.810       233
29.820       227
29.830       287
29.840       207
29.850       207
29.860       260
29.870       140
29.880       260
29.890       240
29.900       260
29.910       340
29.920       280
29.930       260
29.940       273
29.950       240
29.960       280
29.970       287
29.980       247
29.990       220
30.000       227
30.010       287
30.020       180
30.030       187
30.040       227
30.050       213
30.060       253
30.070       287
30.080       307
30.090       380
30.100       253
30.110       253
30.120       273
30.130       253
30.140       167
30.150       227
30.160       267
30.170       200
30.180       287
30.190       280
30.200       273
30.210       173
30.220       260
30.230       247
30.240       200
30.250       247
30.260       287
30.270       253
30.280       193
30.290       220
30.300       253
30.310       193
30.320       293
30.330       273
30.340       253
30.350       227
30.360       207
30.370       193
30.380       153
30.390       220
30.400       227
30.410       193
30.420       227
30.430       167
30.440       187
30.450       200
30.460       287
30.470       240
30.480       233
30.490       247
30.500       240
30.510       267
30.520       133
30.530       240
30.540       233
30.550       200
30.560       133
30.570       153
30.580       227
30.590       267
30.600       213
30.610       240
30.620       247
30.630       293
30.640       207
30.650       247
30.660       187
30.670       233
30.680       187
30.690       247
30.700       160
30.710       213
30.720       167
30.730       213
30.740       140
30.750       247
30.760       153
30.770       300
30.780       240
30.790       240
30.800       180
30.810       207
30.820       200
30.830       240
30.840       180
30.850       207
30.860       267
30.870       227
30.880       207
30.890       233
30.900       160
30.910       260
30.920       147
30.930       213
30.940       247
30.950       207
30.960       227
30.970       173
30.980       287
30.990       233
31.000       233
31.010       200
31.020       273
31.030       167
31.040       187
31.050       207
31.060       247
31.070       247
31.080       200
31.090       267
31.100       193
31.110       233
31.120       233
31.130       193
31.140       173
31.150       200
31.160       193
31.170       167
31.180       153
31.190       187
31.200       220
31.210       173
31.220       187
31.230       193
31.240       220
31.250       160
31.260       233
31.270       147
31.280       127
31.290       207
31.300       187
31.310       227
31.320       113
31.330       207
31.340       153
31.350       213
31.360       160
31.370       147
31.380       227
31.390       147
31.400       213
31.410       220
31.420       173
31.430       133
31.440       273
31.450       160
31.460       247
31.470       147
31.480       167
31.490       167
31.500       207
31.510       260
31.520       160
31.530       147
31.540       173
31.550       240
31.560       233
31.570       233
31.580       200
31.590       167
31.600       220
31.610       260
31.620       213
31.630       187
31.640       173
31.650       247
31.660       147
31.670       220
31.680       193
31.690       207
31.700       180
31.710       267
31.720       173
31.730       220
31.740       207
31.750       233
31.760       253
31.770       253
31.780       247
31.790       200
31.800       233
31.810       240
31.820       287
31.830       253
31.840       220
31.850       280
31.860       287
31.870       287
31.880       313
31.890       280
31.900       273
31.910       227
31.920       347
31.930       380
31.940       313
31.950       260
31.960       320
31.970       267
31.980       293
31.990       353
32.000       353
32.010       480
32.020       360
32.030       380
32.040       520
32.050       433
32.060       420
32.070       400
32.080       466
32.090       526
32.100       506
32.110       473
32.120       593
32.130       473
32.140       700
32.150       640
32.160       626
32.170       633
32.180       746
32.190       586
32.200       853
32.210       680
32.220       893
32.230       833
32.240       793
32.250       833
32.260       913
32.270       993
32.280       793
32.290       966
32.300       906
32.310      1046
32.320       893
32.330       953
32.340       986
32.350       980
32.360      1053
32.370       946
32.380       946
32.390       860
32.400       973
32.410       793
32.420       733
32.430       706
32.440       713
32.450       560
32.460       713
32.470       593
32.480       600
32.490       666
32.500       533
32.510       473
32.520       440
32.530       407
32.540       380
32.550       327
32.560       387
32.570       393
32.580       380
32.590       287
32.600       213
32.610       426
32.620       247
32.630       333
32.640       247
32.650       220
32.660       193
32.670       200
32.680       293
32.690       280
32.700       280
32.710       220
32.720       267
32.730       207
32.740       133
32.750       180
32.760       180
32.770       173
32.780       227
32.790       180
32.800       173
32.810       180
32.820       253
32.830       153
32.840       167
32.850       173
32.860       180
32.870       207
32.880       167
32.890       173
32.900       207
32.910       113
32.920       187
32.930       180
32.940       180
32.950       127
32.960       213
32.970       227
32.980       140
32.990        93
33.000       213
33.010       193
33.020       227
33.030       167
33.040       133
33.050       180
33.060       200
33.070       213
33.080       207
33.090       200
33.100       127
33.110       247
33.120       180
33.130       187
33.140       147
33.150       120
33.160       153
33.170       127
33.180       147
33.190       140
33.200       173
33.210       107
33.220       113
33.230       140
33.240       173
33.250       100
33.260       187
33.270       187
33.280       140
33.290       133
33.300       140
33.310       100
33.320       127
33.330       173
33.340       173
33.350       153
33.360       133
33.370       100
33.380       200
33.390       160
33.400       140
33.410        67
33.420       147
33.430       113
33.440       153
33.450       160
33.460       107
33.470       167
33.480       140
33.490       140
33.500       173
33.510       147
33.520       107
33.530       147
33.540       133
33.550       120
33.560       147
33.570       133
33.580        87
33.590       140
33.600       140
33.610       153
33.620        87
33.630       120
33.640        93
33.650       147
33.660       100
33.670       100
33.680       140
33.690       120
33.700       140
33.710       113
33.720       133
33.730       147
33.740       127
33.750       107
33.760       140
33.770       120
33.780       133
33.790       120
33.800        67
33.810       100
33.820       100
33.830       127
33.840       120
33.850       113
33.860        93
33.870       127
33.880       153
33.890        80
33.900        73
33.910       100
33.920        60
33.930       100
33.940       153
33.950       100
33.960       107
33.970       100
33.980       100
33.990       107
34.000       127
34.010       120
34.020        87
34.030       107
34.040       120
34.050       160
34.060        93
34.070       107
34.080       147
34.090       113
34.100       133
34.110       100
34.120       120
34.130       120
34.140       133
34.150        80
34.160       127
34.170       140
34.180       120
34.190       107
34.200       120
34.210       113
34.220        87
34.230       120
34.240        67
34.250        93
34.260        60
34.270       167
34.280        87
34.290       113
34.300       120
34.310       140
34.320       107
34.330        73
34.340       127
34.350        93
34.360       107
34.370       127
34.380        73
34.390        87
34.400       113
34.410        73
34.420       107
34.430       153
34.440       133
34.450       107
34.460       147
34.470        67
34.480        73
34.490        87
34.500        87
34.510       120
34.520        67
34.530       140
34.540       107
34.550        80
34.560       107
34.570        93
34.580       153
34.590       107
34.600       127
34.610        87
34.620        73
34.630       160
34.640       140
34.650       107
34.660       113
34.670        93
34.680        93
34.690       113
34.700       100
34.710       107
34.720       120
34.730        93
34.740        60
34.750       127
34.760        80
34.770       107
34.780       140
34.790        87
34.800        67
34.810        73
34.820       147
34.830        87
34.840       113
34.850       100
34.860        87
34.870        60
34.880       113
34.890        40
34.900       120
34.910        93
34.920       113
34.930       140
34.940       107
34.950        87
34.960       127
34.970        47
34.980        87
34.990        93
35.000       120
35.010        47
35.020       193
35.030       100
35.040       100
35.050       100
35.060        93
35.070       107
35.080        73
35.090       140
35.100        67
35.110       133
35.120        60
35.130        87
35.140        53
35.150       120
35.160       100
35.170        73
35.180        87
35.190       120
35.200        87
35.210        80
35.220       173
35.230        73
35.240       113
35.250       107
35.260       100
35.270        67
35.280       133
35.290       120
35.300       100
35.310        67
35.320        67
35.330        87
35.340        60
35.350       127
35.360        87
35.370        93
35.380       120
35.390        87
35.400       100
35.410       107
35.420        67
35.430        27
35.440       113
35.450       107
35.460        47
35.470        93
35.480       167
35.490        67
35.500       160
35.510        67
35.520       107
35.530       100
35.540       100
35.550       127
35.560       127
35.570       113
35.580       107
35.590        80
35.600        87
35.610       100
35.620        73
35.630        80
35.640       107
35.650       120
35.660        73
35.670        60
35.680        67
35.690       120
35.700        93
35.710        87
35.720       107
35.730        93
35.740       120
35.750        87
35.760       120
35.770       100
35.780        93
35.790        53
35.800        93
35.810       100
35.820        47
35.830       100
35.840        73
35.850       120
35.860       100
35.870        87
35.880        93
35.890       153
35.900        93
35.910       113
35.920        93
35.930        67
35.940       133
35.950        53
35.960       100
35.970        80
35.980        67
35.990        53
36.000        67
36.010       133
36.020        53
36.030        67
36.040        40
36.050       100
36.060        80
36.070        60
36.080        93
36.090        80
36.100        93
36.110        67
36.120        53
36.130        80
36.140       100
36.150       100
36.160        60
36.170        80
36.180        60
36.190        80
36.200       100
36.210        67
36.220        87
36.230       113
36.240        40
36.250        80
36.260        73
36.270        93
36.280        93
36.290        87
36.300       100
36.310        73
36.320        47
36.330        80
36.340       100
36.350        60
36.360        73
36.370        93
36.380        67
36.390        73
36.400        73
36.410        73
36.420        73
36.430        87
36.440        73
36.450       107
36.460       107
36.470        53
36.480        73
36.490        47
36.500       107
36.510       107
36.520        87
36.530        53
36.540        67
36.550        60
36.560        93
36.570        73
36.580       107
36.590       100
36.600        53
36.610        73
36.620        80
36.630        40
36.640       113
36.650        80
36.660        53
36.670        53
36.680        60
36.690        87
36.700        53
36.710        53
36.720        80
36.730        80
36.740        87
36.750        60
36.760        73
36.770        87
36.780        93
36.790        53
36.800        73
36.810       100
36.820        73
36.830        80
36.840        53
36.850        60
36.860        47
36.870       107
36.880        67
36.890        60
36.900       107
36.910        87
36.920        60
36.930        80
36.940        40
36.950        53
36.960        73
36.970        40
36.980        33
36.990       107
37.000        80
37.010        73
37.020       113
37.030        40
37.040        60
37.050        67
37.060        80
37.070        80
37.080       113
37.090       100
37.100        67
37.110        40
37.120        73
37.130       113
37.140       107
37.150        73
37.160        93
37.170        67
37.180        80
37.190        67
37.200        67
37.210        47
37.220        53
37.230        53
37.240        73
37.250        80
37.260        60
37.270        40
37.280        80
37.290        80
37.300        73
37.310        60
37.320        53
37.330        60
37.340        87
37.350        60
37.360        93
37.370        93
37.380        53
37.390        47
37.400        73
37.410        73
37.420        47
37.430        60
37.440        87
37.450        80
37.460        53
37.470        80
37.480        47
37.490        53
37.500        80
37.510        47
37.520        53
37.530        73
37.540        53
37.550        73
37.560        53
37.570        87
37.580        53
37.590        73
37.600        53
37.610        33
37.620        40
37.630        40
37.640        53
37.650        73
37.660        40
37.670        47
37.680        53
37.690        33
37.700        47
37.710        60
37.720        53
37.730        73
37.740        67
37.750        60
37.760        67
37.770        67
37.780        60
37.790       100
37.800        73
37.810        73
37.820        33
37.830       107
37.840       100
37.850        67
37.860        47
37.870        47
37.880        47
37.890        80
37.900        87
37.910        53
37.920        73
37.930        53
37.940        87
37.950        67
37.960        73
37.970        67
37.980       107
37.990        40
38.000        27
38.010        67
38.020        67
38.030        47
38.040        60
38.050        73
38.060        67
38.070        47
38.080        47
38.090        73
38.100        53
38.110        47
38.120        87
38.130        60
38.140        67
38.150        60
38.160        87
38.170        40
38.180        80
38.190        73
38.200        47
38.210        33
38.220        67
38.230        93
38.240       100
38.250        67
38.260        60
38.270        33
38.280        13
38.290       113
38.300        73
38.310        40
38.320        40
38.330        73
38.340        73
38.350        67
38.360        53
38.370        53
38.380        27
38.390        60
38.400        60
38.410        73
38.420        67
38.430        47
38.440        47
38.450        67
38.460        47
38.470        87
38.480        73
38.490        73
38.500        73
38.510        93
38.520        67
38.530        40
38.540        87
38.550        40
38.560        40
38.570        47
38.580        27
38.590        27
38.600         0
38.610        27
38.620        53
38.630        73
38.640        60
38.650        13
38.660        67
38.670        60
38.680        27
38.690        53
38.700        60
38.710        80
38.720        67
38.730        67
38.740        47
38.750        47
38.760        20
38.770        80
38.780        80
38.790        47
38.800        47
38.810        27
38.820        60
38.830        80
38.840        47
38.850        47
38.860        27
38.870        53
38.880        73
38.890        53
38.900        47
38.910        67
38.920        47
38.930        40
38.940        80
38.950        80
38.960        80
38.970        27
38.980        60
38.990        27
39.000        33
39.010        47
39.020        67
39.030        53
39.040        87
39.050        33
39.060       100
39.070        53
39.080        53
39.090        93
39.100        73
39.110        47
39.120        67
39.130        33
39.140        27
39.150        53
39.160        47
39.170        27
39.180        33
39.190        47
39.200        40
39.210        53
39.220        47
39.230        40
39.240        87
39.250        27
39.260         7
39.270        27
39.280        67
39.290        33
39.300        60
39.310        67
39.320        33
39.330        87
39.340        60
39.350        47
39.360        53
39.370        67
39.380        33
39.390        40
39.400         7
39.410        60
39.420        33
39.430        87
39.440        47
39.450        67
39.460        87
39.470        60
39.480        80
39.490        27
39.500        27
39.510        27
39.520        60
39.530       107
39.540        47
39.550        47
39.560        27
39.570        67
39.580        73
39.590        60
39.600        40
39.610        13
39.620        33
39.630        33
39.640        53
39.650        67
39.660        33
39.670        33
39.680        33
39.690        27
39.700        53
39.710        40
39.720        67
39.730        67
39.740        60
39.750        47
39.760        27
39.770        67
39.780        33
39.790        40
39.800        60
39.810        47
39.820        73
39.830        67
39.840        87
39.850        60
39.860        47
39.870        53
39.880        53
39.890        60
39.900        40
39.910        60
39.920        33
39.930        80
39.940        53
39.950        47
39.960        60
39.970        73
39.980        80
39.990        53
40.000        73
40.010        67
40.020        33
40.030       120
40.040        67
40.050        80
40.060        80
40.070        47
40.080        73
40.090        60
40.100        27
40.110       100
40.120        60
40.130        40
40.140        73
40.150        40
40.160        53
40.170        40
40.180        73
40.190        73
40.200        33
40.210        53
40.220        47
40.230        80
40.240        53
40.250        40
40.260        47
40.270        33
40.280        53
40.290        33
40.300        33
40.310        80
40.320        60
40.330        40
40.340        40
40.350        47
40.360        60
40.370        53
40.380        60
40.390        53
40.400        47
40.410        47
40.420        47
40.430        73
40.440        33
40.450        53
40.460        47
40.470        80
40.480        47
40.490        40
40.500        53
40.510        47
40.520        47
40.530        53
40.540        40
40.550        53
40.560        40
40.570        40
40.580        27
40.590        27
40.600        40
40.610        67
40.620        40
40.630        20
40.640        67
40.650        53
40.660        27
40.670        73
40.680        47
40.690        53
40.700        53
40.710        53
40.720        47
40.730        60
40.740        13
40.750        60
40.760        67
40.770        33
40.780        20
40.790        40
40.800        67
40.810        33
40.820        73
40.830        33
40.840        60
40.850        53
40.860        33
40.870        60
40.880        33
40.890        53
40.900        27
40.910        53
40.920        27
40.930        47
40.940        33
40.950        53
40.960        40
40.970        60
40.980        87
40.990        53
41.000        47
41.010        60
41.020        33
41.030        33
41.040        20
41.050        53
41.060        27
41.070       113
41.080        33
41.090        47
41.100        47
41.110        20
41.120        40
41.130        47
41.140        40
41.150        60
41.160        47
41.170        53
41.180        33
41.190        47
41.200        47
41.210        27
41.220        47
41.230        40
41.240        53
41.250        53
41.260        53
41.270        80
41.280        53
41.290        87
41.300        40
41.310        27
41.320        53
41.330        33
41.340        47
41.350        60
41.360        73
41.370        47
41.380        33
41.390        60
41.400        33
41.410        33
41.420        53
41.430        53
41.440        40
41.450        53
41.460        13
41.470        47
41.480        53
41.490        40
41.500        20
41.510        67
41.520        40
41.530        33
41.540        40
41.550        47
41.560        60
41.570        27
41.580        47
41.590        33
41.600        33
41.610        33
41.620        53
41.630        47
41.640        53
41.650        33
41.660        60
41.670        47
41.680        33
41.690        27
41.700        33
41.710        13
41.720        20
41.730        53
41.740        53
41.750        13
41.760        47
41.770        27
41.780        47
41.790        40
41.800        67
41.810        67
41.820        33
41.830        60
41.840        33
41.850        53
41.860        47
41.870        20
41.880        53
41.890        53
41.900        33
41.910        40
41.920        40
41.930        40
41.940        73
41.950        33
41.960        40
41.970        27
41.980        20
41.990        13
42.000        20
42.010        33
42.020        20
42.030        40
42.040        27
42.050        47
42.060        33
42.070        20
42.080        40
42.090        40
42.100        27
42.110        53
42.120        47
42.130        47
42.140        33
42.150        73
42.160        40
42.170        40
42.180        33
42.190        47
42.200        67
42.210        60
42.220        27
42.230        33
42.240        87
42.250        33
42.260        40
42.270        33
42.280        47
42.290        40
42.300        53
42.310        40
42.320        40
42.330        40
42.340        53
42.350        27
42.360        40
42.370        33
42.380        67
42.390        20
42.400        47
42.410        20
42.420        47
42.430        47
42.440        20
42.450         7
42.460        33
42.470        60
42.480        47
42.490        93
42.500        40
42.510        13
42.520        60
42.530        40
42.540        47
42.550        33
42.560        53
42.570        33
42.580        53
42.590        27
42.600        53
42.610        60
42.620        33
42.630        47
42.640        40
42.650        47
42.660        27
42.670        47
42.680        73
42.690        60
42.700        53
42.710        60
42.720        40
42.730        33
42.740        20
42.750        33
42.760        60
42.770        47
42.780        27
42.790        47
42.800        47
42.810        60
42.820        33
42.830        33
42.840        13
42.850        40
42.860        47
42.870        20
42.880        47
42.890        47
42.900        67
42.910        33
42.920        27
42.930        33
42.940        47
42.950        47
42.960        47
42.970         7
42.980        40
42.990        40
43.000        33
43.010        27
43.020        20
43.030        13
43.040        47
43.050        47
43.060        20
43.070        47
43.080        20
43.090        20
43.100        27
43.110        40
43.120        33
43.130        20
43.140         7
43.150        53
43.160        33
43.170        47
43.180        27
43.190        53
43.200        27
43.210        53
43.220        40
43.230        27
43.240        60
43.250        73
43.260        20
43.270        47
43.280        53
43.290        47
43.300        27
43.310        20
43.320        47
43.330        33
43.340        27
43.350        27
43.360        33
43.370        27
43.380        67
43.390        13
43.400        40
43.410        67
43.420        27
43.430        27
43.440        33
43.450        40
43.460        53
43.470        53
43.480        47
43.490        20
43.500        27
43.510        67
43.520        27
43.530        40
43.540        27
43.550        33
43.560        20
43.570        27
43.580        80
43.590        47
43.600        53
43.610        40
43.620        47
43.630        20
43.640        27
43.650        47
43.660        27
43.670        73
43.680        20
43.690        20
43.700        47
43.710        60
43.720        47
43.730        47
43.740        60
43.750        33
43.760        33
43.770        20
43.780        33
43.790        40
43.800        60
43.810        33
43.820        27
43.830        53
43.840        60
43.850        27
43.860        33
43.870        33
43.880        33
43.890        47
43.900        53
43.910        47
43.920        13
43.930        33
43.940        33
43.950        27
43.960        67
43.970        20
43.980        27
43.990        40
44.000        40
44.010        33
44.020        60
44.030        40
44.040        33
44.050        27
44.060        20
44.070        33
44.080        53
44.090        53
44.100        60
44.110        40
44.120        13
44.130        53
44.140        80
44.150        40
44.160        27
44.170        40
44.180        33
44.190        60
44.200        53
44.210        20
44.220        40
44.230        47
44.240         0
44.250        20
44.260        47
44.270        13
44.280        80
44.290        33
44.300        20
44.310        53
44.320        27
44.330        27
44.340        40
44.350        27
44.360        27
44.370        53
44.380        40
44.390        27
44.400        33
44.410        27
44.420        53
44.430        33
44.440        33
44.450        20
44.460        53
44.470        40
44.480        13
44.490        73
44.500        53
44.510        33
44.520        20
44.530        67
44.540        33
44.550        53
44.560        27
44.570        33
44.580        47
44.590        13
44.600        53
44.610        60
44.620        27
44.630        47
44.640        60
44.650        53
44.660        53
44.670        67
44.680        87
44.690        80
44.700        33
44.710        27
44.720        27
44.730        33
44.740        33
44.750        47
44.760        60
44.770        27
44.780         0
44.790        40
44.800        47
44.810        47
44.820         7
44.830        27
44.840        53
44.850        40
44.860        40
44.870        40
44.880        80
44.890        47
44.900        40
44.910        27
44.920        20
44.930        33
44.940        60
44.950        67
44.960        53
44.970        33
44.980        27
44.990        47
45.000        13
45.010        33
45.020        80
45.030        27
45.040        67
45.050        47
45.060        47
45.070        73
45.080        47
45.090        47
45.100        47
45.110        60
45.120        27
45.130        40
45.140        33
45.150        67
45.160        33
45.170        33
45.180        40
45.190        33
45.200        80
45.210        47
45.220        40
45.230        47
45.240        47
45.250        80
45.260        73
45.270        67
45.280        47
45.290        27
45.300        73
45.310        33
45.320        53
45.330        47
45.340        73
45.350        53
45.360        40
45.370        27
45.380        33
45.390        47
45.400        40
45.410        60
45.420        33
45.430        47
45.440        87
45.450        47
45.460        53
45.470        80
45.480       107
45.490        93
45.500        67
45.510        73
45.520        60
45.530        60
45.540        67
45.550        87
45.560        47
45.570        40
45.580        73
45.590       113
45.600        80
45.610       107
45.620       113
45.630        67
45.640        67
45.650       113
45.660       113
45.670       100
45.680        93
45.690        47
45.700        93
45.710        73
45.720       120
45.730       120
45.740       107
45.750       100
45.760       107
45.770        87
45.780       127
45.790       120
45.800       127
45.810       120
45.820       153
45.830       133
45.840       120
45.850       153
45.860       147
45.870       133
45.880       147
45.890       147
45.900       160
45.910       187
45.920       213
45.930       127
45.940       153
45.950       213
45.960       173
45.970       147
45.980       193
45.990       260
46.000       187
46.010       133
46.020       180
46.030       173
46.040       240
46.050       193
46.060       207
46.070       220
46.080       260
46.090       220
46.100       207
46.110       253
46.120       287
46.130       320
46.140       247
46.150       207
46.160       273
46.170       293
46.180       187
46.190       273
46.200       260
46.210       240
46.220       300
46.230       273
46.240       280
46.250       180
46.260       267
46.270       220
46.280       253
46.290       293
46.300       280
46.310       227
46.320       320
46.330       180
46.340       280
46.350       300
46.360       240
46.370       253
46.380       273
46.390       273
46.400       320
46.410       300
46.420       200
46.430       260
46.440       187
46.450       253
46.460       260
46.470       240
46.480       153
46.490       113
46.500       280
46.510       193
46.520       160
46.530       167
46.540       167
46.550       120
46.560        73
46.570       107
46.580       113
46.590       173
46.600       133
46.610       100
46.620       127
46.630       140
46.640       113
46.650        93
46.660       100
46.670       187
46.680       140
46.690       187
46.700       100
46.710        67
46.720       153
46.730        93
46.740        73
46.750       140
46.760        67
46.770       113
46.780        93
46.790       120
46.800       127
46.810       127
46.820       100
46.830       100
46.840        80
46.850       127
46.860        73
46.870       100
46.880        73
46.890        73
46.900       133
46.910       127
46.920       147
46.930        67
46.940        80
46.950       127
46.960       113
46.970        93
46.980       107
46.990        87
47.000        80
47.010       100
47.020       140
47.030       147
47.040       127
47.050        73
47.060       133
47.070       140
47.080       147
47.090       153
47.100       127
47.110       193
47.120       160
47.130       167
47.140       220
47.150       333
47.160       440
47.170       553
47.180       880
47.190       906
47.200      1013
47.210      1093
47.220      1186
47.230      1220
47.240      1113
47.250       733
47.260       686
47.270       413
47.280       340
47.290       267
47.300       227
47.310       220
47.320       160
47.330        80
47.340       167
47.350        73
47.360       107
47.370       113
47.380        87
47.390       100
47.400        93
47.410       113
47.420        80
47.430        87
47.440       120
47.450        80
47.460        93
47.470        67
47.480       107
47.490        67
47.500        73
47.510        87
47.520        60
47.530        67
47.540        60
47.550        33
47.560        53
47.570        53
47.580        93
47.590        67
47.600        47
47.610        67
47.620        80
47.630       100
47.640        67
47.650        47
47.660        40
47.670        33
47.680        40
47.690        40
47.700        53
47.710        33
47.720        53
47.730        40
47.740        60
47.750       107
47.760        40
47.770        67
47.780        73
47.790        87
47.800        33
47.810        73
47.820        47
47.830        93
47.840        40
47.850        60
47.860        47
47.870        53
47.880        53
47.890        53
47.900        27
47.910        47
47.920        47
47.930        53
47.940        87
47.950        20
47.960        67
47.970        67
47.980        33
47.990        47
48.000        47
48.010        53
48.020        67
48.030        40
48.040        67
48.050        47
48.060        40
48.070        47
48.080        60
48.090        47
48.100        40
48.110        47
48.120        40
48.130        47
48.140        27
48.150        53
48.160        33
48.170        33
48.180        93
48.190        33
48.200        53
48.210        93
48.220        67
48.230        60
48.240        40
48.250        73
48.260        20
48.270        73
48.280        40
48.290        27
48.300        40
48.310        40
48.320        33
48.330        40
48.340        40
48.350        47
48.360        47
48.370        60
48.380        53
48.390        73
48.400        73
48.410        73
48.420        33
48.430        13
48.440        27
48.450        47
48.460        33
48.470        47
48.480        33
48.490        33
48.500        60
48.510        20
48.520        20
48.530        27
48.540        53
48.550        60
48.560        47
48.570        33
48.580        67
48.590        40
48.600        80
48.610        47
48.620        47
48.630        27
48.640        40
48.650        13
48.660        53
48.670        47
48.680        67
48.690        60
48.700        27
48.710        13
48.720        33
48.730        73
48.740        33
48.750        33
48.760        13
48.770        13
48.780        73
48.790        53
48.800        67
48.810        27
48.820        60
48.830        67
48.840        53
48.850        60
48.860        73
48.870        53
48.880        73
48.890        27
48.900        20
48.910        33
48.920        33
48.930        67
48.940        53
48.950        67
48.960        33
48.970        53
48.980        47
48.990        47
49.000        53
49.010        47
49.020        33
49.030        47
49.040        27
49.050        80
49.060        33
49.070        60
49.080        60
49.090        20
49.100        27
49.110        67
49.120        27
49.130        33
49.140        20
49.150        27
49.160        40
49.170         7
49.180        40
49.190        20
49.200        40
49.210        53
49.220        47
49.230        40
49.240        40
49.250        47
49.260        27
49.270        47
49.280        33
49.290        40
49.300        53
49.310        53
49.320        53
49.330        47
49.340        53
49.350        33
49.360        47
49.370        40
49.380        40
49.390        27
49.400        27
49.410        13
49.420        47
49.430        40
49.440        60
49.450        87
49.460        13
49.470        13
49.480        27
49.490        47
49.500        33
49.510        53
49.520        53
49.530        33
49.540        13
49.550        27
49.560        60
49.570        20
49.580        53
49.590        60
49.600        60
49.610        47
49.620        60
49.630        33
49.640        13
49.650        27
49.660        27
49.670        27
49.680        33
49.690        33
49.700        27
49.710        80
49.720        27
49.730        40
49.740        40
49.750        60
49.760        40
49.770        40
49.780        47
49.790        27
49.800        33
49.810        13
49.820        47
49.830        33
49.840        53
49.850        47
49.860        53
49.870        47
49.880        40
49.890        47
49.900        33
49.910        27
49.920        27
49.930        33
49.940        73
49.950        40
49.960        40
49.970        33
49.980        27
49.990        33
50.000        60
50.010        33
50.020        47
50.030        33
50.040        60
50.050        53
50.060        33
50.070        27
50.080        73
50.090        33
50.100        73
50.110        73
50.120        33
50.130        60
50.140        27
50.150        60
50.160        40
50.170        33
50.180        33
50.190        53
50.200        20
50.210        40
50.220        40
50.230        33
50.240        67
50.250        60
50.260        87
50.270        40
50.280         7
50.290        27
50.300        40
50.310        87
50.320        40
50.330        40
50.340        33
50.350        53
50.360        33
50.370        33
50.380        33
50.390        27
50.400        73
50.410        27
50.420        47
50.430        47
50.440        27
50.450        33
50.460        47
50.470        47
50.480        53
50.490        13
50.500        80
50.510        47
50.520        33
50.530        33
50.540        33
50.550        67
50.560        27
50.570       100
50.580        53
50.590        33
50.600        60
50.610        93
50.620        53
50.630        87
50.640        80
50.650        80
50.660        93
50.670       153
50.680       133
50.690       233
50.700       207
50.710       200
50.720       233
50.730       267
50.740       407
50.750       280
50.760       300
50.770       313
50.780       253
50.790       227
50.800       273
50.810       220
50.820       360
50.830       267
50.840       327
50.850       333
50.860       333
50.870       340
50.880       360
50.890       320
50.900       273
50.910       287
50.920       367
50.930       307
50.940       287
50.950       333
50.960       300
50.970       367
50.980       293
50.990       340
51.000       320
51.010       393
51.020       260
51.030       293
51.040       360
51.050       273
51.060       280
51.070       313
51.080       327
51.090       273
51.100       327
51.110       313
51.120       253
51.130       327
51.140       353
51.150       247
51.160       360
51.170       300
51.180       320
51.190       280
51.200       353
51.210       327
51.220       273
51.230       227
51.240       407
51.250       353
51.260       367
51.270       387
51.280       320
51.290       293
51.300       420
51.310       347
51.320       327
51.330       307
51.340       300
51.350       400
51.360       313
51.370       333
51.380       347
51.390       387
51.400       267
51.410       267
51.420       407
51.430       400
51.440       373
51.450       327
51.460       360
51.470       373
51.480       293
51.490       400
51.500       320
51.510       387
51.520       353
51.530       320
51.540       460
51.550       333
51.560       387
51.570       420
51.580       353
51.590       373
51.600       313
51.610       360
51.620       353
51.630       360
51.640       313
51.650       367
51.660       340
51.670       400
51.680       340
51.690       293
51.700       320
51.710       373
51.720       440
51.730       287
51.740       327
51.750       393
51.760       420
51.770       453
51.780       333
51.790       453
51.800       373
51.810       407
51.820       400
51.830       393
51.840       400
51.850       400
51.860       353
51.870       360
51.880       393
51.890       440
51.900       387
51.910       513
51.920       460
51.930       440
51.940       466
51.950       520
51.960       466
51.970       446
51.980       493
51.990       413
52.000       407
52.010       453
52.020       473
52.030       466
52.040       473
52.050       573
52.060       446
52.070       580
52.080       560
52.090       420
52.100       486
52.110       473
52.120       566
52.130       553
52.140       673
52.150       706
52.160       660
52.170       673
52.180       646
52.190       773
52.200       733
52.210       780
52.220       760
52.230      1000
52.240       900
52.250       940
52.260       973
52.270      1066
52.280      1233
52.290      1273
52.300      1539
52.310      1779
52.320      1886
52.330      2326
52.340      2559
52.350      2746
52.360      3439
52.370      3399
52.380      4198
52.390      4512
52.400      5158
52.410      5131
52.420      5671
52.430      6564
52.440      7017
52.450      7384
52.460      7430
52.470      8383
52.480      8683
52.490      9030
52.500     10449
52.510     11935
52.520     13448
52.530     16547
52.540     22291
52.550     37092
52.560     60722
52.570     88731
52.580    115587
52.590    134986
52.600    145928
52.610    150227
52.620    148247
52.630    134220
52.640    110183
52.650     76403
52.660     51113
52.670     36152
52.680     30388
52.690     31841
52.700     41570
52.710     54272
52.720     68026
52.730     79108
52.740     85339
52.750     86146
52.760     83087
52.770     74623
52.780     59030
52.790     42603
52.800     26756
52.810     17446
52.820     12029
52.830      8850
52.840      7597
52.850      6491
52.860      5758
52.870      5518
52.880      4185
52.890      3892
52.900      3292
52.910      2919
52.920      2539
52.930      1979
52.940      1899
52.950      1826
52.960      1533
52.970      1393
52.980      1213
52.990      1126
53.000      1266
53.010      1153
53.020       940
53.030      1073
53.040      1020
53.050      1160
53.060       866
53.070       966
53.080       940
53.090       766
53.100       840
53.110       773
53.120       773
53.130       766
53.140       640
53.150       673
53.160       620
53.170       680
53.180       746
53.190       726
53.200       666
53.210       666
53.220       713
53.230       666
53.240       633
53.250       580
53.260       560
53.270       613
53.280       513
53.290       600
53.300       493
53.310       460
53.320       466
53.330       513
53.340       473
53.350       586
53.360       453
53.370       440
53.380       493
53.390       446
53.400       367
53.410       513
53.420       460
53.430       493
53.440       433
53.450       426
53.460       433
53.470       446
53.480       473
53.490       420
53.500       387
53.510       440
53.520       287
53.530       407
53.540       353
53.550       280
53.560       327
53.570       367
53.580       433
53.590       440
53.600       526
53.610       307
53.620       426
53.630       340
53.640       273
53.650       340
53.660       373
53.670       393
53.680       320
53.690       380
53.700       420
53.710       347
53.720       360
53.730       387
53.740       333
53.750       347
53.760       320
53.770       400
53.780       327
53.790       273
53.800       347
53.810       353
53.820       307
53.830       307
53.840       267
53.850       367
53.860       327
53.870       280
53.880       287
53.890       333
53.900       333
53.910       300
53.920       313
53.930       280
53.940       200
53.950       293
53.960       253
53.970       340
53.980       267
53.990       240
54.000       253
54.010       333
54.020       300
54.030       340
54.040       307
54.050       280
54.060       313
54.070       240
54.080       247
54.090       273
54.100       260
54.110       287
54.120       313
54.130       273
54.140       333
54.150       227
54.160       273
54.170       267
54.180       280
54.190       220
54.200       293
54.210       253
54.220       247
54.230       287
54.240       300
54.250       320
54.260       267
54.270       280
54.280       287
54.290       293
54.300       187
54.310       333
54.320       287
54.330       187
54.340       300
54.350       193
54.360       300
54.370       253
54.380       200
54.390       260
54.400       273
54.410       307
54.420       287
54.430       300
54.440       267
54.450       300
54.460       227
54.470       293
54.480       267
54.490       313
54.500       333
54.510       287
54.520       280
54.530       193
54.540       267
54.550       293
54.560       213
54.570       253
54.580       267
54.590       280
54.600       200
54.610       267
54.620       220
54.630       260
54.640       267
54.650       280
54.660       273
54.670       187
54.680       213
54.690       227
54.700       280
54.710       213
54.720       213
54.730       213
54.740       233
54.750       207
54.760       220
54.770       267
54.780       227
54.790       227
54.800       220
54.810       173
54.820       213
54.830       200
54.840       267
54.850       227
54.860       173
54.870       260
54.880       253
54.890       180
54.900       167
54.910       293
54.920       180
54.930       267
54.940       207
54.950       227
54.960       220
54.970       200
54.980       213
54.990       227
55.000       200
55.010       240
55.020       160
55.030       227
55.040       213
55.050       207
55.060       193
55.070       247
55.080       187
55.090       207
55.100       227
55.110       233
55.120       247
55.130       273
55.140       173
55.150       200
55.160       180
55.170       200
55.180       193
55.190       193
55.200       240
55.210       233
55.220       273
55.230       200
55.240       307
55.250       247
55.260       173
55.270       207
55.280       200
55.290       147
55.300       227
55.310       227
55.320       193
55.330       273
55.340       180
55.350       200
55.360       227
55.370       227
55.380       187
55.390       207
55.400       227
55.410       167
55.420       213
55.430       180
55.440       207
55.450       200
55.460       173
55.470       187
55.480       247
55.490       187
55.500       140
55.510       193
55.520       173
55.530       220
55.540       200
55.550       193
55.560       207
55.570       147
55.580       187
55.590       207
55.600       200
55.610       187
55.620       200
55.630       233
55.640       173
55.650       247
55.660       267
55.670       240
55.680       193
55.690       200
55.700       200
55.710       220
55.720       160
55.730       213
55.740       240
55.750       160
55.760       207
55.770       240
55.780       200
55.790       160
55.800       200
55.810       220
55.820       153
55.830       207
55.840       240
55.850       160
55.860       193
55.870       180
55.880       200
55.890       200
55.900       180
55.910       193
55.920       173
55.930       200
55.940        93
55.950       187
55.960       187
55.970       240
55.980       187
55.990       147
56.000       240
56.010       220
56.020       227
56.030       153
56.040       173
56.050       167
56.060       180
56.070       193
56.080       153
56.090       127
56.100       180
56.110       213
56.120       133
56.130        93
56.140       113
56.150       167
56.160       127
56.170       213
56.180       253
56.190       147
56.200       173
56.210       173
56.220       200
56.230       220
56.240       253
56.250       133
56.260       167
56.270       147
56.280       213
56.290       160
56.300       207
56.310       140
56.320       233
56.330       153
56.340       153
56.350       253
56.360       173
56.370       200
56.380       227
56.390       200
56.400       147
56.410       207
56.420       167
56.430       167
56.440       140
56.450       147
56.460       107
56.470       193
56.480       207
56.490       193
56.500       160
56.510       173
56.520       193
56.530       207
56.540       173
56.550       227
56.560       240
56.570       187
56.580       187
56.590       193
56.600       187
56.610       207
56.620       160
56.630       167
56.640       227
56.650       153
56.660       180
56.670       173
56.680       173
56.690       187
56.700       133
56.710       113
56.720       173
56.730       113
56.740       187
56.750       180
56.760       213
56.770       167
56.780       187
56.790       160
56.800       113
56.810       147
56.820       113
56.830       173
56.840       180
56.850       173
56.860       200
56.870       153
56.880       180
56.890       160
56.900       180
56.910       227
56.920       173
56.930       127
56.940       207
56.950       160
56.960       167
56.970       160
56.980        87
56.990       160
57.000       207
57.010       167
57.020       160
57.030       113
57.040       153
57.050       167
57.060       147
57.070       153
57.080       213
57.090       193
57.100       140
57.110       120
57.120       147
57.130       167
57.140       180
57.150       160
57.160       180
57.170       233
57.180       120
57.190       180
57.200       180
57.210       167
57.220       180
57.230       193
57.240       153
57.250       107
57.260       167
57.270       200
57.280       220
57.290       240
57.300       167
57.310       140
57.320       133
57.330       127
57.340       160
57.350       180
57.360       127
57.370       147
57.380       173
57.390       140
57.400       180
57.410       153
57.420       127
57.430        93
57.440       133
57.450       227
57.460       193
57.470       140
57.480       173
57.490       113
57.500       140
57.510       147
57.520       107
57.530       153
57.540       153
57.550       213
57.560       133
57.570       220
57.580       140
57.590       127
57.600       160
57.610       160
57.620       167
57.630       113
57.640       167
57.650       140
57.660       127
57.670       100
57.680       173
57.690       167
57.700       147
57.710       167
57.720       173
57.730       200
57.740       113
57.750       127
57.760       173
57.770       100
57.780       180
57.790       113
57.800       113
57.810       180
57.820       133
57.830       167
57.840       160
57.850       180
57.860       167
57.870       140
57.880       160
57.890       173
57.900       127
57.910       160
57.920       167
57.930       153
57.940       167
57.950       160
57.960       113
57.970       140
57.980       100
57.990       127
58.000       180
58.010       120
58.020       147
58.030       133
58.040        80
58.050       153
58.060       140
58.070       167
58.080       140
58.090       140
58.100       167
58.110       127
58.120       133
58.130       120
58.140       147
58.150       147
58.160       140
58.170       147
58.180       127
58.190       200
58.200       100
58.210       120
58.220       147
58.230       207
58.240       133
58.250       193
58.260       153
58.270       127
58.280       100
58.290       147
58.300       107
58.310       120
58.320       167
58.330       147
58.340        93
58.350       140
58.360       100
58.370       113
58.380       127
58.390       153
58.400       207
58.410       127
58.420       107
58.430       200
58.440       140
58.450        93
58.460       167
58.470       140
58.480       173
58.490       107
58.500       133
58.510       100
58.520       153
58.530       167
58.540       133
58.550        93
58.560       127
58.570        93
58.580       180
58.590        67
58.600       147
58.610       107
58.620       180
58.630       100
58.640       100
58.650        87
58.660        93
58.670       160
58.680       133
58.690       147
58.700       120
58.710       100
58.720       113
58.730       173
58.740       133
58.750       180
58.760       167
58.770        87
58.780       207
58.790       133
58.800       120
58.810       127
58.820        80
58.830       140
58.840       107
58.850       140
58.860       113
58.870       153
58.880       113
58.890       140
58.900       153
58.910       147
58.920       120
58.930       100
58.940       180
58.950        93
58.960       180
58.970        93
58.980       220
58.990       127
59.000       173
59.010       153
59.020       133
59.030       140
59.040        93
59.050       100
59.060       113
59.070       107
59.080       147
59.090       153
59.100       133
59.110        73
59.120       173
59.130       140
59.140        67
59.150        93
59.160       147
59.170        93
59.180       107
59.190       120
59.200       120
59.210       120
59.220        93
59.230        73
59.240        73
59.250       167
59.260        87
59.270       100
59.280       140
59.290        87
59.300       147
59.310       127
59.320       140
59.330       113
59.340       107
59.350       100
59.360       127
59.370       133
59.380       100
59.390       153
59.400       167
59.410       120
59.420       133
59.430       127
59.440       160
59.450        87
59.460        80
59.470        93
59.480       133
59.490       160
59.500       113
59.510       113
59.520       140
59.530        80
59.540       127
59.550        93
59.560        67
59.570       127
59.580       127
59.590       113
59.600       147
59.610       120
59.620       140
59.630        87
59.640       100
59.650        80
59.660       107
59.670       107
59.680       133
59.690        87
59.700       100
59.710       120
59.720       100
59.730       127
59.740        80
59.750       127
59.760       147
59.770        87
59.780       100
59.790       127
59.800       107
59.810       107
59.820       120
59.830       120
59.840        67
59.850       133
59.860        87
59.870       167
59.880       120
59.890       133
59.900       100
59.910       100
59.920        60
59.930       173
59.940       153
59.950        87
59.960       107
59.970       127
59.980        80
59.990       113
60.000       107
