20.000       107
20.010       120
20.020       133
20.030       127
20.040       100
20.050        47
20.060       173
20.070       173
20.080       140
20.090        60
20.100       147
20.110       127
20.120       153
20.130       193
20.140       113
20.150       187
20.160       107
20.170       147
20.180       147
20.190       153
20.200       127
20.210       100
20.220       173
20.230       140
20.240       107
20.250       133
20.260       160
20.270       100
20.280        93
20.290        73
20.300       107
20.310       133
20.320       127
20.330       167
20.340       127
20.350       100
20.360       127
20.370       140
20.380       160
20.390        73
20.400       160
20.410       187
20.420        87
20.430       120
20.440       113
20.450       147
20.460       113
20.470       207
20.480        93
20.490       133
20.500       100
20.510       147
20.520       113
20.530       147
20.540       113
20.550       113
20.560       140
20.570       107
20.580       180
20.590       113
20.600       160
20.610        80
20.620       133
20.630       120
20.640       107
20.650       167
20.660       140
20.670       140
20.680       167
20.690       100
20.700       120
20.710       147
20.720       127
20.730       153
20.740       120
20.750       127
20.760       160
20.770       113
20.780       147
20.790       100
20.800       160
20.810       173
20.820       120
20.830        87
20.840       140
20.850       180
20.860       113
20.870       153
20.880       133
20.890       153
20.900       147
20.910       100
20.920        93
20.930       160
20.940       173
20.950        53
20.960        93
20.970       187
20.980       160
20.990       113
21.000       120
21.010       147
21.020       153
21.030       160
21.040       113
21.050       100
21.060       120
21.070       173
21.080       127
21.090       107
21.100        73
21.110       220
21.120       127
21.130       167
21.140        73
21.150       153
21.160       180
21.170       153
21.180       120
21.190       180
21.200       133
21.210       187
21.220       127
21.230       193
21.240       120
21.250       113
21.260       140
21.270       133
21.280       140
21.290        87
21.300       127
21.310       140
21.320       107
21.330       160
21.340       153
21.350       113
21.360       140
21.370       160
21.380       133
21.390       133
21.400       120
21.410        93
21.420       153
21.430       127
21.440       147
21.450       220
21.460       173
21.470       120
21.480       160
21.490       127
21.500       160
21.510       140
21.520       100
21.530       200
21.540       167
21.550       100
21.560       147
21.570       127
21.580       133
21.590       153
21.600       153
21.610       140
21.620       167
21.630       113
21.640       100
21.650       147
21.660       160
21.670       160
21.680       167
21.690       107
21.700       207
21.710       127
21.720       173
21.730       120
21.740       133
21.750       147
21.760       127
21.770       153
21.780       213
21.790       187
21.800       173
21.810       187
21.820       113
21.830       140
21.840       120
21.850       187
21.860       147
21.870       173
21.880       173
21.890       140
21.900       113
21.910       133
21.920       127
21.930       133
21.940       113
21.950       187
21.960       167
21.970       147
21.980        87
21.990       153
22.000       140
22.010       153
22.020        87
22.030       160
22.040       213
22.050       160
22.060       133
22.070       140
22.080       147
22.090       133
22.100       187
22.110       187
22.120       133
22.130        67
22.140       133
22.150       120
22.160        80
22.170       107
22.180       167
22.190       127
22.200       113
22.210       120
22.220       147
22.230        87
22.240       120
22.250       167
22.260       120
22.270       120
22.280       127
22.290       127
22.300       120
22.310       147
22.320       140
22.330        87
22.340       127
22.350       153
22.360       140
22.370       187
22.380       140
22.390       160
22.400       127
22.410       133
22.420       193
22.430       140
22.440       173
22.450       140
22.460       207
22.470       187
22.480       187
22.490       220
22.500       207
22.510       187
22.520       127
22.530       207
22.540       267
22.550       173
22.560       213
22.570       207
22.580       160
22.590       260
22.600       260
22.610       247
22.620       373
22.630       373
22.640       333
22.650       440
22.660       360
22.670       367
22.680       407
22.690       387
22.700       440
22.710       480
22.720       546
22.730       513
22.740       473
22.750       500
22.760       453
22.770       473
22.780       440
22.790       500
22.800       387
22.810       327
22.820       420
22.830       313
22.840       340
22.850       360
22.860       220
22.870       407
22.880       300
22.890       347
22.900       160
22.910       327
22.920       340
22.930       227
22.940       327
22.950       200
22.960       240
22.970       247
22.980       267
22.990       247
23.000       153
23.010       220
23.020       220
23.030       307
23.040       187
23.050       300
23.060       446
23.070       460
23.080       753
23.090      1026
23.100      1080
23.110      1220
23.120      1419
23.130      1359
23.140      1240
23.150      1279
23.160       813
23.170       446
23.180       380
23.190       267
23.200       193
23.210       267
23.220       280
23.230       233
23.240       167
23.250       173
23.260       160
23.270       133
23.280       193
23.290       233
23.300       160
23.310       173
23.320       167
23.330       153
23.340       147
23.350       153
23.360       213
23.370       153
23.380       160
23.390       140
23.400       153
23.410       153
23.420       173
23.430       153
23.440       147
23.450       167
23.460       173
23.470       167
23.480       173
23.490       167
23.500       107
23.510       153
23.520       180
23.530       133
23.540       140
23.550       147
23.560       133
23.570       167
23.580       133
23.590       147
23.600       160
23.610       127
23.620       147
23.630        73
23.640       127
23.650       127
23.660       133
23.670       140
23.680       107
23.690       100
23.700       167
23.710       180
23.720       193
23.730       140
23.740       113
23.750       133
23.760       100
23.770       107
23.780       193
23.790       107
23.800       113
23.810       127
23.820       120
23.830       147
23.840       107
23.850       140
23.860       140
23.870       120
23.880       100
23.890       120
23.900       120
23.910       193
23.920       140
23.930       120
23.940       127
23.950       113
23.960       107
23.970       127
23.980       127
23.990       107
24.000        67
24.010       180
24.020        87
24.030        80
24.040       147
24.050       120
24.060       167
24.070        80
24.080       127
24.090       140
24.100       160
24.110       120
24.120       160
24.130        93
24.140       153
24.150       147
24.160       167
24.170       127
24.180        93
24.190       153
24.200       127
24.210       133
24.220        87
24.230       100
24.240       113
24.250       127
24.260       160
24.270        93
24.280       180
24.290       153
24.300       113
24.310       167
24.320       100
24.330       133
24.340       153
24.350       107
24.360       153
24.370       107
24.380       120
24.390       113
24.400       100
24.410       153
24.420       173
24.430       100
24.440        80
24.450       127
24.460       107
24.470       100
24.480        93
24.490       113
24.500       140
24.510        93
24.520       133
24.530       153
24.540       133
24.550       147
24.560       153
24.570       120
24.580        93
24.590       180
24.600       133
24.610       140
24.620       173
24.630       160
24.640       147
24.650       153
24.660       113
24.670       133
24.680       220
24.690       187
24.700       233
24.710       233
24.720       287
24.730       340
24.740       420
24.750       440
24.760       526
24.770       533
24.780       573
24.790       513
24.800       613
24.810       673
24.820       646
24.830       693
24.840       646
24.850       666
24.860       706
24.870       580
24.880       706
24.890       573
24.900       673
24.910       526
24.920       646
24.930       680
24.940       686
24.950       606
24.960       506
24.970       700
24.980       573
24.990       560
25.000       693
25.010       586
25.020       646
25.030       560
25.040       606
25.050       706
25.060       753
25.070       653
25.080       660
25.090       633
25.100       506
25.110       613
25.120       666
25.130       613
25.140       680
25.150       766
25.160       673
25.170       666
25.180       660
25.190       680
25.200       786
25.210       740
25.220       786
25.230       680
25.240       733
25.250       866
25.260       893
25.270       846
25.280       880
25.290       853
25.300       813
25.310       840
25.320       960
25.330       986
25.340      1266
25.350      1373
25.360      1653
25.370      2139
25.380      2332
25.390      3045
25.400      3399
25.410      4158
25.420      4718
25.430      5205
25.440      5658
25.450      6377
25.460      6791
25.470      7330
25.480      8423
25.490      8410
25.500      9403
25.510      9949
25.520      9756
25.530     10922
25.540     11855
25.550     13361
25.560     17880
25.570     32500
25.580     59763
25.590     91743
25.600    117999
25.610    134226
25.620    137398
25.630    141070
25.640    145595
25.650    143689
25.660    128475
25.670    108790
25.680     90890
25.690     84713
25.700     82820
25.710     75516
25.720     58597
25.730     39518
25.740     20645
25.750     10729
25.760      7490
25.770      5385
25.780      4352
25.790      3665
25.800      2965
25.810      2446
25.820      1906
25.830      1853
25.840      1686
25.850      1559
25.860      1386
25.870      1193
25.880      1206
25.890      1126
25.900      1180
25.910      1146
25.920      1126
25.930       986
25.940       980
25.950      1073
25.960       866
25.970       900
25.980       886
25.990       860
26.000       800
26.010       660
26.020       793
26.030       866
26.040       766
26.050       760
26.060       906
26.070       753
26.080       686
26.090       620
26.100       653
26.110       753
26.120       573
26.130       666
26.140       720
26.150       546
26.160       600
26.170       666
26.180       693
26.190       513
26.200       526
26.210       580
26.220       633
26.230       633
26.240       586
26.250       620
26.260       520
26.270       466
26.280       600
26.290       546
26.300       660
26.310       546
26.320       606
26.330       573
26.340       486
26.350       466
26.360       533
26.370       593
26.380       533
26.390       520
26.400       500
26.410       480
26.420       413
26.430       500
26.440       486
26.450       646
26.460       400
26.470       486
26.480       473
26.490       433
26.500       520
26.510       513
26.520       613
26.530       506
26.540       420
26.550       460
26.560       426
26.570       387
26.580       400
26.590       546
26.600       460
26.610       513
26.620       486
26.630       480
26.640       460
26.650       466
26.660       480
26.670       473
26.680       446
26.690       486
26.700       526
26.710       460
26.720       506
26.730       453
26.740       446
26.750       393
26.760       460
26.770       407
26.780       460
26.790       347
26.800       373
26.810       340
26.820       433
26.830       520
26.840       426
26.850       393
26.860       540
26.870       420
26.880       380
26.890       453
26.900       367
26.910       486
26.920       360
26.930       333
26.940       360
26.950       420
26.960       433
26.970       367
26.980       387
26.990       460
27.000       413
27.010       520
27.020       566
27.030       393
27.040       293
27.050       327
27.060       453
27.070       333
27.080       393
27.090       380
27.100       360
27.110       393
27.120       453
27.130       400
27.140       480
27.150       540
27.160       473
27.170       347
27.180       273
27.190       433
27.200       380
27.210       333
27.220       347
27.230       426
27.240       340
27.250       327
27.260       313
27.270       367
27.280       407
27.290       380
27.300       373
27.310       307
27.320       353
27.330       373
27.340       320
27.350       280
27.360       320
27.370       413
27.380       360
27.390       333
27.400       380
27.410       280
27.420       387
27.430       353
27.440       433
27.450       320
27.460       433
27.470       373
27.480       360
27.490       320
27.500       367
27.510       426
27.520       333
27.530       407
27.540       280
27.550       387
27.560       280
27.570       353
27.580       367
27.590       353
27.600       440
27.610       440
27.620       320
27.630       393
27.640       373
27.650       307
27.660       426
27.670       347
27.680       387
27.690       347
27.700       387
27.710       373
27.720       340
27.730       333
27.740       320
27.750       387
27.760       360
27.770       347
27.780       260
27.790       373
27.800       347
27.810       273
27.820       360
27.830       300
27.840       307
27.850       227
27.860       360
27.870       373
27.880       313
27.890       353
27.900       373
27.910       400
27.920       293
27.930       387
27.940       353
27.950       300
27.960       360
27.970       253
27.980       353
27.990       327
28.000       320
28.010       320
28.020       367
28.030       313
28.040       287
28.050       280
28.060       273
28.070       287
28.080       320
28.090       327
28.100       333
28.110       373
28.120       300
28.130       273
28.140       333
28.150       333
28.160       300
28.170       340
28.180       333
28.190       240
28.200       293
28.210       373
28.220       273
28.230       333
28.240       280
28.250       307
28.260       280
28.270       300
28.280       233
28.290       333
28.300       300
28.310       327
28.320       287
28.330       267
28.340       287
28.350       260
28.360       267
28.370       293
28.380       293
28.390       280
28.400       247
28.410       273
28.420       307
28.430       413
28.440       340
28.450       280
28.460       293
28.470       293
28.480       300
28.490       247
28.500       240
28.510       333
28.520       253
28.530       240
28.540       300
28.550       287
28.560       327
28.570       260
28.580       267
28.590       287
28.600       260
28.610       267
28.620       293
28.630       347
28.640       233
28.650       313
28.660       313
28.670       380
28.680       313
28.690       300
28.700       340
28.710       293
28.720       267
28.730       267
28.740       293
28.750       300
28.760       267
28.770       233
28.780       320
28.790       280
28.800       260
28.810       300
28.820       347
28.830       280
28.840       207
28.850       267
28.860       247
28.870       387
28.880       367
28.890       273
28.900       300
28.910       300
28.920       207
28.930       293
28.940       313
28.950       307
28.960       253
28.970       327
28.980       260
28.990       240
29.000       280
29.010       313
29.020       180
29.030       260
29.040       267
29.050       333
29.060       253
29.070       260
29.080       287
29.090       227
29.100       280
29.110       220
29.120       207
29.130       267
29.140       260
29.150       220
29.160       180
29.170       287
29.180       347
29.190       207
29.200       273
29.210       240
29.220       300
29.230       280
29.240       233
29.250       240
29.260       260
29.270       247
29.280       173
29.290       247
29.300       193
29.310       287
29.320       233
29.330       327
29.340       240
29.350       287
29.360       153
29.370       273
29.380       360
29.390       253
29.400       267
29.410       260
29.420       227
29.430       307
29.440       227
29.450       280
29.460       207
29.470       287
29.480       253
29.490       320
29.500       213
29.510       233
29.520       293
29.530       287
29.540       213
29.550       180
29.560       193
29.570       247
29.580       220
29.590       260
29.600       233
29.610       280
29.620       213
29.630       233
29.640       233
29.650       173
29.660       253
29.670       213
29.680       253
29.690       240
29.700       253
29.710       300
29.720       240
29.730       247
29.740       273
29.750       280
29.760       233
29.770       260
29.780       207
29.790       200
29.800       280
29.810       180
29.820       227
29.830       240
29.840       253
29.850       240
29.860       233
29.870       287
29.880       260
29.890       213
29.900       247
29.910       207
29.920       253
29.930       293
29.940       240
29.950       227
29.960       240
29.970       213
29.980       153
29.990       180
30.000       213
30.010       200
30.020       247
30.030       220
30.040       227
30.050       247
30.060       367
30.070       253
30.080       220
30.090       193
30.100       220
30.110       233
30.120       280
30.130       240
30.140       300
30.150       247
30.160       240
30.170       240
30.180       287
30.190       207
30.200       213
30.210       233
30.220       227
30.230       300
30.240       193
30.250       213
30.260       213
30.270       240
30.280       280
30.290       213
30.300       213
30.310       193
30.320       247
30.330       233
30.340       173
30.350       187
30.360       193
30.370       233
30.380       147
30.390       167
30.400       147
30.410       193
30.420       173
30.430       153
30.440       240
30.450       153
30.460       227
30.470       207
30.480       193
30.490       220
30.500       187
30.510       253
30.520       200
30.530       173
30.540       187
30.550       133
30.560       213
30.570       253
30.580       180
30.590       173
30.600       173
30.610       187
30.620       153
30.630       187
30.640       200
30.650       173
30.660       200
30.670       193
30.680       167
30.690       147
30.700       233
30.710       100
30.720       213
30.730       207
30.740       140
30.750       253
30.760       160
30.770       247
30.780       280
30.790       207
30.800       173
30.810       213
30.820       253
30.830       180
30.840       173
30.850       200
30.860       200
30.870       180
30.880       173
30.890       187
30.900       180
30.910       200
30.920       227
30.930       193
30.940       220
30.950       207
30.960       173
30.970       213
30.980       140
30.990       193
31.000       273
31.010       233
31.020       213
31.030       233
31.040       193
31.050       200
31.060       193
31.070       253
31.080       213
31.090       180
31.100       187
31.110       180
31.120       167
31.130       227
31.140       140
31.150       173
31.160       120
31.170       133
31.180       240
31.190       200
31.200       167
31.210       200
31.220       173
31.230       200
31.240       140
31.250       247
31.260       167
31.270       147
31.280       207
31.290       100
31.300       147
31.310       167
31.320       173
31.330       213
31.340       120
31.350       100
31.360       160
31.370       153
31.380       187
31.390       187
31.400       127
31.410       147
31.420       153
31.430       160
31.440       147
31.450       247
31.460       127
31.470       147
31.480       187
31.490       153
31.500       167
31.510       147
31.520       100
31.530       207
31.540       193
31.550       140
31.560       133
31.570       140
31.580       120
31.590       160
31.600       187
31.610       153
31.620       160
31.630       153
31.640       140
31.650       267
31.660       147
31.670       140
31.680       227
31.690       140
31.700       180
31.710       207
31.720       147
31.730       153
31.740       120
31.750        87
31.760       193
31.770       213
31.780       127
31.790       180
31.800       193
31.810       153
31.820       187
31.830       173
31.840       120
31.850       180
31.860       193
31.870       193
31.880       140
31.890       147
31.900       160
31.910       107
31.920       127
31.930       180
31.940       153
31.950        93
31.960       260
31.970       180
31.980       153
31.990       193
32.000       187
32.010       240
32.020       153
32.030       147
32.040       213
32.050       140
32.060       140
32.070       173
32.080       193
32.090       200
32.100       160
32.110       153
32.120       153
32.130       187
32.140       240
32.150       213
32.160       220
32.170       160
32.180       173
32.190       180
32.200       113
32.210       287
32.220       220
32.230       227
32.240       187
32.250       193
32.260       320
32.270       333
32.280       347
32.290       233
32.300       193
32.310       280
32.320       353
32.330       307
32.340       387
32.350       380
32.360       453
32.370       400
32.380       486
32.390       500
32.400       413
32.410       533
32.420       453
32.430       480
32.440       513
32.450       473
32.460       506
32.470       500
32.480       526
32.490       553
32.500       466
32.510       500
32.520       506
32.530       440
32.540       387
32.550       460
32.560       340
32.570       313
32.580       280
32.590       367
32.600       280
32.610       233
32.620       260
32.630       287
32.640       233
32.650       273
32.660       180
32.670       213
32.680       200
32.690       247
32.700       213
32.710       287
32.720       127
32.730       220
32.740       200
32.750       133
32.760       180
32.770       153
32.780       220
32.790       127
32.800       100
32.810       167
32.820       193
32.830       120
32.840        87
32.850       140
32.860       140
32.870       160
32.880       113
32.890       147
32.900       127
32.910       167
32.920       187
32.930       107
32.940       100
32.950       140
32.960       140
32.970       247
32.980       107
32.990       113
33.000       113
33.010       153
33.020       100
33.030       153
33.040        93
33.050       153
33.060       140
33.070       140
33.080       187
33.090        87
33.100       133
33.110       147
33.120       133
33.130       153
33.140       120
33.150       160
33.160       147
33.170       140
33.180       200
33.190        93
33.200       180
33.210        87
33.220       127
33.230       153
33.240       113
33.250       153
33.260       127
33.270        67
33.280       127
33.290       180
33.300       113
33.310       147
33.320        93
33.330       127
33.340       120
33.350       133
33.360       140
33.370       187
33.380       140
33.390        80
33.400       140
33.410        93
33.420       147
33.430        80
33.440       147
33.450       120
33.460       113
33.470       127
33.480       107
33.490       160
33.500        87
33.510       100
33.520       113
33.530       107
33.540        67
33.550       120
33.560       120
33.570       113
33.580       120
33.590        93
33.600       180
33.610       107
33.620       133
33.630       113
33.640       107
33.650       100
33.660       120
33.670       127
33.680       133
33.690       180
33.700       133
33.710       113
33.720       107
33.730        53
33.740       120
33.750       120
33.760       127
33.770       133
33.780        73
33.790       147
33.800       160
33.810        60
33.820        87
33.830        87
33.840        73
33.850       140
33.860       133
33.870        67
33.880       133
33.890       133
33.900       113
33.910       100
33.920       100
33.930        93
33.940       120
33.950       107
33.960       107
33.970       120
33.980       120
33.990       113
34.000       107
34.010        87
34.020       107
34.030       107
34.040       100
34.050        73
34.060       127
34.070        87
34.080       120
34.090       120
34.100       153
34.110        93
34.120        93
34.130        87
34.140        67
34.150        67
34.160       107
34.170       107
34.180       100
34.190       160
34.200        93
34.210        67
34.220        60
34.230       100
34.240        67
34.250        67
34.260        87
34.270       147
34.280       127
34.290       107
34.300       100
34.310        73
34.320        47
34.330       120
34.340       120
34.350       107
34.360        93
34.370       100
34.380       113
34.390        67
34.400        93
34.410        87
34.420        87
34.430       100
34.440       120
34.450       127
34.460        93
34.470        73
34.480       100
34.490        73
34.500        80
34.510        80
34.520       113
34.530       113
34.540       127
34.550        80
34.560       120
34.570        80
34.580       140
34.590        73
34.600        80
34.610       100
34.620       160
34.630       100
34.640        93
34.650        80
34.660        60
34.670        80
34.680        93
34.690       100
34.700        93
34.710       120
34.720       107
34.730       100
34.740        80
34.750       120
34.760       113
34.770        73
34.780        73
34.790        93
34.800       107
34.810        73
34.820        80
34.830       100
34.840        80
34.850        60
34.860        80
34.870        93
34.880       100
34.890        67
34.900        87
34.910       147
34.920       127
34.930       127
34.940       127
34.950        73
34.960       100
34.970       120
34.980       147
34.990        80
35.000       127
35.010        80
35.020       113
35.030       160
35.040        67
35.050        93
35.060       107
35.070       107
35.080        33
35.090        87
35.100       120
35.110       113
35.120        80
35.130       100
35.140        67
35.150        67
35.160        47
35.170       107
35.180        87
35.190       107
35.200        87
35.210       113
35.220        80
35.230        93
35.240        87
35.250       107
35.260       120
35.270        73
35.280        87
35.290        67
35.300        33
35.310       107
35.320        47
35.330       107
35.340        73
35.350        73
35.360        87
35.370        80
35.380        87
35.390        67
35.400       127
35.410        60
35.420       100
35.430        73
35.440        73
35.450        80
35.460        40
35.470       100
35.480        47
35.490        73
35.500        60
35.510        93
35.520        53
35.530        33
35.540       113
35.550       100
35.560        87
35.570        93
35.580        80
35.590        67
35.600        80
35.610        80
35.620        80
35.630        93
35.640        73
35.650       107
35.660        93
35.670        80
35.680        87
35.690       100
35.700        67
35.710        80
35.720        80
35.730        80
35.740       100
35.750        60
35.760       100
35.770       120
35.780        47
35.790        60
35.800        87
35.810       100
35.820       153
35.830        93
35.840        47
35.850        47
35.860       127
35.870        53
35.880       113
35.890        80
35.900        87
35.910        67
35.920       100
35.930        87
35.940       113
35.950        80
35.960        87
35.970        60
35.980       100
35.990        93
36.000        67
36.010        80
36.020        87
36.030       113
36.040        53
36.050       113
36.060        53
36.070        47
36.080        60
36.090        73
36.100       100
36.110        67
36.120        87
36.130        40
36.140        73
36.150        73
36.160        53
36.170        73
36.180        60
36.190        67
36.200        93
36.210        80
36.220       107
36.230        67
36.240        20
36.250        67
36.260        93
36.270        60
36.280       100
36.290        67
36.300        93
36.310        80
36.320        73
36.330        80
36.340       100
36.350        80
36.360        80
36.370        87
36.380        27
36.390        53
36.400        87
36.410        73
36.420       100
36.430        47
36.440        87
36.450        87
36.460        60
36.470        80
36.480        53
36.490        60
36.500        67
36.510        67
36.520        53
36.530        80
36.540        80
36.550        53
36.560        67
36.570        93
36.580        67
36.590        73
36.600        73
36.610        67
36.620        53
36.630        67
36.640        93
36.650        60
36.660        87
36.670        53
36.680        87
36.690        73
36.700        60
36.710        47
36.720        27
36.730        67
36.740        80
36.750        53
36.760        80
36.770        47
36.780        93
36.790        67
36.800        73
36.810        60
36.820        87
36.830        80
36.840        20
36.850        67
36.860        40
36.870        47
36.880        53
36.890        80
36.900        80
36.910        60
36.920        67
36.930        47
36.940        67
36.950        53
36.960        60
36.970        60
36.980        67
36.990        33
37.000        67
37.010        67
37.020        53
37.030        80
37.040        87
37.050        47
37.060        20
37.070        47
37.080        67
37.090        80
37.100        53
37.110        47
37.120        60
37.130        53
37.140        87
37.150        40
37.160        87
37.170        20
37.180        73
37.190        47
37.200        53
37.210        93
37.220        67
37.230        60
37.240        80
37.250        73
37.260        67
37.270        60
37.280        33
37.290        67
37.300        67
37.310        73
37.320        27
37.330        60
37.340        53
37.350        27
37.360        53
37.370        73
37.380        60
37.390        60
37.400        80
37.410        60
37.420        67
37.430        80
37.440        33
37.450        60
37.460        33
37.470        53
37.480        53
37.490        40
37.500        47
37.510        60
37.520       113
37.530        93
37.540        67
37.550        27
37.560        73
37.570        67
37.580        40
37.590        40
37.600        33
37.610        73
37.620        40
37.630        73
37.640        73
37.650        73
37.660        27
37.670        40
37.680        60
37.690        73
37.700        67
37.710        53
37.720        60
37.730        80
37.740        87
37.750        53
37.760        67
37.770        67
37.780        33
37.790        67
37.800        53
37.810        87
37.820        67
37.830        27
37.840        40
37.850        53
37.860        60
37.870        40
37.880        60
37.890        33
37.900        47
37.910        40
37.920        27
37.930        53
37.940        33
37.950        33
37.960        67
37.970        13
37.980        47
37.990        60
38.000        53
38.010        73
38.020        13
38.030        80
38.040        73
38.050        53
38.060        67
38.070        20
38.080        33
38.090        40
38.100        60
38.110        47
38.120        33
38.130        87
38.140        60
38.150        67
38.160        33
38.170        73
38.180        47
38.190        73
38.200        47
38.210        67
38.220        33
38.230        33
38.240        40
38.250        80
38.260        53
38.270        73
38.280        47
38.290        40
38.300        53
38.310        47
38.320        73
38.330        47
38.340        67
38.350        33
38.360        53
38.370       100
38.380        53
38.390        53
38.400        27
38.410        53
38.420        53
38.430        47
38.440        47
38.450        93
38.460        33
38.470        33
38.480        20
38.490        20
38.500        67
38.510        33
38.520        73
38.530        53
38.540        27
38.550        20
38.560        40
38.570        73
38.580        67
38.590        40
38.600        40
38.610        20
38.620        60
38.630        47
38.640        13
38.650         7
38.660        40
38.670        33
38.680        80
38.690        67
38.700        33
38.710         7
38.720        73
38.730        27
38.740        33
38.750        40
38.760        20
38.770        47
38.780        47
38.790        87
38.800        40
38.810        67
38.820        13
38.830        47
38.840         7
38.850        60
38.860        40
38.870        47
38.880        67
38.890        27
38.900        40
38.910        40
38.920        53
38.930        47
38.940        33
38.950        40
38.960        33
38.970        47
38.980        33
38.990        47
39.000        47
39.010        47
39.020        53
39.030        40
39.040        33
39.050        13
39.060        60
39.070        47
39.080        40
39.090        33
39.100        33
39.110        47
39.120        60
39.130        47
39.140        33
39.150        27
39.160        53
39.170        53
39.180        73
39.190        53
39.200        60
39.210        67
39.220        27
39.230        73
39.240        67
39.250        67
39.260        47
39.270        27
39.280        20
39.290        67
39.300        67
39.310        13
39.320        33
39.330        33
39.340        93
39.350        47
39.360        27
39.370        33
39.380        27
39.390        13
39.400        60
39.410        13
39.420        40
39.430        20
39.440        53
39.450        40
39.460        27
39.470        27
39.480        33
39.490        40
39.500        60
39.510        20
39.520        33
39.530        20
39.540        27
39.550        40
39.560        40
39.570        67
39.580        53
39.590        67
39.600        60
39.610         7
39.620        47
39.630        33
39.640        47
39.650        53
39.660        33
39.670         7
39.680        40
39.690        73
39.700        27
39.710        40
39.720        33
39.730        53
39.740        40
39.750        53
39.760        87
39.770        40
39.780        47
39.790        53
39.800        33
39.810        67
39.820        80
39.830        27
39.840        47
39.850        33
39.860        73
39.870        20
39.880        80
39.890        47
39.900        80
39.910        67
39.920        67
39.930        87
39.940       107
39.950        87
39.960        73
39.970        40
39.980        60
39.990        73
40.000        93
40.010        80
40.020        93
40.030        93
40.040        93
40.050        53
40.060       113
40.070        87
40.080        67
40.090       120
40.100        67
40.110        80
40.120        80
40.130        73
40.140       100
40.150        40
40.160       100
40.170        53
40.180        27
40.190        60
40.200        47
40.210        67
40.220        60
40.230        40
40.240        33
40.250        73
40.260        47
40.270        27
40.280        47
40.290        53
40.300        33
40.310        40
40.320        47
40.330        33
40.340        73
40.350        53
40.360        20
40.370        33
40.380        73
40.390        53
40.400        53
40.410        47
40.420        67
40.430        20
40.440        47
40.450        47
40.460        33
40.470        20
40.480        40
40.490        13
40.500        33
40.510        27
40.520        47
40.530        33
40.540        73
40.550        20
40.560        53
40.570        53
40.580        53
40.590        40
40.600        47
40.610        67
40.620        53
40.630        80
40.640        33
40.650        27
40.660        13
40.670        13
40.680        20
40.690        47
40.700        33
40.710        40
40.720        40
40.730        40
40.740        67
40.750        40
40.760        40
40.770        47
40.780        53
40.790        27
40.800        33
40.810        27
40.820        73
40.830        53
40.840        33
40.850        47
40.860        40
40.870        27
40.880        73
40.890        27
40.900        33
40.910        13
40.920         7
40.930         7
40.940        33
40.950        53
40.960        53
40.970        40
40.980        33
40.990        67
41.000        47
41.010        13
41.020        20
41.030        53
41.040        20
41.050        53
41.060        33
41.070        53
41.080        47
41.090        60
41.100        73
41.110        33
41.120        27
41.130        60
41.140        33
41.150        47
41.160        27
41.170        13
41.180        13
41.190        27
41.200        67
41.210         7
41.220        47
41.230        27
41.240        33
41.250        33
41.260        47
41.270        40
41.280        27
41.290        33
41.300        60
41.310        47
41.320        40
41.330        33
41.340        20
41.350        40
41.360        53
41.370        33
41.380        20
41.390        33
41.400        40
41.410        40
41.420        60
41.430        33
41.440        33
41.450        40
41.460        33
41.470        47
41.480        60
41.490        40
41.500        67
41.510        60
41.520        93
41.530        27
41.540        60
41.550        33
41.560        67
41.570        80
41.580        53
41.590        80
41.600        80
41.610        53
41.620        73
41.630        47
41.640        40
41.650        27
41.660        47
41.670        53
41.680        53
41.690        53
41.700        40
41.710        47
41.720        40
41.730        53
41.740        73
41.750        33
41.760        53
41.770        20
41.780        27
41.790        47
41.800        73
41.810        27
41.820        80
41.830        53
41.840        53
41.850       107
41.860        87
41.870        60
41.880        33
41.890        27
41.900        20
41.910        27
41.920        53
41.930        33
41.940        47
41.950        40
41.960        67
41.970        47
41.980        40
41.990        53
42.000        67
42.010        47
42.020        60
42.030        27
42.040        53
42.050        33
42.060        33
42.070        20
42.080        27
42.090        93
42.100        33
42.110        40
42.120        33
42.130        27
42.140        40
42.150        33
42.160        40
42.170        60
42.180        27
42.190        27
42.200        33
42.210         7
42.220        13
42.230        60
42.240        53
42.250         7
42.260        53
42.270        53
42.280        33
42.290        33
42.300        27
42.310        53
42.320        33
42.330        47
42.340        40
42.350        33
42.360        33
42.370        67
42.380        47
42.390        33
42.400        13
42.410        47
42.420        67
42.430        13
42.440        73
42.450        33
42.460        53
42.470        40
42.480        53
42.490        13
42.500         0
42.510        67
42.520        47
42.530        27
42.540        27
42.550        20
42.560        27
42.570         7
42.580        40
42.590        40
42.600        60
42.610        40
42.620        47
42.630        47
42.640        47
42.650        40
42.660        47
42.670        33
42.680        60
42.690        47
42.700        33
42.710        47
42.720        40
42.730        27
42.740        80
42.750        13
42.760        27
42.770        20
42.780        27
42.790        40
42.800        33
42.810        40
42.820        40
42.830        67
42.840        33
42.850        47
42.860        53
42.870        40
42.880        40
42.890        40
42.900         7
42.910        33
42.920        40
42.930        53
42.940        40
42.950        27
42.960        20
42.970        20
42.980        40
42.990         0
43.000        27
43.010        33
43.020        27
43.030        27
43.040        27
43.050        27
43.060        27
43.070        47
43.080        33
43.090        27
43.100        73
43.110         7
43.120        40
43.130        20
43.140        47
43.150        60
43.160        40
43.170        53
43.180        20
43.190        40
43.200        20
43.210         0
43.220        40
43.230        33
43.240        47
43.250        13
43.260        47
43.270        33
43.280        47
43.290        27
43.300        20
43.310        33
43.320        40
43.330        53
43.340        33
43.350        27
43.360        47
43.370        40
43.380        53
43.390        13
43.400        47
43.410        20
43.420        27
43.430        33
43.440        13
43.450        47
43.460        27
43.470        33
43.480        67
43.490        53
43.500        40
43.510        20
43.520        27
43.530        33
43.540        27
43.550        53
43.560         0
43.570        27
43.580        33
43.590        27
43.600        47
43.610        53
43.620        20
43.630        40
43.640        27
43.650         0
43.660        73
43.670        27
43.680        33
43.690        27
43.700        73
43.710        20
43.720        20
43.730        47
43.740        20
43.750        60
43.760        27
43.770        33
43.780        20
43.790        20
43.800        27
43.810        40
43.820        53
43.830        33
43.840        53
43.850        27
43.860        27
43.870        13
43.880        33
43.890        27
43.900        73
43.910        40
43.920        40
43.930        20
43.940         7
43.950        20
43.960        20
43.970        40
43.980        47
43.990        33
44.000        47
44.010        73
44.020        40
44.030        20
44.040        13
44.050        73
44.060        47
44.070        27
44.080        27
44.090        53
44.100        27
44.110        33
44.120        60
44.130        33
44.140        20
44.150        33
44.160        20
44.170        33
44.180        33
44.190        27
44.200        40
44.210        33
44.220        33
44.230        33
44.240        27
44.250        40
44.260        20
44.270        53
44.280        33
44.290        20
44.300        47
44.310        40
44.320        47
44.330        27
44.340        47
44.350        67
44.360         0
44.370        27
44.380        20
44.390        40
44.400        53
44.410        27
44.420        33
44.430        27
44.440        47
44.450        33
44.460        27
44.470        20
44.480        67
44.490        40
44.500        60
44.510        67
44.520        40
44.530        20
44.540        60
44.550        27
44.560        67
44.570        53
44.580        40
44.590        27
44.600        40
44.610        20
44.620        13
44.630        20
44.640        47
44.650        40
44.660        73
44.670        53
44.680        53
44.690        47
44.700        60
44.710        27
44.720        73
44.730        53
44.740        67
44.750        67
44.760        73
44.770        80
44.780        20
44.790        67
44.800        60
44.810        93
44.820        47
44.830        53
44.840        80
44.850        20
44.860       107
44.870       100
44.880        67
44.890        27
44.900        47
44.910        60
44.920        73
44.930        47
44.940        80
44.950        60
44.960        93
44.970        80
44.980        60
44.990        60
45.000        53
45.010        67
45.020        47
45.030        73
45.040        80
45.050        47
45.060        53
45.070        67
45.080        73
45.090       100
45.100       100
45.110        53
45.120       107
45.130        73
45.140       100
45.150       107
45.160        67
45.170        80
45.180       133
45.190        87
45.200        33
45.210        67
45.220        60
45.230        53
45.240        80
45.250        93
45.260        60
45.270       120
45.280       100
45.290        73
45.300        73
45.310        47
45.320       100
45.330        93
45.340        73
45.350        93
45.360       100
45.370        87
45.380        93
45.390        87
45.400       100
45.410        60
45.420        80
45.430       133
45.440        93
45.450        60
45.460       100
45.470        87
45.480       120
45.490       100
45.500        60
45.510       153
45.520       120
45.530       120
45.540        93
45.550       133
45.560       127
45.570       113
45.580        93
45.590       140
45.600       153
45.610       187
45.620       160
45.630       167
45.640       193
45.650       200
45.660       153
45.670       187
45.680       247
45.690       127
45.700       113
45.710       193
45.720       293
45.730       233
45.740       267
45.750       227
45.760       260
45.770       247
45.780       180
45.790       220
45.800       300
45.810       287
45.820       300
45.830       287
45.840       267
45.850       353
45.860       313
45.870       353
45.880       413
45.890       360
45.900       380
45.910       353
45.920       360
45.930       446
45.940       426
45.950       493
45.960       420
45.970       540
45.980       580
45.990       580
46.000       766
46.010       726
46.020       626
46.030       840
46.040       786
46.050       966
46.060       920
46.070      1106
46.080       966
46.090      1033
46.100      1126
46.110      1206
46.120      1453
46.130      1453
46.140      1393
46.150      1466
46.160      1873
46.170      1586
46.180      1853
46.190      2026
46.200      1986
46.210      1973
46.220      2379
46.230      2239
46.240      2486
46.250      2479
46.260      2659
46.270      2852
46.280      3139
46.290      2819
46.300      3385
46.310      3352
46.320      3325
46.330      3459
46.340      3605
46.350      3832
46.360      3938
46.370      3772
46.380      4138
46.390      3965
46.400      3818
46.410      4172
46.420      4158
46.430      3998
46.440      3872
46.450      4232
46.460      4298
46.470      3985
46.480      3885
46.490      4052
46.500      3539
46.510      3632
46.520      3559
46.530      3625
46.540      3539
46.550      3205
46.560      3372
46.570      3065
46.580      2812
46.590      2692
46.600      2786
46.610      2679
46.620      2699
46.630      2092
46.640      2239
46.650      2199
46.660      1973
46.670      1806
46.680      1846
46.690      1733
46.700      1613
46.710      1473
46.720      1506
46.730      1326
46.740      1140
46.750      1180
46.760      1140
46.770      1026
46.780       940
46.790       980
46.800       933
46.810       973
46.820       766
46.830       833
46.840       793
46.850       613
46.860       606
46.870       666
46.880       486
46.890       533
46.900       500
46.910       493
46.920       446
46.930       466
46.940       387
46.950       367
46.960       333
46.970       486
46.980       466
46.990       420
47.000       320
47.010       347
47.020       393
47.030       320
47.040       360
47.050       320
47.060       353
47.070       293
47.080       367
47.090       353
47.100       307
47.110       327
47.120       320
47.130       347
47.140       380
47.150       400
47.160       453
47.170       553
47.180       686
47.190       933
47.200      1206
47.210       866
47.220      1146
47.230      1073
47.240       853
47.250       853
47.260       553
47.270       340
47.280       407
47.290       287
47.300       267
47.310       233
47.320       213
47.330       173
47.340       173
47.350       187
47.360       173
47.370       167
47.380       193
47.390       153
47.400       127
47.410       133
47.420       153
47.430       140
47.440       133
47.450       100
47.460       133
47.470       120
47.480       127
47.490       120
47.500        67
47.510       100
47.520        73
47.530       100
47.540       133
47.550        73
47.560       113
47.570        73
47.580        80
47.590       107
47.600       127
47.610       100
47.620       107
47.630        93
47.640       133
47.650        93
47.660        80
47.670        67
47.680       120
47.690        87
47.700        93
47.710        53
47.720        47
47.730        60
47.740        67
47.750        33
47.760        67
47.770       113
47.780        67
47.790       120
47.800        93
47.810       107
47.820        93
47.830        73
47.840        73
47.850        73
47.860       107
47.870        93
47.880        87
47.890        60
47.900        40
47.910        87
47.920        80
47.930        47
47.940        67
47.950        73
47.960        67
47.970        47
47.980        47
47.990        33
48.000        67
48.010        93
48.020       107
48.030         7
48.040        80
48.050        73
48.060        73
48.070        67
48.080        53
48.090        40
48.100        33
48.110        53
48.120        60
48.130        47
48.140        53
48.150        53
48.160        60
48.170        67
48.180        33
48.190        33
48.200        60
48.210        73
48.220        53
48.230       120
48.240        53
48.250        40
48.260        53
48.270        60
48.280        67
48.290        40
48.300        40
48.310        53
48.320        20
48.330        60
48.340        47
48.350       113
48.360        67
48.370        87
48.380        47
48.390        60
48.400        33
48.410        60
48.420        53
48.430        47
48.440        60
48.450        87
48.460        67
48.470        33
48.480        27
48.490        47
48.500        60
48.510        40
48.520        33
48.530        87
48.540        33
48.550        47
48.560        73
48.570        20
48.580        53
48.590        87
48.600        80
48.610        67
48.620        80
48.630        47
48.640        73
48.650        53
48.660        67
48.670        47
48.680        73
48.690        33
48.700        40
48.710        33
48.720        27
48.730        47
48.740        53
48.750        67
48.760        47
48.770        33
48.780        67
48.790        60
48.800        60
48.810        47
48.820        93
48.830        40
48.840        47
48.850        60
48.860        47
48.870        67
48.880        47
48.890        40
48.900        73
48.910        40
48.920        60
48.930        53
48.940        40
48.950        87
48.960        27
48.970        20
48.980        27
48.990        27
49.000        27
49.010        47
49.020        47
49.030        40
49.040        47
49.050        47
49.060        40
49.070        67
49.080        67
49.090        40
49.100        27
49.110        40
49.120        33
49.130        67
49.140        53
49.150        33
49.160        27
49.170        40
49.180        60
49.190        20
49.200        80
49.210        33
49.220        67
49.230        60
49.240        60
49.250        27
49.260        53
49.270        40
49.280        40
49.290        27
49.300        40
49.310        60
49.320        33
49.330        53
49.340        33
49.350        53
49.360        33
49.370        53
49.380        27
49.390        60
49.400        47
49.410        93
49.420        67
49.430        53
49.440        67
49.450        67
49.460        47
49.470        67
49.480        53
49.490        40
49.500        87
49.510        27
49.520        33
49.530        47
49.540        67
49.550        40
49.560        40
49.570        27
49.580        53
49.590        47
49.600        87
49.610        47
49.620        33
49.630        47
49.640        40
49.650        47
49.660        67
49.670        87
49.680        73
49.690        27
49.700        33
49.710        53
49.720        40
49.730        13
49.740        80
49.750        53
49.760        47
49.770        53
49.780        80
49.790        67
49.800        27
49.810        20
49.820        33
49.830        27
49.840        73
49.850        60
49.860        47
49.870        40
49.880        60
49.890        60
49.900        47
49.910        47
49.920        20
49.930        47
49.940        47
49.950        20
49.960        53
49.970        53
49.980        47
49.990        33
50.000        47
50.010        60
50.020        60
50.030        20
50.040        40
50.050        40
50.060        27
50.070        33
50.080        87
50.090        33
50.100        47
50.110        33
50.120        47
50.130        60
50.140        27
50.150        73
50.160        53
50.170        47
50.180        27
50.190        47
50.200        53
50.210        40
50.220        27
50.230        67
50.240        60
50.250        13
50.260        40
50.270        33
50.280        47
50.290        40
50.300        40
50.310        67
50.320        80
50.330        33
50.340        27
50.350        40
50.360        20
50.370        67
50.380        47
50.390        47
50.400        33
50.410        47
50.420        67
50.430        47
50.440        33
50.450        93
50.460        33
50.470        33
50.480        53
50.490        53
50.500        53
50.510        47
50.520        53
50.530        80
50.540        40
50.550        53
50.560        53
50.570        53
50.580        60
50.590        87
50.600        80
50.610        53
50.620        67
50.630        40
50.640        47
50.650        87
50.660        87
50.670       153
50.680       153
50.690       193
50.700       193
50.710       160
50.720       247
50.730       240
50.740       167
50.750       240
50.760       207
50.770       293
50.780       280
50.790       213
50.800       233
50.810       200
50.820       287
50.830       227
50.840       280
50.850       287
50.860       253
50.870       293
50.880       227
50.890       287
50.900       200
50.910       340
50.920       287
50.930       247
50.940       287
50.950       200
50.960       307
50.970       240
50.980       240
50.990       193
51.000       307
51.010       240
51.020       253
51.030       240
51.040       260
51.050       233
51.060       207
51.070       287
51.080       320
51.090       247
51.100       280
51.110       313
51.120       213
51.130       313
51.140       227
51.150       227
51.160       367
51.170       253
51.180       260
51.190       320
51.200       267
51.210       253
51.220       407
51.230       247
51.240       240
51.250       253
51.260       213
51.270       293
51.280       287
51.290       267
51.300       207
51.310       207
51.320       327
51.330       267
51.340       300
51.350       227
51.360       253
51.370       207
51.380       220
51.390       287
51.400       200
51.410       333
51.420       213
51.430       260
51.440       253
51.450       187
51.460       260
51.470       273
51.480       327
51.490       300
51.500       200
51.510       253
51.520       347
51.530       267
51.540       347
51.550       340
51.560       247
51.570       353
51.580       233
51.590       313
51.600       247
51.610       260
51.620       300
51.630       267
51.640       287
51.650       240
51.660       347
51.670       220
51.680       273
51.690       213
51.700       320
51.710       227
51.720       280
51.730       360
51.740       240
51.750       313
51.760       300
51.770       340
51.780       300
51.790       280
51.800       253
51.810       253
51.820       320
51.830       340
51.840       233
51.850       333
51.860       300
51.870       360
51.880       353
51.890       353
51.900       400
51.910       313
51.920       353
51.930       307
51.940       333
51.950       413
51.960       407
51.970       273
51.980       300
51.990       267
52.000       307
52.010       340
52.020       400
52.030       353
52.040       446
52.050       347
52.060       380
52.070       440
52.080       460
52.090       446
52.100       513
52.110       533
52.120       440
52.130       520
52.140       453
52.150       480
52.160       526
52.170       573
52.180       620
52.190       533
52.200       593
52.210       733
52.220       713
52.230       753
52.240       900
52.250       740
52.260       780
52.270       853
52.280      1146
52.290      1173
52.300      1240
52.310      1399
52.320      1719
52.330      1973
52.340      2539
52.350      2972
52.360      3485
52.370      3792
52.380      4478
52.390      4878
52.400      5045
52.410      5385
52.420      5791
52.430      5924
52.440      6364
52.450      6764
52.460      7057
52.470      7077
52.480      7677
52.490      8170
52.500      9496
52.510     10502
52.520     12042
52.530     15527
52.540     20139
52.550     31521
52.560     50320
52.570     73444
52.580     93056
52.590    107983
52.600    118119
52.610    120052
52.620    115920
52.630    104745
52.640     83647
52.650     59603
52.660     39637
52.670     28142
52.680     24464
52.690     25463
52.700     32140
52.710     42356
52.720     51180
52.730     58836
52.740     63781
52.750     65534
52.760     61642
52.770     56098
52.780     43583
52.790     30628
52.800     19892
52.810     12768
52.820      8990
52.830      6844
52.840      5471
52.850      4292
52.860      3352
52.870      2639
52.880      2432
52.890      1999
52.900      1773
52.910      1473
52.920      1659
52.930      1399
52.940      1393
52.950      1146
52.960       980
52.970      1106
52.980      1166
52.990      1033
53.000       766
53.010       913
53.020       720
53.030       813
53.040       766
53.050       826
53.060       653
53.070       640
53.080       666
53.090       560
53.100       546
53.110       520
53.120       666
53.130       533
53.140       520
53.150       520
53.160       460
53.170       500
53.180       460
53.190       506
53.200       373
53.210       506
53.220       393
53.230       387
53.240       480
53.250       466
53.260       420
53.270       460
53.280       387
53.290       393
53.300       420
53.310       373
53.320       400
53.330       413
53.340       340
53.350       360
53.360       426
53.370       347
53.380       466
53.390       380
53.400       340
53.410       353
53.420       280
53.430       413
53.440       340
53.450       393
53.460       253
53.470       353
53.480       260
53.490       407
53.500       387
53.510       293
53.520       280
53.530       340
53.540       387
53.550       240
53.560       267
53.570       413
53.580       360
53.590       300
53.600       293
53.610       287
53.620       220
53.630       280
53.640       260
53.650       287
53.660       313
53.670       300
53.680       293
53.690       287
53.700       253
53.710       287
53.720       287
53.730       213
53.740       260
53.750       167
53.760       193
53.770       300
53.780       273
53.790       293
53.800       233
53.810       300
53.820       253
53.830       200
53.840       193
53.850       193
53.860       193
53.870       287
53.880       207
53.890       193
53.900       207
53.910       220
53.920       220
53.930       233
53.940       180
53.950       220
53.960       293
53.970       153
53.980       227
53.990       220
54.000       227
54.010       193
54.020       193
54.030       253
54.040       227
54.050       247
54.060       240
54.070       280
54.080       300
54.090       220
54.100       240
54.110       180
54.120       200
54.130       227
54.140       173
54.150       213
54.160       200
54.170       187
54.180       213
54.190       207
54.200       167
54.210       267
54.220       227
54.230       207
54.240       193
54.250       147
54.260       187
54.270       200
54.280       160
54.290       167
54.300       253
54.310       127
54.320       253
54.330       140
54.340       287
54.350       253
54.360       127
54.370       127
54.380       200
54.390       193
54.400       187
54.410       187
54.420       113
54.430       207
54.440       233
54.450       207
54.460       140
54.470       160
54.480       207
54.490       187
54.500       233
54.510       240
54.520       180
54.530       167
54.540       160
54.550       200
54.560       133
54.570       200
54.580       187
54.590       227
54.600       187
54.610       180
54.620       173
54.630       173
54.640       187
54.650       227
54.660       240
54.670       153
54.680       180
54.690       160
54.700       120
54.710       213
54.720       220
54.730       147
54.740       147
54.750       127
54.760       247
54.770       133
54.780       127
54.790       140
54.800       187
54.810       193
54.820       153
54.830       160
54.840       173
54.850       120
54.860       200
54.870       180
54.880       220
54.890       213
54.900       180
54.910       147
54.920       187
54.930       147
54.940       147
54.950       107
54.960       167
54.970       160
54.980       160
54.990       140
55.000       187
55.010       180
55.020       173
55.030       113
55.040       160
55.050       153
55.060       173
55.070       193
55.080       167
55.090       227
55.100       233
55.110       207
55.120       113
55.130       187
55.140       167
55.150       153
55.160       153
55.170       173
55.180       167
55.190       153
55.200       187
55.210       133
55.220       213
55.230       133
55.240       120
55.250       220
55.260       133
55.270       120
55.280       127
55.290       107
55.300       120
55.310       173
55.320       167
55.330       160
55.340       173
55.350       113
55.360       153
55.370        73
55.380       113
55.390       147
55.400       180
55.410        87
55.420       133
55.430       167
55.440       100
55.450       187
55.460       167
55.470       180
55.480       200
55.490       180
55.500       147
55.510       167
55.520       187
55.530       153
55.540       173
55.550       127
55.560       160
55.570       187
55.580       147
55.590       227
55.600       107
55.610       167
55.620        93
55.630       120
55.640       147
55.650       173
55.660       140
55.670       167
55.680       120
55.690       133
55.700        93
55.710       193
55.720       160
55.730       120
55.740       147
55.750       180
55.760       167
55.770       153
55.780       127
55.790       160
55.800       133
55.810        73
55.820       100
55.830       120
55.840       213
55.850       147
55.860       140
55.870       113
55.880       133
55.890       213
55.900       133
55.910       180
55.920       127
55.930       207
55.940        87
55.950       127
55.960       140
55.970       160
55.980       127
55.990       120
56.000       140
56.010       140
56.020       160
56.030       207
56.040       160
56.050       113
56.060       100
56.070       187
56.080       153
56.090       173
56.100       180
56.110       200
56.120       180
56.130       120
56.140       140
56.150       167
56.160       127
56.170       147
56.180       140
56.190       107
56.200       120
56.210       147
56.220       127
56.230       160
56.240       147
56.250        80
56.260       153
56.270        93
56.280       120
56.290       140
56.300       167
56.310       153
56.320       153
56.330       113
56.340       153
56.350       153
56.360        80
56.370       113
56.380       173
56.390       147
56.400        73
56.410       160
56.420       160
56.430       100
56.440       207
56.450       160
56.460       173
56.470       153
56.480       140
56.490       133
56.500       153
56.510        73
56.520       147
56.530       120
56.540       127
56.550       167
56.560       107
56.570       113
56.580       187
56.590       133
56.600       147
56.610       160
56.620        87
56.630        87
56.640       120
56.650       167
56.660       187
56.670       140
56.680        80
56.690       113
56.700       100
56.710       200
56.720       147
56.730       153
56.740       113
56.750       107
56.760       100
56.770       187
56.780       147
56.790       113
56.800       100
56.810       133
56.820       167
56.830       120
56.840        87
56.850       127
56.860       127
56.870        93
56.880       113
56.890       153
56.900       107
56.910       140
56.920       127
56.930       113
56.940       140
56.950        93
56.960       127
56.970        67
56.980       133
56.990        87
57.000       107
57.010       127
57.020       113
57.030       133
57.040        67
57.050        87
57.060        80
57.070       140
57.080       120
57.090       180
57.100       133
57.110       153
57.120       153
57.130       120
57.140       147
57.150       113
57.160        73
57.170       113
57.180       120
57.190       133
57.200       100
57.210       113
57.220       133
57.230        87
57.240       140
57.250       113
57.260        80
57.270       147
57.280       127
57.290        67
57.300       113
57.310       153
57.320       120
57.330       113
57.340       127
57.350       100
57.360       120
57.370       107
57.380       113
57.390        73
57.400       127
57.410        87
57.420       133
57.430       180
57.440       180
57.450       120
57.460       107
57.470        80
57.480       100
57.490       113
57.500       127
57.510       127
57.520       100
57.530        93
57.540        87
57.550        93
57.560        93
57.570       140
57.580       140
57.590       100
57.600       107
57.610       127
57.620        93
57.630       100
57.640       107
57.650       140
57.660        87
57.670       147
57.680        73
57.690       113
57.700        93
57.710        93
57.720        80
57.730       100
57.740       127
57.750       113
57.760       147
57.770       113
57.780       147
57.790       113
57.800       100
57.810       113
57.820       140
57.830       107
57.840       133
57.850       113
57.860        93
57.870        73
57.880       120
57.890       100
57.900        60
57.910       127
57.920       120
57.930       100
57.940       140
57.950       100
57.960       100
57.970        87
57.980       167
57.990       107
58.000        87
58.010        73
58.020       120
58.030       120
58.040       120
58.050       113
58.060        93
58.070       113
58.080        80
58.090       120
58.100       127
58.110       120
58.120        53
58.130       127
58.140       100
58.150       100
58.160        87
58.170        87
58.180       113
58.190       107
58.200       160
58.210        60
58.220       100
58.230       113
58.240       160
58.250       133
58.260       147
58.270        60
58.280        87
58.290       100
58.300        93
58.310       120
58.320       113
58.330        73
58.340        93
58.350        80
58.360       100
58.370        87
58.380       133
58.390        80
58.400       140
58.410        87
58.420       107
58.430        80
58.440       120
58.450       140
58.460        93
58.470        87
58.480       107
58.490        73
58.500       120
58.510        80
58.520        93
58.530        60
58.540       107
58.550        87
58.560        73
58.570        87
58.580       113
58.590        53
58.600       100
58.610        87
58.620       107
58.630       113
58.640       147
58.650        53
58.660        93
58.670       120
58.680        67
58.690       187
58.700       100
58.710        60
58.720        73
58.730        93
58.740        47
58.750       133
58.760        93
58.770       140
58.780       120
58.790       147
58.800        67
58.810        93
58.820        73
58.830       100
58.840        93
58.850        87
58.860       100
58.870        87
58.880        80
58.890       113
58.900        67
58.910       127
58.920        40
58.930        87
58.940       113
58.950        73
58.960       113
58.970       120
58.980        73
58.990        87
59.000        93
59.010        67
59.020       133
59.030        80
59.040        93
59.050        87
59.060       113
59.070       153
59.080        60
59.090       107
59.100        93
59.110        87
59.120        67
59.130        60
59.140        93
59.150        73
59.160        80
59.170       147
59.180        80
59.190       113
59.200       107
59.210       107
59.220       100
59.230        53
59.240        80
59.250        93
59.260        80
59.270       113
59.280        87
59.290       100
59.300        67
59.310        87
59.320       140
59.330       113
59.340        40
59.350        73
59.360       140
59.370       100
59.380       113
59.390        73
59.400        53
59.410        40
59.420        73
59.430       107
59.440        60
59.450       140
59.460        53
59.470        60
59.480       107
59.490        67
59.500        93
59.510       107
59.520       100
59.530        80
59.540        53
59.550        80
59.560       107
59.570        53
59.580       147
59.590        67
59.600        53
59.610        87
59.620        73
59.630       107
59.640       100
59.650        80
59.660        87
59.670       127
59.680        87
59.690        80
59.700        87
59.710        60
59.720        93
59.730        93
59.740        73
59.750        67
59.760       120
59.770        53
59.780       107
59.790       107
59.800        73
59.810       100
59.820        73
59.830       100
59.840        47
59.850        80
59.860       133
59.870        93
59.880        67
59.890        80
59.900        60
59.910        53
59.920        93
59.930        73
59.940        53
59.950       120
59.960        93
59.970       100
59.980        20
59.990         0
60.000         0
