20.000        33
20.010        33
20.020        47
20.030        47
20.040        33
20.050        60
20.060        53
20.070        60
20.080        27
20.090        33
20.100        60
20.110        33
20.120        60
20.130        53
20.140        40
20.150        20
20.160        27
20.170        53
20.180        40
20.190        33
20.200        80
20.210        67
20.220        53
20.230        20
20.240        20
20.250        60
20.260        47
20.270        60
20.280        87
20.290        87
20.300        13
20.310        80
20.320        33
20.330        33
20.340        27
20.350        73
20.360        67
20.370        73
20.380        93
20.390        80
20.400        67
20.410        73
20.420        40
20.430        60
20.440        47
20.450        27
20.460        47
20.470        53
20.480        47
20.490        33
20.500        47
20.510        20
20.520        13
20.530        27
20.540        33
20.550        33
20.560        53
20.570        47
20.580        33
20.590        47
20.600        20
20.610        53
20.620        33
20.630        53
20.640        33
20.650        73
20.660        47
20.670        73
20.680        27
20.690        40
20.700        73
20.710        47
20.720        33
20.730        40
20.740        73
20.750        73
20.760        73
20.770        53
20.780        20
20.790        67
20.800        27
20.810        40
20.820        47
20.830        60
20.840        33
20.850        40
20.860        80
20.870        87
20.880        40
20.890        33
20.900        47
20.910        40
20.920        20
20.930        47
20.940        53
20.950        47
20.960        13
20.970        53
20.980        40
20.990        40
21.000        40
21.010        40
21.020        40
21.030        40
21.040        20
21.050        47
21.060        40
21.070        20
21.080        80
21.090        53
21.100        53
21.110         7
21.120        47
21.130        20
21.140        33
21.150        27
21.160        40
21.170        27
21.180        20
21.190        33
21.200        40
21.210        60
21.220        53
21.230        33
21.240        47
21.250        20
21.260        33
21.270        53
21.280        47
21.290        47
21.300        33
21.310        47
21.320        40
21.330        53
21.340        40
21.350        40
21.360        27
21.370        13
21.380        40
21.390        20
21.400        33
21.410        20
21.420        33
21.430        60
21.440        27
21.450        33
21.460        33
21.470        80
21.480        13
21.490        47
21.500        20
21.510        40
21.520        33
21.530        40
21.540        40
21.550        27
21.560        27
21.570        13
21.580        47
21.590        80
21.600        53
21.610        47
21.620        53
21.630        40
21.640        73
21.650        73
21.660        33
21.670        33
21.680        53
21.690        47
21.700        20
21.710        53
21.720        27
21.730        27
21.740        27
21.750        27
21.760        40
21.770        87
21.780        60
21.790        33
21.800        80
21.810        20
21.820        33
21.830        27
21.840        33
21.850        47
21.860        33
21.870        33
21.880        40
21.890        13
21.900        67
21.910        47
21.920        53
21.930        53
21.940        47
21.950        47
21.960        67
21.970        60
21.980        27
21.990        73
22.000        20
22.010        73
22.020        60
22.030        40
22.040        87
22.050        40
22.060        40
22.070        47
22.080        60
22.090        40
22.100        33
22.110        67
22.120        53
22.130         7
22.140        47
22.150        27
22.160        33
22.170        53
22.180        40
22.190        67
22.200        53
22.210        53
22.220        67
22.230        47
22.240        40
22.250        80
22.260        33
22.270        47
22.280        40
22.290        27
22.300        60
22.310        53
22.320        13
22.330        80
22.340        40
22.350        53
22.360         7
22.370         0
22.380        60
22.390        53
22.400        53
22.410        33
22.420        60
22.430        60
22.440        60
22.450        47
22.460        53
22.470        60
22.480        40
22.490        20
22.500        60
22.510        67
22.520        27
22.530        60
22.540        47
22.550        60
22.560        40
22.570        27
22.580        73
22.590        73
22.600        40
22.610        40
22.620        53
22.630        80
22.640        60
22.650        93
22.660        40
22.670        33
22.680        33
22.690        80
22.700        53
22.710        33
22.720        67
22.730        73
22.740        60
22.750        33
22.760        20
22.770        53
22.780        60
22.790        40
22.800        33
22.810        40
22.820        40
22.830        13
22.840        60
22.850        33
22.860        33
22.870        47
22.880        40
22.890        60
22.900        40
22.910        27
22.920        60
22.930        73
22.940        53
22.950        73
22.960        67
22.970        53
22.980        60
22.990        47
23.000        93
23.010        40
23.020        47
23.030        53
23.040        33
23.050        33
23.060        27
23.070        40
23.080        13
23.090        20
23.100        20
23.110        33
23.120        40
23.130        53
23.140        27
23.150        20
23.160        40
23.170        33
23.180        20
23.190        40
23.200        33
23.210        53
23.220        40
23.230        40
23.240        40
23.250        33
23.260        47
23.270        20
23.280        40
23.290        20
23.300        60
23.310        53
23.320        53
23.330        47
23.340        20
23.350        60
23.360        40
23.370        20
23.380        33
23.390        33
23.400        13
23.410        40
23.420        40
23.430        13
23.440        47
23.450        27
23.460        27
23.470        40
23.480        40
23.490        73
23.500        40
23.510        33
23.520        40
23.530        40
23.540        27
23.550        20
23.560        47
23.570        40
23.580        53
23.590        33
23.600        27
23.610        33
23.620        47
23.630        47
23.640        27
23.650        47
23.660        40
23.670        47
23.680        53
23.690        13
23.700        67
23.710        60
23.720        33
23.730        47
23.740        53
23.750        47
23.760        47
23.770        80
23.780        13
23.790        53
23.800        87
23.810        27
23.820        60
23.830        40
23.840        40
23.850        40
23.860        67
23.870        40
23.880        47
23.890        27
23.900       100
23.910        27
23.920        60
23.930        27
23.940        27
23.950        40
23.960        47
23.970        60
23.980        27
23.990        60
24.000        40
24.010        60
24.020        67
24.030        33
24.040        40
24.050        20
24.060        27
24.070        40
24.080        20
24.090        33
24.100        47
24.110        40
24.120        40
24.130        53
24.140        20
24.150        13
24.160        33
24.170        67
24.180        53
24.190        40
24.200        47
24.210        33
24.220        27
24.230        33
24.240        60
24.250        40
24.260        20
24.270        53
24.280        40
24.290        20
24.300        20
24.310        53
24.320        33
24.330        40
24.340        67
24.350        80
24.360        27
24.370        47
24.380        27
24.390        47
24.400        20
24.410        33
24.420        13
24.430        33
24.440        40
24.450        27
24.460        33
24.470        47
24.480        47
24.490        33
24.500        20
24.510        33
24.520        13
24.530        40
24.540        33
24.550        33
24.560        60
24.570        13
24.580        13
24.590        27
24.600        47
24.610        27
24.620        40
24.630        27
24.640        60
24.650        13
24.660        47
24.670        67
24.680        33
24.690         7
24.700        40
24.710        73
24.720        47
24.730        20
24.740        47
24.750        13
24.760        33
24.770        53
24.780        60
24.790        60
24.800        27
24.810        33
24.820        33
24.830        40
24.840        33
24.850        47
24.860        40
24.870        13
24.880        40
24.890        33
24.900        40
24.910        40
24.920        40
24.930        33
24.940        67
24.950        40
24.960        33
24.970        47
24.980        27
24.990        27
25.000        47
25.010        20
25.020        33
25.030        33
25.040        40
25.050        27
25.060        33
25.070        40
25.080        33
25.090        40
25.100        60
25.110        33
25.120        47
25.130        13
25.140        47
25.150        40
25.160        13
25.170        33
25.180        47
25.190        27
25.200        40
25.210        20
25.220        40
25.230        67
25.240        27
25.250        40
25.260         7
25.270        47
25.280        27
25.290        53
25.300        40
25.310        40
25.320        47
25.330        80
25.340        53
25.350        53
25.360        73
25.370        67
25.380        60
25.390        80
25.400        87
25.410        20
25.420        93
25.430        73
25.440        73
25.450       120
25.460        67
25.470        87
25.480       113
25.490       120
25.500        67
25.510       113
25.520       107
25.530       213
25.540       187
25.550       260
25.560       247
25.570       426
25.580       360
25.590       367
25.600       420
25.610       387
25.620       367
25.630       353
25.640       280
25.650       253
25.660       280
25.670       240
25.680       200
25.690       153
25.700       160
25.710       147
25.720        33
25.730        47
25.740        27
25.750        53
25.760        53
25.770        33
25.780        53
25.790        27
25.800        53
25.810        13
25.820        80
25.830        40
25.840        53
25.850         7
25.860        27
25.870        47
25.880        60
25.890        27
25.900        27
25.910        33
25.920        33
25.930        40
25.940        40
25.950        33
25.960        33
25.970        60
25.980        40
25.990        47
26.000        20
26.010        47
26.020        53
26.030        13
26.040        20
26.050        33
26.060        53
26.070        47
26.080        33
26.090        33
26.100         0
26.110        40
26.120        20
26.130        33
26.140        67
26.150        53
26.160        27
26.170        47
26.180        27
26.190        40
26.200        13
26.210        20
26.220        53
26.230        40
26.240        33
26.250        33
26.260        40
26.270        53
26.280        27
26.290        33
26.300        40
26.310        40
26.320        33
26.330        13
26.340        33
26.350        13
26.360        53
26.370        40
26.380        33
26.390        53
26.400        60
26.410        40
26.420        60
26.430        13
26.440        33
26.450        27
26.460        27
26.470        27
26.480         7
26.490        27
26.500         0
26.510        27
26.520        47
26.530        20
26.540        33
26.550        33
26.560        27
26.570        47
26.580        20
26.590        40
26.600        40
26.610        13
26.620        53
26.630        33
26.640        40
26.650        60
26.660        53
26.670        13
26.680         7
26.690        47
26.700        47
26.710        33
26.720        27
26.730        13
26.740        33
26.750        53
26.760        27
26.770        40
26.780         7
26.790        20
26.800        33
26.810        40
26.820        27
26.830        40
26.840        47
26.850        47
26.860        53
26.870        27
26.880        40
26.890        47
26.900        13
26.910        53
26.920        33
26.930        60
26.940        27
26.950        20
26.960        20
26.970        13
26.980        60
26.990        20
27.000        40
27.010        20
27.020        47
27.030        33
27.040        33
27.050        40
27.060        40
27.070        47
27.080        40
27.090         7
27.100        33
27.110        33
27.120        47
27.130        13
27.140        40
27.150        13
27.160        33
27.170        20
27.180        33
27.190        20
27.200        27
27.210        60
27.220        27
27.230        33
27.240        13
27.250         7
27.260        80
27.270        33
27.280        13
27.290        53
27.300        20
27.310        20
27.320        53
27.330        27
27.340        73
27.350        20
27.360        33
27.370        20
27.380        47
27.390        40
27.400        40
27.410        13
27.420         7
27.430        40
27.440        20
27.450        40
27.460        27
27.470        27
27.480        20
27.490        27
27.500        40
27.510        20
27.520         7
27.530        40
27.540        47
27.550        33
27.560        13
27.570        33
27.580        33
27.590        20
27.600        27
27.610        33
27.620        40
27.630        33
27.640        20
27.650        13
27.660        33
27.670        33
27.680        33
27.690        40
27.700        27
27.710        33
27.720        13
27.730        33
27.740        40
27.750        20
27.760        53
27.770        33
27.780        47
27.790        33
27.800        13
27.810         7
27.820        33
27.830        27
27.840        27
27.850        40
27.860         7
27.870        27
27.880        40
27.890        40
27.900        60
27.910        33
27.920        27
27.930        13
27.940        27
27.950        53
27.960        27
27.970        40
27.980        27
27.990        20
28.000        33
28.010        13
28.020        53
28.030        40
28.040        20
28.050        40
28.060        67
28.070        33
28.080        13
28.090        47
28.100        27
28.110        27
28.120        13
28.130        40
28.140        33
28.150        20
28.160        20
28.170        40
28.180        27
28.190        13
28.200        53
28.210        20
28.220        40
28.230        20
28.240        47
28.250        33
28.260        60
28.270        20
28.280         7
28.290        27
28.300        27
28.310        40
28.320        47
28.330        20
28.340        33
28.350        47
28.360        13
28.370        20
28.380        20
28.390        27
28.400        20
28.410        47
28.420         0
28.430        47
28.440        40
28.450        20
28.460         0
28.470        33
28.480        73
28.490        20
28.500        27
28.510        40
28.520        40
28.530        13
28.540        27
28.550        13
28.560        33
28.570        20
28.580        53
28.590        20
28.600        27
28.610        33
28.620        20
28.630        20
28.640        27
28.650        13
28.660        53
28.670        33
28.680        40
28.690        27
28.700        33
28.710         7
28.720        53
28.730        40
28.740        53
28.750        27
28.760        27
28.770        47
28.780        33
28.790        20
28.800         0
28.810        67
28.820        47
28.830        13
28.840        20
28.850        27
28.860        33
28.870        27
28.880        47
28.890        20
28.900        20
28.910        47
28.920        27
28.930        33
28.940        20
28.950        13
28.960         7
28.970        20
28.980        13
28.990        13
29.000        20
29.010        60
29.020        33
29.030        67
29.040        33
29.050        13
29.060        20
29.070         0
29.080        33
29.090        33
29.100        33
29.110        20
29.120        47
29.130         7
29.140        20
29.150         7
29.160        40
29.170        60
29.180        47
29.190        20
29.200        13
29.210        40
29.220        20
29.230        33
29.240        20
29.250        27
29.260        20
29.270        27
29.280        47
29.290        13
29.300        20
29.310        33
29.320        40
29.330        27
29.340        27
29.350        20
29.360        13
29.370        13
29.380        53
29.390        60
29.400        13
29.410        20
29.420        13
29.430        60
29.440        47
29.450         7
29.460        20
29.470        47
29.480        33
29.490        27
29.500        27
29.510        27
29.520         0
29.530        33
29.540        27
29.550        47
29.560        80
29.570        27
29.580        40
29.590        27
29.600        20
29.610        33
29.620        33
29.630        40
29.640        53
29.650        33
29.660        40
29.670        27
29.680        33
29.690        27
29.700        27
29.710        47
29.720        33
29.730        13
29.740        33
29.750        33
29.760        27
29.770        20
29.780        13
29.790        33
29.800        27
29.810        20
29.820        13
29.830        33
29.840        40
29.850        47
29.860        27
29.870        47
29.880        33
29.890        20
29.900        27
29.910        33
29.920        20
29.930        27
29.940        27
29.950        33
29.960        33
29.970        27
29.980        20
29.990        20
30.000        33
30.010         7
30.020        27
30.030         7
30.040        20
30.050        27
30.060        33
30.070        27
30.080        33
30.090        33
30.100        27
30.110        27
30.120        27
30.130        40
30.140        13
30.150        20
30.160        40
30.170        47
30.180        27
30.190        67
30.200         7
30.210        27
30.220        27
30.230        53
30.240        27
30.250         7
30.260        20
30.270        33
30.280        40
30.290        13
30.300        27
30.310        40
30.320        47
30.330        33
30.340        13
30.350         7
30.360        33
30.370        20
30.380        33
30.390        40
30.400        27
30.410        47
30.420        13
30.430        40
30.440        27
30.450        27
30.460        27
30.470        27
30.480        20
30.490        47
30.500        33
30.510        27
30.520        40
30.530        40
30.540        33
30.550        27
30.560        20
30.570         7
30.580        53
30.590        47
30.600        40
30.610         7
30.620        27
30.630        27
30.640        27
30.650        40
30.660        60
30.670        13
30.680        53
30.690        53
30.700        20
30.710        60
30.720        13
30.730        13
30.740        33
30.750        40
30.760        47
30.770        53
30.780        20
30.790        47
30.800        20
30.810        27
30.820        33
30.830        40
30.840        20
30.850        27
30.860        27
30.870        47
30.880        40
30.890        53
30.900        27
30.910        47
30.920        33
30.930        27
30.940        47
30.950        40
30.960        40
30.970        47
30.980        33
30.990        33
31.000        27
31.010        27
31.020        40
31.030        13
31.040        27
31.050        20
31.060        27
31.070        40
31.080        20
31.090        27
31.100         7
31.110        33
31.120        40
31.130        27
31.140        13
31.150        20
31.160        20
31.170        20
31.180        40
31.190        20
31.200        53
31.210        33
31.220        33
31.230        33
31.240        27
31.250        33
31.260        13
31.270        33
31.280        13
31.290        20
31.300        20
31.310        47
31.320        60
31.330        27
31.340        20
31.350        40
31.360        60
31.370        47
31.380        53
31.390        33
31.400        47
31.410        27
31.420        20
31.430        53
31.440        60
31.450        27
31.460        40
31.470        60
31.480        33
31.490        60
31.500        27
31.510        13
31.520        33
31.530        20
31.540        47
31.550        27
31.560        13
31.570        60
31.580        47
31.590        40
31.600        20
31.610        33
31.620        60
31.630        53
31.640        47
31.650        27
31.660        47
31.670        20
31.680        33
31.690        20
31.700        33
31.710        33
31.720        20
31.730        40
31.740        67
31.750        33
31.760        33
31.770        53
31.780        53
31.790        53
31.800        60
31.810        60
31.820        67
31.830        47
31.840        20
31.850        67
31.860        47
31.870        20
31.880        47
31.890        40
31.900        93
31.910        80
31.920        40
31.930        67
31.940        87
31.950        47
31.960        73
31.970        27
31.980        87
31.990        40
32.000        73
32.010        53
32.020        73
32.030        80
32.040        67
32.050        60
32.060        93
32.070        53
32.080        87
32.090        73
32.100        87
32.110        87
32.120        93
32.130       107
32.140       140
32.150       173
32.160       147
32.170       167
32.180       160
32.190       200
32.200       127
32.210       187
32.220       187
32.230       147
32.240       153
32.250       167
32.260       127
32.270       180
32.280       153
32.290       187
32.300       160
32.310       207
32.320       173
32.330       167
32.340       200
32.350       173
32.360       140
32.370       133
32.380       113
32.390       160
32.400       173
32.410       160
32.420       153
32.430       113
32.440       120
32.450       113
32.460       160
32.470       113
32.480        80
32.490        93
32.500        60
32.510        73
32.520        93
32.530        93
32.540        93
32.550        60
32.560        67
32.570        67
32.580        73
32.590        47
32.600        47
32.610        87
32.620        53
32.630        47
32.640        27
32.650        27
32.660        13
32.670        33
32.680        67
32.690        47
32.700        67
32.710        47
32.720        80
32.730        47
32.740        73
32.750        67
32.760        33
32.770        27
32.780        27
32.790        47
32.800        47
32.810        20
32.820        33
32.830        60
32.840        53
32.850        33
32.860        33
32.870         7
32.880        13
32.890        40
32.900        27
32.910        20
32.920         7
32.930        20
32.940        73
32.950         0
32.960         7
32.970        13
32.980        33
32.990        13
33.000        40
33.010         7
33.020        13
33.030        40
33.040        20
33.050        33
33.060        40
33.070        33
33.080        20
33.090        20
33.100        40
33.110        33
33.120        53
33.130        33
33.140        60
33.150         7
33.160        20
33.170        47
33.180         0
33.190        53
33.200        27
33.210        40
33.220        53
33.230        40
33.240        27
33.250        67
33.260        33
33.270        20
33.280        40
33.290        27
33.300        20
33.310        33
33.320        27
33.330        27
33.340        33
33.350        27
33.360        27
33.370        40
33.380        47
33.390        33
33.400         7
33.410        20
33.420        40
33.430        40
33.440        27
33.450        40
33.460        13
33.470        33
33.480        20
33.490        40
33.500        60
33.510        33
33.520        27
33.530        60
33.540        20
33.550        13
33.560        53
33.570        20
33.580        33
33.590        13
33.600        53
33.610        33
33.620         7
33.630        20
33.640        33
33.650        20
33.660        20
33.670        27
33.680         0
33.690        13
33.700        20
33.710        13
33.720        13
33.730        13
33.740        53
33.750        27
33.760        20
33.770        20
33.780        27
33.790        60
33.800        27
33.810        40
33.820        47
33.830        53
33.840        20
33.850         7
33.860        40
33.870        27
33.880        20
33.890        47
33.900         7
33.910        47
33.920        27
33.930        40
33.940        20
33.950        20
33.960        20
33.970        33
33.980        20
33.990        73
34.000        40
34.010        40
34.020        27
34.030        40
34.040        27
34.050        40
34.060        27
34.070        33
34.080        27
34.090        13
34.100        33
34.110        13
34.120        47
34.130        20
34.140        13
34.150        80
34.160        40
34.170        40
34.180        27
34.190        20
34.200        27
34.210        53
34.220        40
34.230        47
34.240        33
34.250        27
34.260        33
34.270        33
34.280        20
34.290        27
34.300        47
34.310        13
34.320        27
34.330        33
34.340        47
34.350        27
34.360        20
34.370        27
34.380        13
34.390        33
34.400        20
34.410        20
34.420        13
34.430        27
34.440        60
34.450        40
34.460        47
34.470         7
34.480        53
34.490        33
34.500        47
34.510        53
34.520        33
34.530        20
34.540        20
34.550        33
34.560        27
34.570         7
34.580        27
34.590        20
34.600        27
34.610        27
34.620        33
34.630        47
34.640        33
34.650         7
34.660        47
34.670        20
34.680        13
34.690        27
34.700        40
34.710        27
34.720        33
34.730        40
34.740        13
34.750        20
34.760        40
34.770        33
34.780        27
34.790        53
34.800        13
34.810        20
34.820        40
34.830        33
34.840        40
34.850        27
34.860        47
34.870        33
34.880        27
34.890        40
34.900       107
34.910        40
34.920        13
34.930        67
34.940        47
34.950        67
34.960        47
34.970       153
34.980       120
34.990       127
35.000       107
35.010       107
35.020       127
35.030        93
35.040       127
35.050       167
35.060       173
35.070       133
35.080       187
35.090       220
35.100       213
35.110       293
35.120       426
35.130       473
35.140       566
35.150       626
35.160       826
35.170       773
35.180       780
35.190       766
35.200       786
35.210       600
35.220       493
35.230       466
35.240       580
35.250       440
35.260       493
35.270       313
35.280       307
35.290       313
35.300       233
35.310       267
35.320       193
35.330       147
35.340        73
35.350        53
35.360        60
35.370        80
35.380        60
35.390        47
35.400        40
35.410        33
35.420        27
35.430        40
35.440        20
35.450        27
35.460        60
35.470        20
35.480        20
35.490        47
35.500        27
35.510        27
35.520        27
35.530        13
35.540        20
35.550        20
35.560         7
35.570        40
35.580        40
35.590        13
35.600        20
35.610        20
35.620        27
35.630        20
35.640        40
35.650        27
35.660        20
35.670        33
35.680        13
35.690        47
35.700        13
35.710        53
35.720        27
35.730        13
35.740        33
35.750        20
35.760        27
35.770        13
35.780        47
35.790        33
35.800        20
35.810        40
35.820        33
35.830        33
35.840        27
35.850         7
35.860         7
35.870        27
35.880        20
35.890        20
35.900        27
35.910         7
35.920        33
35.930        13
35.940        20
35.950        27
35.960        27
35.970        53
35.980        33
35.990        53
36.000        20
36.010        27
36.020        40
36.030         7
36.040        27
36.050        27
36.060        33
36.070         7
36.080        20
36.090        40
36.100        33
36.110        13
36.120        20
36.130        27
36.140        40
36.150        33
36.160        27
36.170        40
36.180         7
36.190        27
36.200        47
36.210        20
36.220        20
36.230        13
36.240        33
36.250        20
36.260        33
36.270        13
36.280        40
36.290        40
36.300        47
36.310        33
36.320        27
36.330        40
36.340         7
36.350        20
36.360        40
36.370        67
36.380        27
36.390        40
36.400        40
36.410        13
36.420        27
36.430        20
36.440        20
36.450        20
36.460        33
36.470        27
36.480        47
36.490        33
36.500        13
36.510        20
36.520        13
36.530        20
36.540        47
36.550         0
36.560         7
36.570        13
36.580         7
36.590        53
36.600         0
36.610        47
36.620        20
36.630        13
36.640        13
36.650        13
36.660        27
36.670        40
36.680        27
36.690        40
36.700        20
36.710        33
36.720        13
36.730        33
36.740        27
36.750         7
36.760        20
36.770        13
36.780        20
36.790        13
36.800        20
36.810        13
36.820        33
36.830        13
36.840        13
36.850        40
36.860        40
36.870        27
36.880         7
36.890        27
36.900        27
36.910        33
36.920        27
36.930        53
36.940        13
36.950        40
36.960        33
36.970        27
36.980        40
36.990        20
37.000        27
37.010        20
37.020        20
37.030        20
37.040        20
37.050        13
37.060        40
37.070         7
37.080        20
37.090         7
37.100        20
37.110        47
37.120        53
37.130        27
37.140        20
37.150        27
37.160        27
37.170        33
37.180        13
37.190        20
37.200        13
37.210        20
37.220        27
37.230        27
37.240        33
37.250        20
37.260        20
37.270        27
37.280        27
37.290         7
37.300        13
37.310        33
37.320         0
37.330        27
37.340        20
37.350        27
37.360        20
37.370        27
37.380        27
37.390        13
37.400        33
37.410        40
37.420        20
37.430         7
37.440         7
37.450        27
37.460        33
37.470        20
37.480        20
37.490         7
37.500        13
37.510        13
37.520        33
37.530        33
37.540        27
37.550        20
37.560        47
37.570        53
37.580        33
37.590        13
37.600        67
37.610        33
37.620        40
37.630        80
37.640        67
37.650        80
37.660        93
37.670        80
37.680        67
37.690        87
37.700        27
37.710        93
37.720        93
37.730        93
37.740        80
37.750       113
37.760       153
37.770       113
37.780       167
37.790       180
37.800       187
37.810       147
37.820       173
37.830       153
37.840       113
37.850        87
37.860       133
37.870       140
37.880       100
37.890       113
37.900       120
37.910        53
37.920        87
37.930        67
37.940        73
37.950        80
37.960        47
37.970        40
37.980        33
37.990        33
38.000        33
38.010        33
38.020        33
38.030        33
38.040        20
38.050        53
38.060        13
38.070        13
38.080        20
38.090        13
38.100        40
38.110        27
38.120        13
38.130        27
38.140        40
38.150         0
38.160        27
38.170        27
38.180        40
38.190         7
38.200        47
38.210        20
38.220        20
38.230        47
38.240        33
38.250        33
38.260         7
38.270         7
38.280        27
38.290        40
38.300        20
38.310        20
38.320         7
38.330        20
38.340        13
38.350        20
38.360         7
38.370        40
38.380        27
38.390        13
38.400        13
38.410        13
38.420        40
38.430        13
38.440         7
38.450        33
38.460        27
38.470        20
38.480         7
38.490        13
38.500         7
38.510        13
38.520         7
38.530        13
38.540        27
38.550        33
38.560        13
38.570        13
38.580        33
38.590        13
38.600        13
38.610        13
38.620        13
38.630        27
38.640        27
38.650        13
38.660        33
38.670        33
38.680        20
38.690        47
38.700         7
38.710        33
38.720         7
38.730        13
38.740        33
38.750         7
38.760        27
38.770        20
38.780        20
38.790         7
38.800        33
38.810        33
38.820        27
38.830        53
38.840        33
38.850        27
38.860        20
38.870        20
38.880        13
38.890        47
38.900        13
38.910        40
38.920        13
38.930        27
38.940        27
38.950        20
38.960        27
38.970        40
38.980        40
38.990        27
39.000        27
39.010        13
39.020        13
39.030        27
39.040        27
39.050        40
39.060        33
39.070        27
39.080        20
39.090        27
39.100         7
39.110        27
39.120        33
39.130         7
39.140        13
39.150         7
39.160        20
39.170        40
39.180        27
39.190        13
39.200        13
39.210         7
39.220        20
39.230         0
39.240        27
39.250        47
39.260         0
39.270        40
39.280        13
39.290        13
39.300        33
39.310        20
39.320        20
39.330        13
39.340         7
39.350        20
39.360        13
39.370        27
39.380        40
39.390        47
39.400        27
39.410        40
39.420        20
39.430        13
39.440         7
39.450        47
39.460        20
39.470        47
39.480        33
39.490        20
39.500        13
39.510        13
39.520        33
39.530        27
39.540        33
39.550        33
39.560        27
39.570        20
39.580        73
39.590        40
39.600         0
39.610        40
39.620        33
39.630        27
39.640        20
39.650        33
39.660        33
39.670        27
39.680        33
39.690        40
39.700        13
39.710        33
39.720        20
39.730        47
39.740        27
39.750        47
39.760        67
39.770        80
39.780        33
39.790        47
39.800        20
39.810        53
39.820        33
39.830        33
39.840        60
39.850        60
39.860        47
39.870        60
39.880        47
39.890        67
39.900        60
39.910        47
39.920        40
39.930        73
39.940        67
39.950        93
39.960        20
39.970        47
39.980        47
39.990        53
40.000        60
40.010        33
40.020        20
40.030        60
40.040        33
40.050        13
40.060        40
40.070        53
40.080        47
40.090         7
40.100        20
40.110        33
40.120        47
40.130        20
40.140         7
40.150        33
40.160        13
40.170         7
40.180        27
40.190        13
40.200        27
40.210        27
40.220        13
40.230        33
40.240        20
40.250         0
40.260        27
40.270        47
40.280        13
40.290        20
40.300         7
40.310        20
40.320        33
40.330        53
40.340         7
40.350         7
40.360        13
40.370        27
40.380        20
40.390        27
40.400        20
40.410        33
40.420         7
40.430        13
40.440        20
40.450        20
40.460         0
40.470         7
40.480         7
40.490         7
40.500        13
40.510        27
40.520        33
40.530         0
40.540        27
40.550        33
40.560        27
40.570        13
40.580        13
40.590        27
40.600         7
40.610        20
40.620        13
40.630        27
40.640         0
40.650        13
40.660        20
40.670         0
40.680        20
40.690        13
40.700        20
40.710         7
40.720        13
40.730        33
40.740        33
40.750        20
40.760        27
40.770        13
40.780        20
40.790         7
40.800        33
40.810        40
40.820         7
40.830         7
40.840        40
40.850         7
40.860        13
40.870        13
40.880         7
40.890         0
40.900        20
40.910        27
40.920        13
40.930         0
40.940        20
40.950        27
40.960         7
40.970         0
40.980         7
40.990         7
41.000        20
41.010         7
41.020        27
41.030         0
41.040         7
41.050        13
41.060         7
41.070        20
41.080        20
41.090        40
41.100        13
41.110        33
41.120        33
41.130        13
41.140         7
41.150         7
41.160        27
41.170         0
41.180        27
41.190         7
41.200         7
41.210        40
41.220        33
41.230        20
41.240        40
41.250        20
41.260         7
41.270        20
41.280        13
41.290        33
41.300        13
41.310         7
41.320        27
41.330        27
41.340        20
41.350        13
41.360         7
41.370        20
41.380        13
41.390         7
41.400        27
41.410        27
41.420        20
41.430        20
41.440        13
41.450        27
41.460         7
41.470         7
41.480        20
41.490        47
41.500        60
41.510        47
41.520        33
41.530        27
41.540        53
41.550        20
41.560        27
41.570        20
41.580        20
41.590        40
41.600        53
41.610        87
41.620        40
41.630        53
41.640        47
41.650        60
41.660        93
41.670       107
41.680       153
41.690        93
41.700       160
41.710       160
41.720       173
41.730       153
41.740       120
41.750       127
41.760        60
41.770        67
41.780        73
41.790       100
41.800        67
41.810        73
41.820       100
41.830        33
41.840        60
41.850        40
41.860        60
41.870        47
41.880        47
41.890         7
41.900        40
41.910        40
41.920        20
41.930        20
41.940        20
41.950        13
41.960        33
41.970        20
41.980        27
41.990        13
42.000        27
42.010        27
42.020        20
42.030        53
42.040        20
42.050        20
42.060        27
42.070        20
42.080        33
42.090        20
42.100        13
42.110        20
42.120        27
42.130        20
42.140         7
42.150        33
42.160        33
42.170        20
42.180        53
42.190        20
42.200        20
42.210        13
42.220        20
42.230        13
42.240        20
42.250        33
42.260        20
42.270        13
42.280        33
42.290        13
42.300        20
42.310         0
42.320        27
42.330        20
42.340        13
42.350        20
42.360        13
42.370        20
42.380         7
42.390        13
42.400        13
42.410         0
42.420         0
42.430        33
42.440        20
42.450        27
42.460         7
42.470        20
42.480        13
42.490         0
42.500         7
42.510         7
42.520        13
42.530        13
42.540        13
42.550        20
42.560        27
42.570        40
42.580         7
42.590        13
42.600        20
42.610         7
42.620        53
42.630        27
42.640        13
42.650         0
42.660        13
42.670         7
42.680        27
42.690         7
42.700        27
42.710        27
42.720        33
42.730        20
42.740        20
42.750        27
42.760         7
42.770        20
42.780        20
42.790        20
42.800         0
42.810        33
42.820        20
42.830        33
42.840        27
42.850        33
42.860        27
42.870         7
42.880        13
42.890        27
42.900        20
42.910        13
42.920        47
42.930        20
42.940        27
42.950        13
42.960        27
42.970        13
42.980        27
42.990        60
43.000        20
43.010        33
43.020        27
43.030         7
43.040        13
43.050        20
43.060        13
43.070         7
43.080         7
43.090        20
43.100        27
43.110        33
43.120        20
43.130        27
43.140        27
43.150        20
43.160        40
43.170        53
43.180        80
43.190        40
43.200        53
43.210        60
43.220        47
43.230        60
43.240        67
43.250        47
43.260        67
43.270        80
43.280        80
43.290       120
43.300       127
43.310       213
43.320       260
43.330       260
43.340       280
43.350       313
43.360       360
43.370       387
43.380       393
43.390       420
43.400       347
43.410       400
43.420       300
43.430       253
43.440       233
43.450       213
43.460       193
43.470       273
43.480       180
43.490       193
43.500       193
43.510       213
43.520       173
43.530       187
43.540       127
43.550       127
43.560        73
43.570        80
43.580        20
43.590        33
43.600        47
43.610        80
43.620        20
43.630        40
43.640        33
43.650         7
43.660        27
43.670        40
43.680        20
43.690        20
43.700        27
43.710        13
43.720        27
43.730        13
43.740        13
43.750         0
43.760        13
43.770         7
43.780        27
43.790        13
43.800        20
43.810        13
43.820        13
43.830        20
43.840        33
43.850        20
43.860        13
43.870        27
43.880         7
43.890        27
43.900        27
43.910        33
43.920        13
43.930        40
43.940        13
43.950        20
43.960         7
43.970        20
43.980        13
43.990         0
44.000        67
44.010        47
44.020        13
44.030        20
44.040        13
44.050         0
44.060        33
44.070        27
44.080        27
44.090        13
44.100        27
44.110        33
44.120         0
44.130        47
44.140        13
44.150        20
44.160        27
44.170        20
44.180         7
44.190         7
44.200        20
44.210         7
44.220         0
44.230        40
44.240        20
44.250        13
44.260        13
44.270        47
44.280         0
44.290         0
44.300        33
44.310         7
44.320         7
44.330         7
44.340        20
44.350         7
44.360         0
44.370        20
44.380        20
44.390        20
44.400        13
44.410        20
44.420        27
44.430        13
44.440        13
44.450         0
44.460        13
44.470        13
44.480         0
44.490        27
44.500        33
44.510        20
44.520        20
44.530        13
44.540        40
44.550        27
44.560        27
44.570        13
44.580         7
44.590        20
44.600        27
44.610        40
44.620        20
44.630        13
44.640        13
44.650        20
44.660        47
44.670        13
44.680        13
44.690        20
44.700         7
44.710         0
44.720        33
44.730         7
44.740        20
44.750        20
44.760        20
44.770         7
44.780        40
44.790        27
44.800        13
44.810         0
44.820        27
44.830         7
44.840        27
44.850         7
44.860        20
44.870        47
44.880        13
44.890        27
44.900        13
44.910        27
44.920        20
44.930        13
44.940        33
44.950        27
44.960        40
44.970        13
44.980        27
44.990        20
45.000        33
45.010        20
45.020        33
45.030        53
45.040        20
45.050         7
45.060        13
45.070        33
45.080         7
45.090        13
45.100        20
45.110        20
45.120        20
45.130        13
45.140        13
45.150        27
45.160        13
45.170        27
45.180        47
45.190         0
45.200        40
45.210        20
45.220        13
45.230        13
45.240        27
45.250        27
45.260         7
45.270        53
45.280        13
45.290         0
45.300        13
45.310        20
45.320        27
45.330        27
45.340        20
45.350        20
45.360        13
45.370        13
45.380         0
45.390         0
45.400        20
45.410        27
45.420        33
45.430         7
45.440        20
45.450         0
45.460        20
45.470        13
45.480        40
45.490        27
45.500        40
45.510         7
45.520        20
45.530        40
45.540        33
45.550        27
45.560        40
45.570         7
45.580         7
45.590        13
45.600        53
45.610         7
45.620        33
45.630        27
45.640        27
45.650        33
45.660        33
45.670        13
45.680        33
45.690        20
45.700        20
45.710        33
45.720        27
45.730         0
45.740        53
45.750        60
45.760        13
45.770        20
45.780        47
45.790        47
45.800        20
45.810        27
45.820        20
45.830        13
45.840        40
45.850        27
45.860        33
45.870        40
45.880        27
45.890        27
45.900        60
45.910        53
45.920        13
45.930        27
45.940        53
45.950        67
45.960        53
45.970        40
45.980        60
45.990        27
46.000        73
46.010        33
46.020        33
46.030        33
46.040        47
46.050        67
46.060        93
46.070        47
46.080       113
46.090       113
46.100        47
46.110       107
46.120        60
46.130        40
46.140       100
46.150       127
46.160        87
46.170       113
46.180       127
46.190        87
46.200        93
46.210       127
46.220        73
46.230        87
46.240        67
46.250        60
46.260       100
46.270       153
46.280       100
46.290       120
46.300       113
46.310       113
46.320       127
46.330        67
46.340       113
46.350        60
46.360        67
46.370        87
46.380        87
46.390        73
46.400        67
46.410        93
46.420        73
46.430       100
46.440        53
46.450        87
46.460        27
46.470        67
46.480        80
46.490        60
46.500        67
46.510        47
46.520        40
46.530        47
46.540        33
46.550        40
46.560        53
46.570        47
46.580        53
46.590        67
46.600        27
46.610        27
46.620        40
46.630        40
46.640        40
46.650        20
46.660        40
46.670        67
46.680        40
46.690        20
46.700        27
46.710        27
46.720        33
46.730        27
46.740        27
46.750        20
46.760        27
46.770        20
46.780        20
46.790        27
46.800        40
46.810        40
46.820        40
46.830        13
46.840         0
46.850        20
46.860        33
46.870        27
46.880        13
46.890        33
46.900        20
46.910        53
46.920         7
46.930        33
46.940         0
46.950         0
46.960        20
46.970        20
46.980        33
46.990        33
47.000         7
47.010        20
47.020        40
47.030         7
47.040         7
47.050        27
47.060         7
47.070        13
47.080        40
47.090        27
47.100        27
47.110        33
47.120        13
47.130         7
47.140        13
47.150        27
47.160        27
47.170        20
47.180        27
47.190        20
47.200        13
47.210         0
47.220        27
47.230         0
47.240        20
47.250        13
47.260        20
47.270         7
47.280         0
47.290         7
47.300        13
47.310        13
47.320         7
47.330         7
47.340        33
47.350        27
47.360        20
47.370        20
47.380        20
47.390        13
47.400        20
47.410        27
47.420        13
47.430        20
47.440         0
47.450        20
47.460        13
47.470         0
47.480         7
47.490        13
47.500        20
47.510        13
47.520        40
47.530        20
47.540        33
47.550         0
47.560        20
47.570        27
47.580        13
47.590        13
47.600        53
47.610        27
47.620        20
47.630         7
47.640         7
47.650        33
47.660         7
47.670        27
47.680        20
47.690         7
47.700        13
47.710        33
47.720        33
47.730        20
47.740        13
47.750         7
47.760         7
47.770        13
47.780        20
47.790        20
47.800         7
47.810        13
47.820        27
47.830         7
47.840        13
47.850        20
47.860         0
47.870        33
47.880         0
47.890         7
47.900        20
47.910         7
47.920        27
47.930         0
47.940        40
47.950         7
47.960         0
47.970        20
47.980         0
47.990        13
48.000        20
48.010        20
48.020         7
48.030        13
48.040        13
48.050        20
48.060        13
48.070         7
48.080        27
48.090         0
48.100         7
48.110        27
48.120        13
48.130        27
48.140         7
48.150         7
48.160        20
48.170        20
48.180         7
48.190        13
48.200         0
48.210        13
48.220        27
48.230        13
48.240        13
48.250         0
48.260        27
48.270        20
48.280         7
48.290        20
48.300        13
48.310        40
48.320        13
48.330        13
48.340        13
48.350         0
48.360        27
48.370         0
48.380        13
48.390        20
48.400        13
48.410         0
48.420         7
48.430        20
48.440        13
48.450        13
48.460        20
48.470         7
48.480         7
48.490        13
48.500         7
48.510        20
48.520         7
48.530        13
48.540         7
48.550         0
48.560         7
48.570        27
48.580         0
48.590        33
48.600         0
48.610        20
48.620         7
48.630        13
48.640        13
48.650        13
48.660        13
48.670        20
48.680        13
48.690         7
48.700        13
48.710        13
48.720        27
48.730         0
48.740         7
48.750        20
48.760        27
48.770        13
48.780        20
48.790         7
48.800        47
48.810        13
48.820        27
48.830         7
48.840         7
48.850        33
48.860         7
48.870        20
48.880        20
48.890         0
48.900        13
48.910        20
48.920         7
48.930        13
48.940        27
48.950        13
48.960        13
48.970         7
48.980         0
48.990        33
49.000         0
49.010        20
49.020         7
49.030        27
49.040         7
49.050        27
49.060        27
49.070        13
49.080        20
49.090         7
49.100        20
49.110        20
49.120         0
49.130        13
49.140        20
49.150        20
49.160        27
49.170        13
49.180        27
49.190        33
49.200        20
49.210        27
49.220         7
49.230        33
49.240         0
49.250         0
49.260        20
49.270        13
49.280        20
49.290        13
49.300         7
49.310        20
49.320        13
49.330         7
49.340         7
49.350         7
49.360        13
49.370        13
49.380         7
49.390        20
49.400        20
49.410        20
49.420         0
49.430        13
49.440        13
49.450        13
49.460         7
49.470        13
49.480        13
49.490         7
49.500        13
49.510         0
49.520        13
49.530         0
49.540         0
49.550        20
49.560         7
49.570        20
49.580        13
49.590        13
49.600         7
49.610        33
49.620        13
49.630        13
49.640        27
49.650        27
49.660        27
49.670         7
49.680         0
49.690        13
49.700        27
49.710         7
49.720        13
49.730        13
49.740         7
49.750        20
49.760         7
49.770        20
49.780         7
49.790         0
49.800        13
49.810        13
49.820        13
49.830        13
49.840        33
49.850         7
49.860        20
49.870         0
49.880        27
49.890        13
49.900        13
49.910         7
49.920        20
49.930         7
49.940        27
49.950        13
49.960        13
49.970        13
49.980        20
49.990        20
50.000         0
50.010         7
50.020        40
50.030        13
50.040        33
50.050        33
50.060        13
50.070         7
50.080         7
50.090         7
50.100         0
50.110         0
50.120        27
50.130        20
50.140         7
50.150        13
50.160         7
50.170        27
50.180        13
50.190         0
50.200         7
50.210        20
50.220        27
50.230        27
50.240         7
50.250         7
50.260        20
50.270        20
50.280        13
50.290         7
50.300         7
50.310         7
50.320        13
50.330         7
50.340        13
50.350         7
50.360        20
50.370         7
50.380         0
50.390        13
50.400        27
50.410         0
50.420        20
50.430        13
50.440        13
50.450         7
50.460        20
50.470         7
50.480        13
50.490        13
50.500        13
50.510        20
50.520        13
50.530         7
50.540         0
50.550        33
50.560        20
50.570        27
50.580         7
50.590         0
50.600         0
50.610        20
50.620        13
50.630        20
50.640         7
50.650        27
50.660        13
50.670         0
50.680        13
50.690         7
50.700        13
50.710         7
50.720         0
50.730        13
50.740         7
50.750        13
50.760        20
50.770        13
50.780         7
50.790        13
50.800        20
50.810        13
50.820        13
50.830         7
50.840        20
50.850         7
50.860        27
50.870        27
50.880         7
50.890         7
50.900        27
50.910        20
50.920         7
50.930         7
50.940        13
50.950         0
50.960        27
50.970        27
50.980        40
50.990         0
51.000        13
51.010        13
51.020        27
51.030        20
51.040        13
51.050        20
51.060        20
51.070        20
51.080         7
51.090        13
51.100        20
51.110        27
51.120         0
51.130         0
51.140        27
51.150        20
51.160        13
51.170        27
51.180        33
51.190        20
51.200        20
51.210        13
51.220         7
51.230         7
51.240        13
51.250         7
51.260         7
51.270        13
51.280         7
51.290        20
51.300        13
51.310        20
51.320         7
51.330        27
51.340        27
51.350        20
51.360        20
51.370        20
51.380        27
51.390        13
51.400         0
51.410        20
51.420         0
51.430        20
51.440         7
51.450         0
51.460        20
51.470         7
51.480         7
51.490        13
51.500        27
51.510        13
51.520        27
51.530         7
51.540        27
51.550        20
51.560        20
51.570        20
51.580         7
51.590        20
51.600        13
51.610        20
51.620        27
51.630        13
51.640        13
51.650        20
51.660        27
51.670         0
51.680        13
51.690         7
51.700        27
51.710         7
51.720         7
51.730        27
51.740        13
51.750        13
51.760        20
51.770        20
51.780         0
51.790        20
51.800        27
51.810        13
51.820         7
51.830         7
51.840         7
51.850        27
51.860        40
51.870         0
51.880         7
51.890        33
51.900         0
51.910         0
51.920         7
51.930         7
51.940        20
51.950        27
51.960        13
51.970        27
51.980         0
51.990        13
52.000        40
52.010         0
52.020        20
52.030        13
52.040         7
52.050        20
52.060        13
52.070         7
52.080         7
52.090        13
52.100        27
52.110         0
52.120        27
52.130        27
52.140        20
52.150         7
52.160        20
52.170        20
52.180         0
52.190        27
52.200        20
52.210         7
52.220        13
52.230        40
52.240        27
52.250        13
52.260        20
52.270         7
52.280         0
52.290        13
52.300        13
52.310        13
52.320         7
52.330         7
52.340        40
52.350        27
52.360        20
52.370        20
52.380        20
52.390        33
52.400        13
52.410        20
52.420        20
52.430        20
52.440        67
52.450        67
52.460         7
52.470        47
52.480        60
52.490        40
52.500        53
52.510        73
52.520        60
52.530        60
52.540        87
52.550       167
52.560       167
52.570       240
52.580       267
52.590       207
52.600       227
52.610       227
52.620       187
52.630       133
52.640       113
52.650       113
52.660       113
52.670        53
52.680        87
52.690        60
52.700       140
52.710       127
52.720       153
52.730       153
52.740        93
52.750        73
52.760       100
52.770        40
52.780        33
52.790        40
52.800        33
52.810        13
52.820        27
52.830        13
52.840        27
52.850        20
52.860         7
52.870        13
52.880        20
52.890        20
52.900        27
52.910         0
52.920        13
52.930        20
52.940        13
52.950        27
52.960         7
52.970         7
52.980         7
52.990        33
53.000         7
53.010        13
53.020        20
53.030         7
53.040         7
53.050         0
53.060        13
53.070        20
53.080        13
53.090        13
53.100         7
53.110        20
53.120         0
53.130        13
53.140        27
53.150        20
53.160        40
53.170        20
53.180         7
53.190        20
53.200         7
53.210         7
53.220         7
53.230         0
53.240         7
53.250         7
53.260        13
53.270        13
53.280        13
53.290         7
53.300         0
53.310        13
53.320         0
53.330        27
53.340        33
53.350        13
53.360        13
53.370         0
53.380         7
53.390         0
53.400        20
53.410        13
53.420        13
53.430         7
53.440        13
53.450         7
53.460         0
53.470        27
53.480         7
53.490        13
53.500         7
53.510         7
53.520        20
53.530         7
53.540         0
53.550         7
53.560         0
53.570         7
53.580        13
53.590        13
53.600        27
53.610         0
53.620         0
53.630         7
53.640        13
53.650         7
53.660        27
53.670         0
53.680         7
53.690         0
53.700         7
53.710         7
53.720         7
53.730         0
53.740        20
53.750         7
53.760        13
53.770         7
53.780        20
53.790        20
53.800        13
53.810        20
53.820         7
53.830         7
53.840        20
53.850        13
53.860        13
53.870         0
53.880        13
53.890         7
53.900        13
53.910        27
53.920         0
53.930        20
53.940         7
53.950         7
53.960        13
53.970        27
53.980        33
53.990         0
54.000        20
54.010        13
54.020         7
54.030        33
54.040        13
54.050        13
54.060         0
54.070        20
54.080         0
54.090         0
54.100         7
54.110         7
54.120         7
54.130         7
54.140        27
54.150         7
54.160         7
54.170        20
54.180        27
54.190        13
54.200        27
54.210         0
54.220         7
54.230        20
54.240         0
54.250         0
54.260         0
54.270        20
54.280        20
54.290         7
54.300        20
54.310         7
54.320        27
54.330        13
54.340         0
54.350         7
54.360        20
54.370        13
54.380         0
54.390        33
54.400        13
54.410         7
54.420        13
54.430        27
54.440        33
54.450        20
54.460         7
54.470         0
54.480        13
54.490        13
54.500        27
54.510        33
54.520        27
54.530        20
54.540         0
54.550        20
54.560         7
54.570         0
54.580         7
54.590         7
54.600         7
54.610        13
54.620        20
54.630        20
54.640         7
54.650        13
54.660        13
54.670        20
54.680        13
54.690         7
54.700         7
54.710         7
54.720        13
54.730        13
54.740        20
54.750        20
54.760        13
54.770        27
54.780        20
54.790        13
54.800        13
54.810        27
54.820        20
54.830        13
54.840        13
54.850        27
54.860        13
54.870         0
54.880        13
54.890        13
54.900         7
54.910         7
54.920        13
54.930        20
54.940        33
54.950        13
54.960        27
54.970        13
54.980        20
54.990         7
55.000         7
55.010         7
55.020        20
55.030        20
55.040        13
55.050        40
55.060         7
55.070        13
55.080        13
55.090         0
55.100        20
55.110        27
55.120        13
55.130        13
55.140         7
55.150        13
55.160         0
55.170        20
55.180         7
55.190         0
55.200        13
55.210        33
55.220        33
55.230        13
55.240        20
55.250         0
55.260        20
55.270        27
55.280         7
55.290        33
55.300         7
55.310         7
55.320        20
55.330         7
55.340        20
55.350         0
55.360        13
55.370         0
55.380        33
55.390        20
55.400         7
55.410         7
55.420        13
55.430         7
55.440        20
55.450        27
55.460         0
55.470        13
55.480        20
55.490         7
55.500        13
55.510        13
55.520        27
55.530         7
55.540        27
55.550        20
55.560         7
55.570         7
55.580        20
55.590        13
55.600        20
55.610         7
55.620         7
55.630         0
55.640        40
55.650         7
55.660        27
55.670        33
55.680         0
55.690         0
55.700        27
55.710         7
55.720         0
55.730        13
55.740        13
55.750         7
55.760        20
55.770         7
55.780         7
55.790         7
55.800        13
55.810        20
55.820        13
55.830        13
55.840        13
55.850        40
55.860         0
55.870        47
55.880         0
55.890         7
55.900        20
55.910         7
55.920         0
55.930         0
55.940        13
55.950        33
55.960        33
55.970         7
55.980        33
55.990        20
56.000        20
56.010         0
56.020        13
56.030         7
56.040         0
56.050         7
56.060        40
56.070        33
56.080        33
56.090         7
56.100        13
56.110         7
56.120        27
56.130        13
56.140        33
56.150        27
56.160         0
56.170        20
56.180         7
56.190         0
56.200         7
56.210         7
56.220        33
56.230         0
56.240        13
56.250         7
56.260         7
56.270        20
56.280        27
56.290         7
56.300        13
56.310        13
56.320         7
56.330        27
56.340         0
56.350        27
56.360        33
56.370        27
56.380        13
56.390        20
56.400        27
56.410        20
56.420        20
56.430         0
56.440         7
56.450         0
56.460         0
56.470         7
56.480        13
56.490        13
56.500        27
56.510        13
56.520        27
56.530         0
56.540        33
56.550         7
56.560        13
56.570         7
56.580        13
56.590         7
56.600         0
56.610        13
56.620         7
56.630         7
56.640        13
56.650        20
56.660         0
56.670        13
56.680        20
56.690         0
56.700        13
56.710        27
56.720        13
56.730         7
56.740         7
56.750        13
56.760         7
56.770        13
56.780        13
56.790        13
56.800         7
56.810         0
56.820        27
56.830         7
56.840        20
56.850        27
56.860        20
56.870        27
56.880         0
56.890        20
56.900        27
56.910        13
56.920        13
56.930        20
56.940        27
56.950        27
56.960        33
56.970        13
56.980        27
56.990        13
57.000         7
57.010        27
57.020        27
57.030        13
57.040        13
57.050         7
57.060         7
57.070        13
57.080        27
57.090        20
57.100        20
57.110         7
57.120         7
57.130        33
57.140        13
57.150        13
57.160        33
57.170        13
57.180         7
57.190        33
57.200         7
57.210        20
57.220        40
57.230        47
57.240        47
57.250        47
57.260        13
57.270        20
57.280        40
57.290        33
57.300        27
57.310        20
57.320        53
57.330        73
57.340        27
57.350        40
57.360        40
57.370        53
57.380       100
57.390        47
57.400       107
57.410        53
57.420       107
57.430        93
57.440       193
57.450       240
57.460       253
57.470       426
57.480       420
57.490       506
57.500       620
57.510       853
57.520       940
57.530       853
57.540       740
57.550       726
57.560       746
57.570       433
57.580       380
57.590       407
57.600       307
57.610       327
57.620       307
57.630       287
57.640       313
57.650       347
57.660       407
57.670       367
57.680       446
57.690       360
57.700       273
57.710       373
57.720       360
57.730       260
57.740       180
57.750       147
57.760       140
57.770       113
57.780        73
57.790        67
57.800        47
57.810        33
57.820        33
57.830        33
57.840        27
57.850        47
57.860        33
57.870        33
57.880         7
57.890        40
57.900        33
57.910        33
57.920        33
57.930         7
57.940        33
57.950        27
57.960        33
57.970         7
57.980        33
57.990        27
58.000        20
58.010        33
58.020         7
58.030        27
58.040        20
58.050        20
58.060        47
58.070        20
58.080         0
58.090        20
58.100        27
58.110        33
58.120         0
58.130         0
58.140        20
58.150         7
58.160        20
58.170        13
58.180        20
58.190        20
58.200        13
58.210        20
58.220         7
58.230         7
58.240         7
58.250        13
58.260        33
58.270        20
58.280        33
58.290         7
58.300        20
58.310         7
58.320        33
58.330        13
58.340        27
58.350        13
58.360         7
58.370        33
58.380         0
58.390        13
58.400        13
58.410         7
58.420        27
58.430        40
58.440        20
58.450         0
58.460        27
58.470         0
58.480        27
58.490        20
58.500        13
58.510        13
58.520        13
58.530         7
58.540         7
58.550        13
58.560        13
58.570         7
58.580        13
58.590        20
58.600        13
58.610         7
58.620         7
58.630         7
58.640        13
58.650         7
58.660        20
58.670        13
58.680         0
58.690         0
58.700         0
58.710        27
58.720         7
58.730        27
58.740         7
58.750         0
58.760        33
58.770        20
58.780         7
58.790        13
58.800         7
58.810        27
58.820        40
58.830         0
58.840        20
58.850         0
58.860         0
58.870        27
58.880        13
58.890        13
58.900        27
58.910        27
58.920        13
58.930        20
58.940         7
58.950        13
58.960         0
58.970        27
58.980        13
58.990         7
59.000         7
59.010        13
59.020        20
59.030        13
59.040        13
59.050        20
59.060        20
59.070        27
59.080        13
59.090        20
59.100         7
59.110        13
59.120        27
59.130         7
59.140        13
59.150         0
59.160        13
59.170         0
59.180         7
59.190        20
59.200        20
59.210        27
59.220        13
59.230         0
59.240         7
59.250         0
59.260         7
59.270         7
59.280        13
59.290        20
59.300        13
59.310        33
59.320        13
59.330         7
59.340         0
59.350        13
59.360         7
59.370        20
59.380         7
59.390        13
59.400        13
59.410        13
59.420         7
59.430         0
59.440        33
59.450        13
59.460        47
59.470        20
59.480        33
59.490         7
59.500        33
59.510        13
59.520         7
59.530         7
59.540        27
59.550        13
59.560         7
59.570        20
59.580         7
59.590         7
59.600        13
59.610        27
59.620        20
59.630        13
59.640         7
59.650        13
59.660         7
59.670        20
59.680        20
59.690         7
59.700        33
59.710        33
59.720        13
59.730        27
59.740        20
59.750        33
59.760        40
59.770        53
59.780        53
59.790        47
59.800        60
59.810        33
59.820        33
59.830        40
59.840        33
59.850        33
59.860        13
59.870        20
59.880        13
59.890        27
59.900         7
59.910        13
59.920        33
59.930        20
59.940        33
59.950        47
59.960        27
59.970        27
59.980        13
59.990        13
60.000        33
