20.000        47
20.010        47
20.020        73
20.030        40
20.040        60
20.050        47
20.060        20
20.070        60
20.080        47
20.090        40
20.100        47
20.110        60
20.120        27
20.130         0
20.140        27
20.150        47
20.160        47
20.170        67
20.180        40
20.190        40
20.200        60
20.210        27
20.220        13
20.230        27
20.240        33
20.250        33
20.260        73
20.270        87
20.280        53
20.290        67
20.300        47
20.310        27
20.320        60
20.330        60
20.340        40
20.350        27
20.360        40
20.370        40
20.380        33
20.390        33
20.400        60
20.410        53
20.420        33
20.430        53
20.440        67
20.450        33
20.460        67
20.470        73
20.480        60
20.490        47
20.500        33
20.510        13
20.520        40
20.530        53
20.540        60
20.550        53
20.560        40
20.570        33
20.580        40
20.590        33
20.600        40
20.610        20
20.620        60
20.630        40
20.640        60
20.650        27
20.660        60
20.670        27
20.680        53
20.690        80
20.700        20
20.710        33
20.720        93
20.730        67
20.740        73
20.750        67
20.760        33
20.770        40
20.780        47
20.790        20
20.800        40
20.810        33
20.820        33
20.830        33
20.840        13
20.850        33
20.860        40
20.870        33
20.880        33
20.890        27
20.900        20
20.910        60
20.920        53
20.930        47
20.940        53
20.950        60
20.960        47
20.970        27
20.980        47
20.990        60
21.000        20
21.010        60
21.020        13
21.030        60
21.040        73
21.050        47
21.060        60
21.070        40
21.080        47
21.090        73
21.100        13
21.110        33
21.120        33
21.130        53
21.140        60
21.150        60
21.160        40
21.170        73
21.180        33
21.190        47
21.200        60
21.210        20
21.220        67
21.230        40
21.240        40
21.250        40
21.260        27
21.270        53
21.280        27
21.290        20
21.300        73
21.310        67
21.320        67
21.330        27
21.340        33
21.350        40
21.360        40
21.370        60
21.380        27
21.390        27
21.400        60
21.410        20
21.420        60
21.430        40
21.440        60
21.450        47
21.460        73
21.470        27
21.480        53
21.490        47
21.500        93
21.510        67
21.520        53
21.530        60
21.540        33
21.550        20
21.560        60
21.570        47
21.580        73
21.590        73
21.600        60
21.610        27
21.620        47
21.630        53
21.640        47
21.650        33
21.660        33
21.670        27
21.680        40
21.690        33
21.700        40
21.710         7
21.720        40
21.730        40
21.740        47
21.750        20
21.760        87
21.770        80
21.780        47
21.790        33
21.800        33
21.810        27
21.820        53
21.830        40
21.840        20
21.850        47
21.860        40
21.870        80
21.880        67
21.890        53
21.900        27
21.910        47
21.920        60
21.930        33
21.940        40
21.950        27
21.960        33
21.970        13
21.980        80
21.990        47
22.000        67
22.010        60
22.020        47
22.030        20
22.040        67
22.050        60
22.060        47
22.070        33
22.080        40
22.090        33
22.100        47
22.110        33
22.120        33
22.130        33
22.140        40
22.150        80
22.160        33
22.170        40
22.180        40
22.190        20
22.200        40
22.210        40
22.220        40
22.230        67
22.240        33
22.250        47
22.260        20
22.270        47
22.280        53
22.290        60
22.300        73
22.310        27
22.320        33
22.330        40
22.340        27
22.350        53
22.360        27
22.370        40
22.380        40
22.390        47
22.400        47
22.410        40
22.420        20
22.430        20
22.440        60
22.450        73
22.460        27
22.470        47
22.480        53
22.490        73
22.500        40
22.510        47
22.520        33
22.530        33
22.540        33
22.550        53
22.560        27
22.570        60
22.580        60
22.590        33
22.600        53
22.610        47
22.620        60
22.630        73
22.640        67
22.650        47
22.660        47
22.670        47
22.680        13
22.690        20
22.700        47
22.710        53
22.720        80
22.730        27
22.740        73
22.750        27
22.760        53
22.770        40
22.780        60
22.790        53
22.800        47
22.810        20
22.820        47
22.830        60
22.840        60
22.850        93
22.860        47
22.870        47
22.880        40
22.890        47
22.900        27
22.910        73
22.920        67
22.930        53
22.940        47
22.950        60
22.960        27
22.970        40
22.980        40
22.990        33
23.000        40
23.010        47
23.020        20
23.030        47
23.040        33
23.050        40
23.060        20
23.070        40
23.080        47
23.090        40
23.100        73
23.110        53
23.120        33
23.130        47
23.140        33
23.150        60
23.160        40
23.170        20
23.180        47
23.190        20
23.200        53
23.210        60
23.220        53
23.230        40
23.240        27
23.250        27
23.260        40
23.270        93
23.280        33
23.290        47
23.300        47
23.310        53
23.320        33
23.330        33
23.340        53
23.350        33
23.360        33
23.370        53
23.380        53
23.390        33
23.400        53
23.410        27
23.420        40
23.430        20
23.440        27
23.450        40
23.460        67
23.470        60
23.480        27
23.490        40
23.500        53
23.510        60
23.520        47
23.530        60
23.540        53
23.550        53
23.560        47
23.570        40
23.580        40
23.590        33
23.600        13
23.610        27
23.620        47
23.630        67
23.640        60
23.650        47
23.660        27
23.670        60
23.680        40
23.690        20
23.700        40
23.710        33
23.720        40
23.730        33
23.740        27
23.750        27
23.760        33
23.770        13
23.780        53
23.790        47
23.800        33
23.810        27
23.820        27
23.830        33
23.840        53
23.850        20
23.860         7
23.870        47
23.880        20
23.890        60
23.900        33
23.910        40
23.920        33
23.930        40
23.940        40
23.950        33
23.960        27
23.970        53
23.980        20
23.990        13
24.000        60
24.010        40
24.020         7
24.030        53
24.040        20
24.050        40
24.060        47
24.070        47
24.080        60
24.090        47
24.100        40
24.110        53
24.120        27
24.130        53
24.140        27
24.150        60
24.160        27
24.170        40
24.180        47
24.190        33
24.200        33
24.210        47
24.220        60
24.230        20
24.240        33
24.250        27
24.260        87
24.270        27
24.280        27
24.290        33
24.300        60
24.310        33
24.320        40
24.330        33
24.340        53
24.350        27
24.360        47
24.370       100
24.380        60
24.390        20
24.400        27
24.410         7
24.420        80
24.430        27
24.440        20
24.450        13
24.460        40
24.470        33
24.480        27
24.490        27
24.500        33
24.510        33
24.520        47
24.530        33
24.540        53
24.550        27
24.560        20
24.570        53
24.580        47
24.590        13
24.600        27
24.610        20
24.620        33
24.630        27
24.640        40
24.650        60
24.660        33
24.670        40
24.680        13
24.690         7
24.700        53
24.710        60
24.720        40
24.730        60
24.740        33
24.750        60
24.760        33
24.770        53
24.780        20
24.790        40
24.800        53
24.810        40
24.820        60
24.830        13
24.840        47
24.850        40
24.860        27
24.870        20
24.880        60
24.890        47
24.900        33
24.910        60
24.920        20
24.930        40
24.940        47
24.950        20
24.960        27
24.970        47
24.980        33
24.990        27
25.000        60
25.010        27
25.020        53
25.030        47
25.040        53
25.050        20
25.060        20
25.070        73
25.080        27
25.090        27
25.100        60
25.110        73
25.120        27
25.130        27
25.140        53
25.150        40
25.160        47
25.170        60
25.180        33
25.190        33
25.200        20
25.210        20
25.220        60
25.230        73
25.240        53
25.250        47
25.260        20
25.270        27
25.280        33
25.290        33
25.300        67
25.310        87
25.320        67
25.330        47
25.340        73
25.350        33
25.360        87
25.370        33
25.380        73
25.390        53
25.400        47
25.410        60
25.420        67
25.430        87
25.440        40
25.450        60
25.460        40
25.470        60
25.480        67
25.490        60
25.500        60
25.510        73
25.520       140
25.530       100
25.540       100
25.550       107
25.560        93
25.570       167
25.580       127
25.590       140
25.600       107
25.610       147
25.620       200
25.630       193
25.640       213
25.650       160
25.660       173
25.670       160
25.680       160
25.690       180
25.700       160
25.710        67
25.720        73
25.730        80
25.740        87
25.750        40
25.760        20
25.770        40
25.780        40
25.790        20
25.800        53
25.810        20
25.820        47
25.830        20
25.840        47
25.850        40
25.860        33
25.870        53
25.880        20
25.890        27
25.900        33
25.910        20
25.920        20
25.930        40
25.940        27
25.950        40
25.960        40
25.970        47
25.980        13
25.990        13
26.000        33
26.010        47
26.020        47
26.030        40
26.040        20
26.050        47
26.060        40
26.070        27
26.080        13
26.090        27
26.100        33
26.110        13
26.120        27
26.130        60
26.140        33
26.150        27
26.160        13
26.170        40
26.180        40
26.190        27
26.200        33
26.210        33
26.220        33
26.230        53
26.240        20
26.250        67
26.260        53
26.270        40
26.280        20
26.290        27
26.300        33
26.310        33
26.320        27
26.330        33
26.340        13
26.350        27
26.360        13
26.370        47
26.380        20
26.390        33
26.400        27
26.410        27
26.420        20
26.430        53
26.440         7
26.450        27
26.460         7
26.470        13
26.480        80
26.490        20
26.500        33
26.510        33
26.520        40
26.530        20
26.540        33
26.550        47
26.560        60
26.570        53
26.580        13
26.590        20
26.600        40
26.610        13
26.620        40
26.630        27
26.640        27
26.650        47
26.660        40
26.670        33
26.680        13
26.690        33
26.700        40
26.710        20
26.720        47
26.730        27
26.740        67
26.750        53
26.760        47
26.770        47
26.780        47
26.790        40
26.800        20
26.810        27
26.820        47
26.830        20
26.840        20
26.850        13
26.860        20
26.870        33
26.880        60
26.890        53
26.900        40
26.910        53
26.920        27
26.930        47
26.940        33
26.950        13
26.960        53
26.970        13
26.980        33
26.990        13
27.000        27
27.010        47
27.020        33
27.030        20
27.040        27
27.050        20
27.060         7
27.070        40
27.080        27
27.090        47
27.100        33
27.110        33
27.120        40
27.130        33
27.140        60
27.150        33
27.160        33
27.170        27
27.180        27
27.190        13
27.200        27
27.210        40
27.220        27
27.230        40
27.240        33
27.250        33
27.260        33
27.270        40
27.280        33
27.290        20
27.300        33
27.310        27
27.320        20
27.330        20
27.340        47
27.350        40
27.360        60
27.370        20
27.380        67
27.390        27
27.400        20
27.410        27
27.420        40
27.430        33
27.440        27
27.450        13
27.460        40
27.470        33
27.480        33
27.490        13
27.500         7
27.510        40
27.520        33
27.530        27
27.540        20
27.550        20
27.560        53
27.570        13
27.580        40
27.590        53
27.600        20
27.610        20
27.620        33
27.630        27
27.640        40
27.650        20
27.660        27
27.670        53
27.680        20
27.690        27
27.700        33
27.710        60
27.720        40
27.730        20
27.740        40
27.750        33
27.760        53
27.770        87
27.780        60
27.790        40
27.800        47
27.810        27
27.820        40
27.830        40
27.840        27
27.850        13
27.860        33
27.870         7
27.880        20
27.890        33
27.900        40
27.910        33
27.920        13
27.930        27
27.940        47
27.950        60
27.960        20
27.970        27
27.980        27
27.990        40
28.000         7
28.010        33
28.020        47
28.030        47
28.040        20
28.050        67
28.060        27
28.070        47
28.080        40
28.090        33
28.100        60
28.110        33
28.120        13
28.130        33
28.140        33
28.150        13
28.160        13
28.170        67
28.180        20
28.190        20
28.200        33
28.210        33
28.220        20
28.230        27
28.240        27
28.250        40
28.260        27
28.270        20
28.280        40
28.290        27
28.300        27
28.310         7
28.320        33
28.330        33
28.340        33
28.350        27
28.360        47
28.370        13
28.380        27
28.390        40
28.400        20
28.410        20
28.420        13
28.430        20
28.440        33
28.450        27
28.460        20
28.470        47
28.480        13
28.490         7
28.500        27
28.510        27
28.520        33
28.530        20
28.540        27
28.550        20
28.560        20
28.570         7
28.580        27
28.590        27
28.600        40
28.610        20
28.620        27
28.630        20
28.640        27
28.650        40
28.660        27
28.670        20
28.680        53
28.690        27
28.700        40
28.710        33
28.720        13
28.730        27
28.740        60
28.750        27
28.760        20
28.770        13
28.780        13
28.790        53
28.800        13
28.810        13
28.820        60
28.830        20
28.840        53
28.850        27
28.860        20
28.870        20
28.880        27
28.890        47
28.900        27
28.910        20
28.920        47
28.930        53
28.940        40
28.950        27
28.960        20
28.970        33
28.980        40
28.990        33
29.000        73
29.010        13
29.020        60
29.030        33
29.040        33
29.050        13
29.060        47
29.070        47
29.080        40
29.090         0
29.100        33
29.110        53
29.120        47
29.130        27
29.140        27
29.150        47
29.160        33
29.170        27
29.180        20
29.190        53
29.200        60
29.210        33
29.220        40
29.230        20
29.240        13
29.250        47
29.260        47
29.270        27
29.280        27
29.290        40
29.300        20
29.310        33
29.320        47
29.330        27
29.340        27
29.350        27
29.360        47
29.370        47
29.380        13
29.390        27
29.400        33
29.410        13
29.420        20
29.430        40
29.440        13
29.450        53
29.460        47
29.470        53
29.480        20
29.490         7
29.500        20
29.510         7
29.520        27
29.530        33
29.540        33
29.550        47
29.560        33
29.570       127
29.580        33
29.590        40
29.600        27
29.610        33
29.620        13
29.630        13
29.640        27
29.650        60
29.660        47
29.670        20
29.680        27
29.690        33
29.700        60
29.710        27
29.720        13
29.730        20
29.740        40
29.750        27
29.760        13
29.770         7
29.780        53
29.790        33
29.800        40
29.810        33
29.820        53
29.830        33
29.840        47
29.850        20
29.860        13
29.870        13
29.880         7
29.890        20
29.900        33
29.910        80
29.920        40
29.930        27
29.940        47
29.950        27
29.960        40
29.970        27
29.980        47
29.990        40
30.000        13
30.010        20
30.020        60
30.030        13
30.040        13
30.050        27
30.060        13
30.070        47
30.080        20
30.090        40
30.100        13
30.110        27
30.120        13
30.130        27
30.140        33
30.150        53
30.160        20
30.170        60
30.180        33
30.190        60
30.200        47
30.210         7
30.220        20
30.230        27
30.240        13
30.250        40
30.260        27
30.270        33
30.280         7
30.290        13
30.300        40
30.310        13
30.320        33
30.330        40
30.340        13
30.350         7
30.360        20
30.370        33
30.380        40
30.390        40
30.400        27
30.410        27
30.420        33
30.430        40
30.440        20
30.450        33
30.460        13
30.470        27
30.480        27
30.490        27
30.500        47
30.510        47
30.520        20
30.530        27
30.540        33
30.550        20
30.560        40
30.570        40
30.580        13
30.590        47
30.600        20
30.610        33
30.620        40
30.630        53
30.640        27
30.650        53
30.660        53
30.670        27
30.680        40
30.690        13
30.700        53
30.710        27
30.720        53
30.730        20
30.740        27
30.750        40
30.760        33
30.770        33
30.780        53
30.790        27
30.800        27
30.810        27
30.820        27
30.830        27
30.840        33
30.850        33
30.860        27
30.870        33
30.880        20
30.890        47
30.900        27
30.910        27
30.920        33
30.930        47
30.940        33
30.950        27
30.960        40
30.970        20
30.980        27
30.990        40
31.000        33
31.010        33
31.020        20
31.030        47
31.040        53
31.050        13
31.060        60
31.070        13
31.080        20
31.090        20
31.100        13
31.110        47
31.120        40
31.130        40
31.140        20
31.150        20
31.160        13
31.170        47
31.180        27
31.190        33
31.200        27
31.210        33
31.220        40
31.230        60
31.240        33
31.250        40
31.260        27
31.270        20
31.280        40
31.290        27
31.300         7
31.310        60
31.320        67
31.330        53
31.340        20
31.350        27
31.360        40
31.370        67
31.380        27
31.390        27
31.400        47
31.410        53
31.420        33
31.430        27
31.440        53
31.450        13
31.460        67
31.470        40
31.480        53
31.490        53
31.500        60
31.510        27
31.520        27
31.530        20
31.540        47
31.550        33
31.560        40
31.570        60
31.580        53
31.590        47
31.600        67
31.610        33
31.620        33
31.630        27
31.640        60
31.650        47
31.660        27
31.670        60
31.680        73
31.690        20
31.700        60
31.710        47
31.720        33
31.730        67
31.740        47
31.750        60
31.760        60
31.770        60
31.780        47
31.790        73
31.800        53
31.810        53
31.820        67
31.830        67
31.840        40
31.850        53
31.860        47
31.870        47
31.880        53
31.890        67
31.900        80
31.910        67
31.920        87
31.930        93
31.940        73
31.950        87
31.960        73
31.970       107
31.980        53
31.990       127
32.000       140
32.010       100
32.020       133
32.030        93
32.040       113
32.050       160
32.060       160
32.070       173
32.080       220
32.090       207
32.100       140
32.110       200
32.120       133
32.130       127
32.140       233
32.150       220
32.160       287
32.170       327
32.180       240
32.190       313
32.200       253
32.210       300
32.220       293
32.230       333
32.240       280
32.250       260
32.260       240
32.270       313
32.280       333
32.290       187
32.300       247
32.310       293
32.320       233
32.330       213
32.340       227
32.350       233
32.360       187
32.370       307
32.380       167
32.390       213
32.400       133
32.410       160
32.420       167
32.430       107
32.440       113
32.450       147
32.460       100
32.470       120
32.480       160
32.490        67
32.500       100
32.510        67
32.520        87
32.530       113
32.540        87
32.550        80
32.560        73
32.570        60
32.580        40
32.590        73
32.600        60
32.610        33
32.620        60
32.630        47
32.640        27
32.650        53
32.660        47
32.670        27
32.680        27
32.690        40
32.700        33
32.710        20
32.720        67
32.730        40
32.740        40
32.750        20
32.760        60
32.770        67
32.780        80
32.790        40
32.800        87
32.810        33
32.820        60
32.830        67
32.840        47
32.850        40
32.860        53
32.870        67
32.880        33
32.890        47
32.900        67
32.910        27
32.920        40
32.930        47
32.940        53
32.950        20
32.960        60
32.970        73
32.980        33
32.990        33
33.000        40
33.010         7
33.020        27
33.030        20
33.040        33
33.050        47
33.060        53
33.070        13
33.080        47
33.090        47
33.100        60
33.110        40
33.120        53
33.130        20
33.140        33
33.150        53
33.160        67
33.170        27
33.180        40
33.190        47
33.200        27
33.210        40
33.220        47
33.230        33
33.240        20
33.250        40
33.260         7
33.270        53
33.280        47
33.290        60
33.300        20
33.310        33
33.320        27
33.330        13
33.340        40
33.350        27
33.360        33
33.370        40
33.380        67
33.390        47
33.400        13
33.410        40
33.420        20
33.430        33
33.440        20
33.450        27
33.460        33
33.470        33
33.480        20
33.490        47
33.500        20
33.510        47
33.520        47
33.530        47
33.540        40
33.550        40
33.560        27
33.570        33
33.580        33
33.590         7
33.600        53
33.610        20
33.620        33
33.630         0
33.640        47
33.650        53
33.660        27
33.670        20
33.680        53
33.690        33
33.700        27
33.710        40
33.720        20
33.730        20
33.740        47
33.750        40
33.760        13
33.770        27
33.780        27
33.790        40
33.800        27
33.810        20
33.820        20
33.830        20
33.840        27
33.850        27
33.860        47
33.870        53
33.880        27
33.890        27
33.900        33
33.910        20
33.920        20
33.930        13
33.940        47
33.950         7
33.960        53
33.970        40
33.980        27
33.990        13
34.000        47
34.010        13
34.020        33
34.030        20
34.040        40
34.050        40
34.060        47
34.070        27
34.080        27
34.090        13
34.100        47
34.110        27
34.120        40
34.130        13
34.140        67
34.150        13
34.160        20
34.170        33
34.180         7
34.190        27
34.200         7
34.210        53
34.220        33
34.230        40
34.240        40
34.250        20
34.260        27
34.270        47
34.280        40
34.290        40
34.300         7
34.310        53
34.320        13
34.330        33
34.340        47
34.350        47
34.360        20
34.370        33
34.380        47
34.390        20
34.400        13
34.410        40
34.420        13
34.430        60
34.440        33
34.450        27
34.460        27
34.470        40
34.480        27
34.490        60
34.500        27
34.510        33
34.520        27
34.530        20
34.540        13
34.550        33
34.560        47
34.570        20
34.580        47
34.590        33
34.600        13
34.610        20
34.620        33
34.630        27
34.640        33
34.650        33
34.660        20
34.670        20
34.680        27
34.690        40
34.700        13
34.710         0
34.720        40
34.730        27
34.740        27
34.750        33
34.760        27
34.770        60
34.780        40
34.790        47
34.800        47
34.810        27
34.820        27
34.830        33
34.840        47
34.850        33
34.860        80
34.870        40
34.880        40
34.890        47
34.900        73
34.910        53
34.920        60
34.930        47
34.940        60
34.950        33
34.960        80
34.970        80
34.980        73
34.990        67
35.000       107
35.010        73
35.020        80
35.030       180
35.040       133
35.050       227
35.060       187
35.070       227
35.080       260
35.090       253
35.100       360
35.110       446
35.120       600
35.130       613
35.140       666
35.150       633
35.160       706
35.170       846
35.180       866
35.190       893
35.200       680
35.210       720
35.220       633
35.230       493
35.240       440
35.250       486
35.260       553
35.270       446
35.280       327
35.290       367
35.300       320
35.310       247
35.320       200
35.330       127
35.340       127
35.350       107
35.360        47
35.370        33
35.380        60
35.390        53
35.400        33
35.410        27
35.420        40
35.430        27
35.440        53
35.450        53
35.460        33
35.470        20
35.480        20
35.490        40
35.500        13
35.510        27
35.520        13
35.530        33
35.540        40
35.550        40
35.560        47
35.570        27
35.580        20
35.590        53
35.600        33
35.610        20
35.620        20
35.630        13
35.640        20
35.650         7
35.660        13
35.670        33
35.680        27
35.690        27
35.700        13
35.710        40
35.720        20
35.730        20
35.740        33
35.750        13
35.760        27
35.770        33
35.780         7
35.790        27
35.800        13
35.810        33
35.820         7
35.830        27
35.840        13
35.850        20
35.860        13
35.870        33
35.880        27
35.890        40
35.900        40
35.910        27
35.920        40
35.930        33
35.940        33
35.950        33
35.960        40
35.970        13
35.980        13
35.990        40
36.000        27
36.010         7
36.020        20
36.030         7
36.040        33
36.050        20
36.060        33
36.070        40
36.080        33
36.090        13
36.100        13
36.110        27
36.120        13
36.130         7
36.140        27
36.150        20
36.160        20
36.170        47
36.180        20
36.190        20
36.200        40
36.210         0
36.220        13
36.230        20
36.240        20
36.250        53
36.260        27
36.270        33
36.280        80
36.290         0
36.300         0
36.310        27
36.320        20
36.330        27
36.340        20
36.350        47
36.360         7
36.370        27
36.380        20
36.390        40
36.400        13
36.410        27
36.420         7
36.430        27
36.440        20
36.450        27
36.460        33
36.470        20
36.480        27
36.490        53
36.500        33
36.510        33
36.520         7
36.530        33
36.540         7
36.550        40
36.560        33
36.570        40
36.580        40
36.590        47
36.600        40
36.610        40
36.620        40
36.630         7
36.640        13
36.650         0
36.660        33
36.670         7
36.680        20
36.690        20
36.700        40
36.710        27
36.720        27
36.730         0
36.740        27
36.750        27
36.760        47
36.770        27
36.780        33
36.790        13
36.800        20
36.810        53
36.820        47
36.830        33
36.840        27
36.850        33
36.860        13
36.870        33
36.880        27
36.890        73
36.900        47
36.910        27
36.920        40
36.930        33
36.940        40
36.950        47
36.960        13
36.970        47
36.980        47
36.990        40
37.000        60
37.010        13
37.020        20
37.030        33
37.040        60
37.050        40
37.060        20
37.070        13
37.080        33
37.090        33
37.100        20
37.110        27
37.120        27
37.130        20
37.140         7
37.150        27
37.160        13
37.170        27
37.180        20
37.190        13
37.200        40
37.210        27
37.220        13
37.230        40
37.240        53
37.250        47
37.260         7
37.270        13
37.280        27
37.290        13
37.300        27
37.310         7
37.320        20
37.330        20
37.340        40
37.350        40
37.360        27
37.370        13
37.380        20
37.390        20
37.400        27
37.410        60
37.420        47
37.430        20
37.440        27
37.450        27
37.460        13
37.470        33
37.480        33
37.490        60
37.500        20
37.510        27
37.520        13
37.530        60
37.540        47
37.550        33
37.560         7
37.570        13
37.580        13
37.590        27
37.600        13
37.610        27
37.620        60
37.630        47
37.640        33
37.650        80
37.660        40
37.670        47
37.680         7
37.690        60
37.700        47
37.710        33
37.720        40
37.730        47
37.740        93
37.750        80
37.760        33
37.770        33
37.780        80
37.790       107
37.800        87
37.810       147
37.820       140
37.830       147
37.840       147
37.850       127
37.860       100
37.870        60
37.880        87
37.890       100
37.900       100
37.910        53
37.920        53
37.930        80
37.940        80
37.950        47
37.960        27
37.970        73
37.980        27
37.990        20
38.000        40
38.010        13
38.020        60
38.030         7
38.040        40
38.050        33
38.060        13
38.070        20
38.080        33
38.090        13
38.100        40
38.110        13
38.120        33
38.130        33
38.140        13
38.150        47
38.160        20
38.170        33
38.180        27
38.190        40
38.200        33
38.210         7
38.220        20
38.230        33
38.240        33
38.250        40
38.260        20
38.270        20
38.280        27
38.290        27
38.300        33
38.310        13
38.320        20
38.330        33
38.340        40
38.350        13
38.360         0
38.370        13
38.380        40
38.390        13
38.400         0
38.410        13
38.420        13
38.430         7
38.440         7
38.450        27
38.460        40
38.470        27
38.480        27
38.490        27
38.500        33
38.510        27
38.520        33
38.530         7
38.540        20
38.550        33
38.560        27
38.570        13
38.580        40
38.590         0
38.600        33
38.610         7
38.620        40
38.630        60
38.640        27
38.650        27
38.660        20
38.670        20
38.680        27
38.690        13
38.700        53
38.710         7
38.720        20
38.730        20
38.740        20
38.750        13
38.760        13
38.770        27
38.780        33
38.790        47
38.800        40
38.810        13
38.820        33
38.830         0
38.840        27
38.850         7
38.860        20
38.870        13
38.880        20
38.890        40
38.900        20
38.910        60
38.920        13
38.930        40
38.940        27
38.950        20
38.960        40
38.970        27
38.980        13
38.990        40
39.000        27
39.010        47
39.020        40
39.030         7
39.040        27
39.050        33
39.060        33
39.070        20
39.080        33
39.090        33
39.100        27
39.110        27
39.120        13
39.130        40
39.140        13
39.150        40
39.160        13
39.170        27
39.180         7
39.190        33
39.200        13
39.210        33
39.220        27
39.230        27
39.240        40
39.250        20
39.260        47
39.270         0
39.280         0
39.290        27
39.300        33
39.310        13
39.320        33
39.330        20
39.340        40
39.350        40
39.360        27
39.370        13
39.380        20
39.390        13
39.400        27
39.410        33
39.420        20
39.430        53
39.440         7
39.450        20
39.460        27
39.470        40
39.480        47
39.490        20
39.500        13
39.510        40
39.520        33
39.530        20
39.540        47
39.550        13
39.560        27
39.570        27
39.580        13
39.590        27
39.600        27
39.610        33
39.620        27
39.630        40
39.640        33
39.650        33
39.660        20
39.670        53
39.680        60
39.690        47
39.700        53
39.710        53
39.720        40
39.730        40
39.740        73
39.750        60
39.760        53
39.770        73
39.780        53
39.790        73
39.800        87
39.810        40
39.820        93
39.830       153
39.840       120
39.850       107
39.860       113
39.870       100
39.880        67
39.890       100
39.900        73
39.910        73
39.920        33
39.930       107
39.940        87
39.950        80
39.960        53
39.970        33
39.980       133
39.990        47
40.000        93
40.010       127
40.020        53
40.030        20
40.040        93
40.050        80
40.060        60
40.070        60
40.080        60
40.090        47
40.100        40
40.110        40
40.120        53
40.130        20
40.140        53
40.150        13
40.160        40
40.170        27
40.180        40
40.190         7
40.200        33
40.210        33
40.220        20
40.230        33
40.240        33
40.250        33
40.260        20
40.270        27
40.280        27
40.290        13
40.300        40
40.310        20
40.320         7
40.330        27
40.340        53
40.350        20
40.360        53
40.370        13
40.380        20
40.390        13
40.400        20
40.410        20
40.420        33
40.430        33
40.440        27
40.450        13
40.460        13
40.470        27
40.480        33
40.490         7
40.500        20
40.510        13
40.520        40
40.530        27
40.540         7
40.550        20
40.560        20
40.570        13
40.580        13
40.590        27
40.600        33
40.610        27
40.620         7
40.630        13
40.640        27
40.650        20
40.660        33
40.670        20
40.680         7
40.690        33
40.700        20
40.710        20
40.720        20
40.730         7
40.740        27
40.750        33
40.760        20
40.770        20
40.780         7
40.790        20
40.800        13
40.810         7
40.820        53
40.830         7
40.840        20
40.850        27
40.860        40
40.870         7
40.880        27
40.890        13
40.900        20
40.910        13
40.920        13
40.930        13
40.940        20
40.950        13
40.960        20
40.970        13
40.980        13
40.990        33
41.000         7
41.010         7
41.020        27
41.030        20
41.040        20
41.050        13
41.060        27
41.070        13
41.080        20
41.090        20
41.100         7
41.110        33
41.120         0
41.130        40
41.140        13
41.150        47
41.160         7
41.170        13
41.180        20
41.190        20
41.200        40
41.210        20
41.220        33
41.230        13
41.240        20
41.250        20
41.260        33
41.270        13
41.280        33
41.290        20
41.300         0
41.310        20
41.320        40
41.330        20
41.340        27
41.350        53
41.360        40
41.370        40
41.380        53
41.390        20
41.400         7
41.410        20
41.420         7
41.430        20
41.440         7
41.450        27
41.460        27
41.470        20
41.480        20
41.490        20
41.500        67
41.510        13
41.520        67
41.530        40
41.540        53
41.550        67
41.560        60
41.570        40
41.580        33
41.590        53
41.600        60
41.610        33
41.620        67
41.630        73
41.640       153
41.650       193
41.660       147
41.670       167
41.680       247
41.690       247
41.700       227
41.710       187
41.720       207
41.730       120
41.740       107
41.750       107
41.760       127
41.770        87
41.780       113
41.790       133
41.800       127
41.810       120
41.820       113
41.830        67
41.840        60
41.850        33
41.860        40
41.870        60
41.880        47
41.890        27
41.900        47
41.910        33
41.920        13
41.930        33
41.940        47
41.950        33
41.960        47
41.970        20
41.980        13
41.990        20
42.000        20
42.010        27
42.020        20
42.030        40
42.040         0
42.050        13
42.060        40
42.070        27
42.080        20
42.090        27
42.100         7
42.110        27
42.120        13
42.130        27
42.140        13
42.150        20
42.160        33
42.170        33
42.180        20
42.190        13
42.200        13
42.210        20
42.220        33
42.230        13
42.240        20
42.250        40
42.260        27
42.270         7
42.280         7
42.290        20
42.300        13
42.310        20
42.320        20
42.330        40
42.340         0
42.350        40
42.360         7
42.370        27
42.380        20
42.390        27
42.400        60
42.410        13
42.420        27
42.430         7
42.440        13
42.450        47
42.460        20
42.470        13
42.480        33
42.490        27
42.500        20
42.510        33
42.520        13
42.530        40
42.540        13
42.550         0
42.560         7
42.570         7
42.580        33
42.590        33
42.600        20
42.610        13
42.620        13
42.630        13
42.640        13
42.650        13
42.660        47
42.670        27
42.680        20
42.690        13
42.700        33
42.710         0
42.720        13
42.730        20
42.740        40
42.750        33
42.760        20
42.770        20
42.780        33
42.790        27
42.800        33
42.810        27
42.820        47
42.830        47
42.840        20
42.850        13
42.860        60
42.870        33
42.880        40
42.890        20
42.900        20
42.910        27
42.920        20
42.930        40
42.940         7
42.950        13
42.960        13
42.970         7
42.980        13
42.990        13
43.000        27
43.010        13
43.020        13
43.030        33
43.040         0
43.050        33
43.060        27
43.070        13
43.080        33
43.090        27
43.100        47
43.110        33
43.120        40
43.130        33
43.140        60
43.150        67
43.160        27
43.170        60
43.180        20
43.190        20
43.200        47
43.210        87
43.220        73
43.230        80
43.240        47
43.250        67
43.260        67
43.270       107
43.280       160
43.290       100
43.300       160
43.310        80
43.320       173
43.330       193
43.340       353
43.350       513
43.360       620
43.370       726
43.380       666
43.390       786
43.400       633
43.410       646
43.420       520
43.430       486
43.440       287
43.450       300
43.460       340
43.470       320
43.480       400
43.490       540
43.500       373
43.510       300
43.520       327
43.530       247
43.540       207
43.550       120
43.560        67
43.570        80
43.580        93
43.590        80
43.600        40
43.610        20
43.620        33
43.630        27
43.640        27
43.650        47
43.660        27
43.670        40
43.680        47
43.690        40
43.700        13
43.710        20
43.720         7
43.730        47
43.740        27
43.750        13
43.760        33
43.770        33
43.780         7
43.790        20
43.800        27
43.810        27
43.820         7
43.830        20
43.840        33
43.850        27
43.860        33
43.870        40
43.880        13
43.890        20
43.900        20
43.910        13
43.920        20
43.930        20
43.940        13
43.950        20
43.960        33
43.970         7
43.980        20
43.990        33
44.000        27
44.010        27
44.020        20
44.030        13
44.040        27
44.050        13
44.060        33
44.070        13
44.080         7
44.090        13
44.100        40
44.110        47
44.120        20
44.130        13
44.140         7
44.150        13
44.160        13
44.170        20
44.180        33
44.190        20
44.200        20
44.210        13
44.220         7
44.230        20
44.240        20
44.250        13
44.260        20
44.270        13
44.280        40
44.290        20
44.300        27
44.310        33
44.320        20
44.330        13
44.340        27
44.350        20
44.360         0
44.370        20
44.380         7
44.390        13
44.400        13
44.410        13
44.420        47
44.430         7
44.440        20
44.450        33
44.460        27
44.470        13
44.480        33
44.490        33
44.500         7
44.510        20
44.520        27
44.530        40
44.540         0
44.550        60
44.560        47
44.570         0
44.580        33
44.590        13
44.600        27
44.610        33
44.620        27
44.630         7
44.640        13
44.650        13
44.660        40
44.670        40
44.680        20
44.690         0
44.700        33
44.710         0
44.720        27
44.730        20
44.740        40
44.750        27
44.760        13
44.770        47
44.780        27
44.790        20
44.800         7
44.810         7
44.820        40
44.830        27
44.840        33
44.850        40
44.860        27
44.870        40
44.880        33
44.890        40
44.900         7
44.910        40
44.920        13
44.930         0
44.940        27
44.950        47
44.960        20
44.970        13
44.980        13
44.990        13
45.000        47
45.010         0
45.020        27
45.030        20
45.040        13
45.050         7
45.060        40
45.070        13
45.080        27
45.090        20
45.100        13
45.110        20
45.120        27
45.130        13
45.140        20
45.150        27
45.160        27
45.170        47
45.180         7
45.190        47
45.200        20
45.210         7
45.220        20
45.230        33
45.240        13
45.250        13
45.260        27
45.270        20
45.280        60
45.290        27
45.300         7
45.310        13
45.320        60
45.330        20
45.340        13
45.350        20
45.360        27
45.370        20
45.380        33
45.390        20
45.400        47
45.410        20
45.420        13
45.430        27
45.440        13
45.450        27
45.460        20
45.470        27
45.480        13
45.490        13
45.500        33
45.510        27
45.520        53
45.530        13
45.540        20
45.550        13
45.560        47
45.570        33
45.580        47
45.590        40
45.600        20
45.610        33
45.620        47
45.630        20
45.640        60
45.650        53
45.660        53
45.670        20
45.680        87
45.690        73
45.700        53
45.710        73
45.720        67
45.730        60
45.740        40
45.750        80
45.760        47
45.770        47
45.780        33
45.790        27
45.800        73
45.810        67
45.820        93
45.830        40
45.840        67
45.850        67
45.860        60
45.870        60
45.880       100
45.890        80
45.900       133
45.910       113
45.920       120
45.930       100
45.940        53
45.950        87
45.960       100
45.970       120
45.980       100
45.990       133
46.000       100
46.010       160
46.020       107
46.030       187
46.040       147
46.050       207
46.060       187
46.070       240
46.080       207
46.090       180
46.100       200
46.110       160
46.120       193
46.130       167
46.140       200
46.150       220
46.160       287
46.170       333
46.180       187
46.190       267
46.200       267
46.210       227
46.220       233
46.230       227
46.240       280
46.250       253
46.260       240
46.270       213
46.280       260
46.290       180
46.300       253
46.310       127
46.320       200
46.330       220
46.340       207
46.350       173
46.360       167
46.370       180
46.380       133
46.390       140
46.400       133
46.410        93
46.420       113
46.430       127
46.440       140
46.450       140
46.460        93
46.470        87
46.480       113
46.490        93
46.500        80
46.510        73
46.520       107
46.530        47
46.540       127
46.550        53
46.560        47
46.570        47
46.580        40
46.590        60
46.600        47
46.610        53
46.620        33
46.630        60
46.640        93
46.650        67
46.660        73
46.670        40
46.680        67
46.690        33
46.700        40
46.710        53
46.720        40
46.730        40
46.740        60
46.750        33
46.760        27
46.770        47
46.780        33
46.790        33
46.800        60
46.810        67
46.820        33
46.830        33
46.840        20
46.850        47
46.860        53
46.870        73
46.880        20
46.890        20
46.900        40
46.910        20
46.920        27
46.930        40
46.940        13
46.950         7
46.960         7
46.970        60
46.980        20
46.990        13
47.000        20
47.010         7
47.020        20
47.030        20
47.040        33
47.050        27
47.060        40
47.070        13
47.080        33
47.090        13
47.100        33
47.110        33
47.120        33
47.130        13
47.140        27
47.150        13
47.160         0
47.170        40
47.180        20
47.190        40
47.200        20
47.210        13
47.220        13
47.230         7
47.240        27
47.250        40
47.260        27
47.270        60
47.280        13
47.290        20
47.300        33
47.310        27
47.320        20
47.330        20
47.340        13
47.350        20
47.360        27
47.370        40
47.380        13
47.390         7
47.400        27
47.410        13
47.420        20
47.430        53
47.440        40
47.450        13
47.460        53
47.470        27
47.480         0
47.490        40
47.500        20
47.510        33
47.520        20
47.530         0
47.540        27
47.550        20
47.560        33
47.570        13
47.580        20
47.590        33
47.600        33
47.610        20
47.620        27
47.630        47
47.640         0
47.650        20
47.660        40
47.670        13
47.680        40
47.690         0
47.700         7
47.710         7
47.720        20
47.730        40
47.740        47
47.750        40
47.760        27
47.770        47
47.780         7
47.790        20
47.800        33
47.810        13
47.820         7
47.830        20
47.840        27
47.850         7
47.860         7
47.870         7
47.880        20
47.890         0
47.900        20
47.910         7
47.920        20
47.930         0
47.940        13
47.950        20
47.960        27
47.970        33
47.980        20
47.990        13
48.000        27
48.010        20
48.020        20
48.030        20
48.040        20
48.050        13
48.060        20
48.070         7
48.080        27
48.090        27
48.100        33
48.110        13
48.120        20
48.130        27
48.140        27
48.150        13
48.160        13
48.170         0
48.180        40
48.190        27
48.200        27
48.210        53
48.220        27
48.230        33
48.240        20
48.250         0
48.260        20
48.270        13
48.280        20
48.290        13
48.300        20
48.310        20
48.320        13
48.330         7
48.340        13
48.350         7
48.360        27
48.370         7
48.380        33
48.390        13
48.400        27
48.410        13
48.420        27
48.430        13
48.440        27
48.450        20
48.460         7
48.470        27
48.480        13
48.490        20
48.500        40
48.510         7
48.520        13
48.530        13
48.540         7
48.550        33
48.560         7
48.570        13
48.580         7
48.590        20
48.600        13
48.610        13
48.620         0
48.630        20
48.640        20
48.650        20
48.660        27
48.670         7
48.680        13
48.690        20
48.700        13
48.710        20
48.720         0
48.730        13
48.740        20
48.750        13
48.760         7
48.770        20
48.780        13
48.790         7
48.800        27
48.810        20
48.820         0
48.830        13
48.840        13
48.850         7
48.860        20
48.870        20
48.880        27
48.890         7
48.900        27
48.910         7
48.920         7
48.930         7
48.940         7
48.950        13
48.960        13
48.970         7
48.980         7
48.990        13
49.000         7
49.010        20
49.020        13
49.030        33
49.040        20
49.050        13
49.060         7
49.070        40
49.080        20
49.090        33
49.100         7
49.110        13
49.120        13
49.130        13
49.140        40
49.150        20
49.160        20
49.170        20
49.180         7
49.190        47
49.200         7
49.210        20
49.220        13
49.230        40
49.240        13
49.250        13
49.260        27
49.270        27
49.280        40
49.290         7
49.300        20
49.310        13
49.320        20
49.330        20
49.340        33
49.350        40
49.360        13
49.370         7
49.380        20
49.390         7
49.400         0
49.410         7
49.420        13
49.430         7
49.440        20
49.450        33
49.460        20
49.470        13
49.480        27
49.490        20
49.500        13
49.510        13
49.520         7
49.530        13
49.540        33
49.550         0
49.560         0
49.570        33
49.580        13
49.590        33
49.600         0
49.610         7
49.620        40
49.630        33
49.640        20
49.650        33
49.660        20
49.670        13
49.680         7
49.690         0
49.700        13
49.710        13
49.720        13
49.730        20
49.740        20
49.750        13
49.760        40
49.770        13
49.780        27
49.790        27
49.800        33
49.810         0
49.820         0
49.830        20
49.840        13
49.850        13
49.860        20
49.870         7
49.880        13
49.890        20
49.900        33
49.910        20
49.920         7
49.930         7
49.940         7
49.950        27
49.960         0
49.970         0
49.980        33
49.990        13
50.000        20
50.010         7
50.020        27
50.030        20
50.040         7
50.050        13
50.060        20
50.070         7
50.080        20
50.090        13
50.100        27
50.110        40
50.120         7
50.130         7
50.140        13
50.150        33
50.160        13
50.170        13
50.180        13
50.190        20
50.200        13
50.210        20
50.220        13
50.230        13
50.240         7
50.250         0
50.260         0
50.270        13
50.280        33
50.290        20
50.300        20
50.310        13
50.320         7
50.330        13
50.340        27
50.350        27
50.360        13
50.370        27
50.380         7
50.390        20
50.400         7
50.410        27
50.420        27
50.430        13
50.440        13
50.450        13
50.460        13
50.470         7
50.480        13
50.490        13
50.500        33
50.510         7
50.520        27
50.530         0
50.540        27
50.550        20
50.560         7
50.570        40
50.580        13
50.590        13
50.600        13
50.610        13
50.620         7
50.630        33
50.640         7
50.650        13
50.660         7
50.670        13
50.680        27
50.690        20
50.700         7
50.710        13
50.720        20
50.730        13
50.740         7
50.750        20
50.760         7
50.770        27
50.780        20
50.790        20
50.800        27
50.810        13
50.820        20
50.830        27
50.840        20
50.850         7
50.860        20
50.870        20
50.880        13
50.890        13
50.900        27
50.910        20
50.920        20
50.930         7
50.940         0
50.950        20
50.960         0
50.970        20
50.980         0
50.990         7
51.000        13
51.010        33
51.020        20
51.030        13
51.040        13
51.050        27
51.060         0
51.070        33
51.080        13
51.090        40
51.100        20
51.110         7
51.120        40
51.130        13
51.140        20
51.150        27
51.160        20
51.170        20
51.180        13
51.190         7
51.200        20
51.210         7
51.220        20
51.230        27
51.240         0
51.250        20
51.260        20
51.270        13
51.280        33
51.290        20
51.300         7
51.310        27
51.320        20
51.330         7
51.340         7
51.350        27
51.360         0
51.370        27
51.380        13
51.390        27
51.400        27
51.410         7
51.420         0
51.430        20
51.440        13
51.450        40
51.460        20
51.470        13
51.480        13
51.490         0
51.500        13
51.510        20
51.520        33
51.530        13
51.540         7
51.550        27
51.560        33
51.570        33
51.580         7
51.590        20
51.600        27
51.610        20
51.620        40
51.630        13
51.640        20
51.650        20
51.660        33
51.670        20
51.680        33
51.690         7
51.700        27
51.710        13
51.720        13
51.730        20
51.740        33
51.750        13
51.760        33
51.770        27
51.780         7
51.790         7
51.800        13
51.810        13
51.820        13
51.830        13
51.840        47
51.850         0
51.860         0
51.870         7
51.880        20
51.890         7
51.900        20
51.910        20
51.920        27
51.930        13
51.940        13
51.950         7
51.960        20
51.970        27
51.980        13
51.990         7
52.000        27
52.010        13
52.020        40
52.030        27
52.040        13
52.050        27
52.060        13
52.070        13
52.080         7
52.090         7
52.100        20
52.110        20
52.120        13
52.130         7
52.140        20
52.150         0
52.160         7
52.170        47
52.180         7
52.190        13
52.200        27
52.210         0
52.220        13
52.230        47
52.240        13
52.250        20
52.260         7
52.270        13
52.280        47
52.290        47
52.300        27
52.310        20
52.320        47
52.330        20
52.340        20
52.350        40
52.360        13
52.370        40
52.380        27
52.390        27
52.400        33
52.410        20
52.420        27
52.430        33
52.440        40
52.450        20
52.460        27
52.470        47
52.480        40
52.490        27
52.500        60
52.510        27
52.520        40
52.530        67
52.540       147
52.550       133
52.560       127
52.570       140
52.580       160
52.590       233
52.600       200
52.610       160
52.620       187
52.630       193
52.640       147
52.650        67
52.660        73
52.670        73
52.680        73
52.690       113
52.700       133
52.710       100
52.720       100
52.730        53
52.740       107
52.750       127
52.760       127
52.770        67
52.780        93
52.790        87
52.800        27
52.810        27
52.820        20
52.830        20
52.840        47
52.850         7
52.860        13
52.870        20
52.880        27
52.890        40
52.900        47
52.910        20
52.920        13
52.930        20
52.940         7
52.950        27
52.960        13
52.970        40
52.980        13
52.990        13
53.000        27
53.010         7
53.020         7
53.030        13
53.040        20
53.050         7
53.060        13
53.070        27
53.080        27
53.090         7
53.100        13
53.110        20
53.120        40
53.130         0
53.140        33
53.150         7
53.160        20
53.170        13
53.180        20
53.190        27
53.200        20
53.210         7
53.220        33
53.230         7
53.240        13
53.250         0
53.260         7
53.270        20
53.280        13
53.290         0
53.300        13
53.310         7
53.320        40
53.330        20
53.340        13
53.350        20
53.360        13
53.370        20
53.380        13
53.390         7
53.400        27
53.410        20
53.420         7
53.430        13
53.440        13
53.450        13
53.460        20
53.470         0
53.480        13
53.490        13
53.500         7
53.510        13
53.520         0
53.530         0
53.540         0
53.550        13
53.560        13
53.570        13
53.580         0
53.590         7
53.600         7
53.610         7
53.620        13
53.630         7
53.640        13
53.650        13
53.660        13
53.670         7
53.680         7
53.690         7
53.700         7
53.710        27
53.720        33
53.730        13
53.740         7
53.750        13
53.760        13
53.770         0
53.780        27
53.790        13
53.800         7
53.810         7
53.820        13
53.830        20
53.840        20
53.850        20
53.860        13
53.870        20
53.880         7
53.890        13
53.900        27
53.910         7
53.920        20
53.930         0
53.940        13
53.950        13
53.960         0
53.970        27
53.980        13
53.990        27
54.000        27
54.010        33
54.020        13
54.030         7
54.040        20
54.050         7
54.060        13
54.070         7
54.080         0
54.090        13
54.100         7
54.110         0
54.120        13
54.130         7
54.140        27
54.150        27
54.160        33
54.170         7
54.180        13
54.190        13
54.200         7
54.210         7
54.220        40
54.230         7
54.240        20
54.250        13
54.260        27
54.270        13
54.280        13
54.290        13
54.300        13
54.310        13
54.320        13
54.330        13
54.340         0
54.350        33
54.360        27
54.370        13
54.380        13
54.390        27
54.400        27
54.410         7
54.420        13
54.430         7
54.440        20
54.450        20
54.460        27
54.470        20
54.480         0
54.490        47
54.500        20
54.510        27
54.520        20
54.530         7
54.540        13
54.550        20
54.560         0
54.570         7
54.580         7
54.590        27
54.600        13
54.610        13
54.620        20
54.630         7
54.640        13
54.650         7
54.660        27
54.670        33
54.680        13
54.690         7
54.700        20
54.710         0
54.720         7
54.730        20
54.740        13
54.750         7
54.760        13
54.770        13
54.780         0
54.790        13
54.800         7
54.810        13
54.820        13
54.830        27
54.840        33
54.850        13
54.860        20
54.870        20
54.880        20
54.890        33
54.900        33
54.910        20
54.920        27
54.930        13
54.940         7
54.950        20
54.960         7
54.970        13
54.980         7
54.990        20
55.000         7
55.010         7
55.020        27
55.030        13
55.040         0
55.050        20
55.060         7
55.070         0
55.080        40
55.090        13
55.100         7
55.110        20
55.120        20
55.130         0
55.140         7
55.150         7
55.160         7
55.170         0
55.180        27
55.190         7
55.200        13
55.210        20
55.220         0
55.230         7
55.240        13
55.250        27
55.260        33
55.270        20
55.280         7
55.290         7
55.300        13
55.310        33
55.320         7
55.330        20
55.340         7
55.350        27
55.360         7
55.370        20
55.380        13
55.390        20
55.400         0
55.410        27
55.420         0
55.430        27
55.440        20
55.450         0
55.460         0
55.470         7
55.480         7
55.490        27
55.500        13
55.510        27
55.520        20
55.530        13
55.540        13
55.550         7
55.560        13
55.570         7
55.580         7
55.590        13
55.600        13
55.610        27
55.620        33
55.630        27
55.640         7
55.650        47
55.660        13
55.670         7
55.680        13
55.690         7
55.700         7
55.710        33
55.720        20
55.730        33
55.740        20
55.750        13
55.760        20
55.770        20
55.780         7
55.790        27
55.800        20
55.810        13
55.820        13
55.830        33
55.840        13
55.850        33
55.860        27
55.870        27
55.880        13
55.890        13
55.900         0
55.910        20
55.920        27
55.930        20
55.940         0
55.950        53
55.960         7
55.970        27
55.980        20
55.990         0
56.000         7
56.010         0
56.020         7
56.030        20
56.040        27
56.050         7
56.060        47
56.070        20
56.080         7
56.090        20
56.100         0
56.110        40
56.120        20
56.130        20
56.140         7
56.150        20
56.160         7
56.170        27
56.180        33
56.190        27
56.200        20
56.210        13
56.220        13
56.230        13
56.240        13
56.250        20
56.260         7
56.270         0
56.280        27
56.290        13
56.300         7
56.310        13
56.320        27
56.330        20
56.340         7
56.350        20
56.360        20
56.370         7
56.380        20
56.390        27
56.400         7
56.410         7
56.420         0
56.430        40
56.440         7
56.450        20
56.460         7
56.470        20
56.480         0
56.490         7
56.500        13
56.510         7
56.520        13
56.530        13
56.540        13
56.550        20
56.560        20
56.570         7
56.580         7
56.590        33
56.600         7
56.610        13
56.620         7
56.630        27
56.640        13
56.650        13
56.660        27
56.670        33
56.680        13
56.690         7
56.700        33
56.710        27
56.720        27
56.730        20
56.740         7
56.750        20
56.760        20
56.770        13
56.780        13
56.790        13
56.800         7
56.810         0
56.820         7
56.830         7
56.840        40
56.850         7
56.860        13
56.870        20
56.880        13
56.890        20
56.900         7
56.910        20
56.920         0
56.930        20
56.940         7
56.950        13
56.960        20
56.970        27
56.980        13
56.990        13
57.000        13
57.010         0
57.020        13
57.030        13
57.040         7
57.050        13
57.060        20
57.070         7
57.080        20
57.090        33
57.100        20
57.110        13
57.120        13
57.130         7
57.140        27
57.150        40
57.160        27
57.170        13
57.180        40
57.190        27
57.200        27
57.210         7
57.220        40
57.230        47
57.240        40
57.250        13
57.260        33
57.270        53
57.280        13
57.290        53
57.300        67
57.310        60
57.320        60
57.330        53
57.340       100
57.350        53
57.360        60
57.370        47
57.380        53
57.390        87
57.400        93
57.410        93
57.420        93
57.430        80
57.440       100
57.450       147
57.460       187
57.470       153
57.480       207
57.490       300
57.500       367
57.510       553
57.520       700
57.530       566
57.540       673
57.550       673
57.560       606
57.570       653
57.580       453
57.590       433
57.600       407
57.610       293
57.620       187
57.630        87
57.640       220
57.650       267
57.660       253
57.670       233
57.680       307
57.690       433
57.700       320
57.710       293
57.720       360
57.730       313
57.740       240
57.750       180
57.760       127
57.770       113
57.780        53
57.790        87
57.800        80
57.810        20
57.820        40
57.830        40
57.840        47
57.850        13
57.860        27
57.870        33
57.880        40
57.890        13
57.900         7
57.910        13
57.920        20
57.930        33
57.940        47
57.950         7
57.960        20
57.970        20
57.980        27
57.990        20
58.000        40
58.010        27
58.020         0
58.030        20
58.040        27
58.050        60
58.060        20
58.070        20
58.080        13
58.090         7
58.100        27
58.110        20
58.120        13
58.130        13
58.140        27
58.150        20
58.160        20
58.170        13
58.180         0
58.190        33
58.200        33
58.210        20
58.220         7
58.230        13
58.240         0
58.250         7
58.260        20
58.270        13
58.280        13
58.290        13
58.300         0
58.310        20
58.320        40
58.330        13
58.340        27
58.350         7
58.360        13
58.370         7
58.380        13
58.390        13
58.400        40
58.410        13
58.420         0
58.430        33
58.440        13
58.450         0
58.460         7
58.470        20
58.480        20
58.490        20
58.500         7
58.510         7
58.520        13
58.530        13
58.540        33
58.550        27
58.560         0
58.570        27
58.580         7
58.590        20
58.600         0
58.610        20
58.620        13
58.630        20
58.640        20
58.650        13
58.660        13
58.670        13
58.680        13
58.690         7
58.700        33
58.710        13
58.720        13
58.730        20
58.740         7
58.750        13
58.760        20
58.770         7
58.780        27
58.790        20
58.800         7
58.810         7
58.820         0
58.830        13
58.840        13
58.850        13
58.860        20
58.870        13
58.880        27
58.890        13
58.900         0
58.910         0
58.920        20
58.930        13
58.940        20
58.950         7
58.960        13
58.970        20
58.980         0
58.990         7
59.000         7
59.010        20
59.020        27
59.030         0
59.040         7
59.050         7
59.060        20
59.070         7
59.080         0
59.090        27
59.100        27
59.110        13
59.120        13
59.130         7
59.140        47
59.150         7
59.160        13
59.170        20
59.180         7
59.190        20
59.200         0
59.210        27
59.220        13
59.230         7
59.240        13
59.250        13
59.260        13
59.270        13
59.280        13
59.290        20
59.300        20
59.310        20
59.320         7
59.330        20
59.340        40
59.350        27
59.360         7
59.370        27
59.380        13
59.390        33
59.400        13
59.410        13
59.420        13
59.430        20
59.440        20
59.450        20
59.460        20
59.470        27
59.480        13
59.490        13
59.500        20
59.510        13
59.520        20
59.530        27
59.540        20
59.550        27
59.560        13
59.570        20
59.580        13
59.590        27
59.600        20
59.610        13
59.620        33
59.630        20
59.640         7
59.650         0
59.660        13
59.670        27
59.680         7
59.690        20
59.700         0
59.710        20
59.720        47
59.730        13
59.740        33
59.750         7
59.760        20
59.770        33
59.780        33
59.790        20
59.800        40
59.810        20
59.820        20
59.830        13
59.840         7
59.850         0
59.860        13
59.870         7
59.880         7
59.890        20
59.900         7
59.910         0
59.920         7
59.930        13
59.940        33
59.950        27
59.960        27
59.970        13
59.980        27
59.990        33
60.000         7
