20.000        33
20.010        33
20.020        53
20.030        27
20.040        47
20.050         7
20.060        27
20.070        47
20.080        33
20.090        40
20.100        53
20.110        67
20.120        27
20.130        47
20.140        33
20.150        33
20.160        60
20.170        53
20.180        73
20.190        40
20.200        53
20.210        27
20.220        60
20.230        33
20.240        67
20.250        47
20.260        33
20.270        60
20.280        53
20.290        20
20.300        33
20.310        73
20.320        47
20.330        47
20.340        53
20.350        53
20.360        47
20.370        80
20.380        27
20.390        47
20.400        53
20.410        40
20.420        13
20.430        40
20.440        47
20.450        60
20.460        60
20.470        47
20.480        53
20.490        53
20.500        80
20.510        40
20.520        40
20.530        73
20.540        60
20.550        33
20.560        20
20.570        53
20.580        40
20.590        40
20.600        73
20.610        47
20.620        40
20.630        47
20.640        40
20.650        60
20.660        53
20.670        67
20.680        47
20.690        33
20.700        60
20.710        67
20.720        13
20.730        40
20.740        47
20.750        73
20.760        53
20.770        20
20.780        47
20.790        53
20.800        47
20.810        60
20.820        80
20.830        47
20.840        33
20.850        53
20.860        47
20.870        67
20.880        47
20.890        13
20.900        27
20.910        47
20.920        47
20.930        47
20.940        40
20.950        20
20.960        53
20.970        27
20.980        60
20.990        53
21.000        33
21.010        33
21.020        47
21.030        47
21.040        27
21.050        40
21.060        27
21.070        40
21.080        33
21.090        53
21.100        53
21.110        47
21.120        53
21.130        13
21.140        53
21.150        27
21.160        40
21.170        67
21.180        73
21.190        33
21.200        47
21.210        53
21.220        33
21.230        13
21.240        60
21.250        87
21.260        47
21.270        13
21.280        53
21.290        13
21.300        33
21.310        40
21.320        47
21.330        40
21.340        47
21.350        20
21.360        47
21.370        60
21.380        47
21.390        53
21.400        33
21.410        47
21.420        47
21.430        27
21.440        33
21.450        47
21.460        60
21.470        27
21.480        47
21.490        27
21.500        47
21.510        20
21.520        20
21.530        53
21.540        40
21.550        27
21.560        27
21.570        40
21.580        53
21.590        53
21.600        20
21.610        33
21.620        60
21.630        13
21.640        67
21.650        73
21.660        27
21.670        20
21.680        20
21.690        40
21.700        20
21.710        33
21.720        33
21.730        33
21.740        47
21.750        20
21.760        47
21.770        47
21.780        33
21.790        40
21.800        33
21.810        20
21.820        53
21.830        73
21.840        60
21.850        33
21.860        53
21.870        27
21.880        27
21.890        27
21.900        73
21.910        27
21.920        73
21.930        40
21.940        40
21.950        47
21.960         0
21.970        27
21.980        40
21.990        53
22.000        73
22.010        47
22.020        40
22.030        40
22.040        40
22.050        47
22.060        47
22.070        40
22.080        20
22.090        13
22.100        73
22.110        33
22.120        13
22.130        53
22.140        40
22.150        47
22.160        73
22.170        60
22.180        40
22.190        33
22.200        60
22.210        20
22.220        27
22.230        73
22.240        40
22.250        40
22.260        60
22.270        60
22.280        47
22.290        47
22.300        53
22.310        27
22.320        20
22.330        73
22.340        40
22.350        67
22.360        80
22.370        60
22.380        33
22.390        27
22.400        33
22.410        40
22.420        80
22.430        60
22.440        47
22.450        47
22.460        33
22.470        40
22.480        40
22.490        33
22.500        53
22.510        53
22.520        33
22.530        87
22.540        87
22.550        33
22.560        73
22.570        47
22.580        47
22.590        27
22.600        60
22.610        73
22.620       120
22.630       107
22.640        67
22.650        87
22.660       113
22.670       127
22.680        93
22.690        67
22.700        53
22.710       127
22.720       100
22.730       147
22.740       173
22.750       107
22.760       200
22.770       187
22.780       200
22.790       207
22.800       160
22.810       247
22.820       213
22.830       207
22.840       167
22.850       173
22.860       120
22.870       120
22.880       140
22.890        93
22.900       173
22.910       107
22.920       107
22.930       153
22.940       127
22.950        53
22.960       140
22.970        73
22.980        80
22.990        80
23.000        40
23.010        60
23.020        67
23.030        13
23.040        60
23.050        40
23.060        53
23.070        73
23.080        33
23.090        20
23.100        53
23.110        33
23.120        47
23.130        60
23.140        40
23.150        73
23.160         7
23.170        27
23.180        47
23.190        60
23.200        20
23.210        33
23.220        60
23.230        33
23.240        33
23.250        47
23.260        47
23.270        47
23.280        53
23.290        27
23.300        27
23.310        33
23.320        33
23.330        60
23.340        60
23.350        27
23.360        67
23.370        40
23.380        20
23.390       100
23.400        47
23.410        33
23.420        67
23.430        33
23.440        27
23.450        67
23.460        27
23.470        27
23.480        27
23.490        60
23.500        33
23.510        20
23.520        27
23.530        40
23.540        53
23.550        47
23.560        27
23.570        53
23.580        53
23.590        47
23.600        40
23.610        40
23.620        20
23.630        60
23.640        27
23.650        27
23.660        53
23.670        40
23.680        33
23.690        53
23.700        13
23.710        33
23.720        40
23.730        47
23.740        53
23.750        40
23.760        33
23.770        20
23.780        53
23.790        40
23.800        27
23.810        27
23.820        60
23.830        67
23.840        40
23.850        27
23.860        53
23.870        27
23.880        33
23.890        33
23.900        33
23.910        20
23.920        20
23.930        47
23.940        20
23.950        60
23.960        47
23.970        27
23.980        33
23.990        60
24.000        20
24.010        40
24.020        47
24.030        13
24.040        47
24.050        53
24.060        20
24.070        47
24.080        27
24.090        53
24.100        33
24.110        40
24.120        20
24.130        53
24.140        40
24.150        60
24.160        33
24.170        20
24.180        20
24.190        40
24.200        40
24.210        40
24.220        53
24.230        13
24.240        13
24.250        47
24.260        27
24.270        33
24.280        40
24.290        40
24.300        40
24.310        40
24.320        40
24.330        60
24.340        67
24.350        27
24.360         7
24.370        60
24.380        40
24.390        33
24.400        47
24.410        33
24.420        33
24.430        27
24.440        33
24.450        27
24.460        13
24.470        13
24.480        33
24.490        20
24.500        33
24.510        33
24.520        53
24.530        67
24.540        13
24.550        33
24.560        40
24.570        27
24.580        27
24.590        27
24.600        20
24.610        27
24.620        33
24.630        20
24.640        27
24.650        47
24.660        40
24.670        27
24.680        33
24.690         0
24.700        20
24.710        20
24.720        33
24.730        27
24.740        47
24.750        40
24.760        27
24.770        27
24.780        33
24.790        27
24.800        33
24.810        27
24.820        60
24.830        53
24.840        53
24.850        33
24.860        27
24.870        40
24.880        53
24.890        80
24.900        33
24.910        33
24.920        33
24.930        33
24.940        73
24.950        20
24.960        13
24.970        27
24.980        27
24.990        27
25.000        73
25.010        47
25.020        27
25.030        60
25.040        20
25.050        40
25.060        87
25.070        20
25.080        60
25.090        47
25.100        13
25.110        47
25.120        27
25.130        47
25.140        33
25.150        33
25.160        47
25.170        53
25.180        27
25.190        47
25.200        13
25.210        53
25.220        33
25.230        13
25.240        53
25.250        33
25.260        40
25.270        33
25.280        33
25.290        33
25.300        20
25.310        33
25.320        67
25.330        33
25.340        40
25.350        33
25.360        53
25.370        33
25.380        33
25.390        67
25.400        47
25.410       100
25.420        40
25.430        53
25.440        40
25.450        73
25.460        67
25.470        53
25.480        67
25.490        53
25.500        47
25.510        80
25.520        87
25.530        60
25.540        73
25.550        47
25.560        67
25.570        53
25.580       107
25.590       153
25.600       160
25.610       167
25.620       180
25.630       273
25.640       147
25.650        87
25.660       167
25.670       133
25.680       133
25.690        67
25.700        80
25.710        80
25.720        80
25.730        53
25.740        53
25.750        40
25.760        53
25.770        60
25.780        13
25.790        53
25.800        33
25.810        33
25.820        20
25.830        40
25.840        33
25.850        27
25.860        33
25.870        40
25.880        53
25.890        33
25.900        33
25.910        40
25.920        27
25.930        20
25.940        67
25.950        20
25.960        40
25.970        47
25.980        20
25.990        27
26.000        40
26.010        13
26.020        27
26.030        47
26.040        53
26.050        33
26.060        47
26.070        27
26.080        27
26.090        27
26.100        27
26.110        60
26.120        13
26.130        40
26.140        40
26.150        13
26.160        33
26.170        33
26.180        27
26.190        53
26.200        47
26.210        53
26.220         7
26.230        40
26.240        60
26.250        53
26.260        40
26.270        40
26.280        20
26.290        47
26.300        33
26.310        40
26.320        27
26.330        27
26.340        27
26.350        20
26.360        13
26.370        27
26.380        13
26.390        40
26.400        13
26.410        20
26.420        33
26.430        40
26.440        47
26.450        20
26.460        33
26.470        33
26.480        40
26.490        40
26.500        53
26.510        47
26.520        20
26.530        20
26.540        53
26.550        27
26.560         7
26.570        40
26.580        40
26.590        33
26.600        47
26.610        40
26.620        20
26.630        20
26.640        47
26.650        53
26.660        27
26.670        20
26.680        33
26.690        27
26.700         7
26.710        27
26.720        13
26.730        33
26.740        20
26.750        73
26.760        47
26.770         0
26.780        40
26.790        20
26.800        20
26.810        60
26.820        40
26.830        13
26.840         7
26.850        53
26.860         7
26.870        20
26.880         7
26.890        20
26.900        20
26.910        33
26.920        47
26.930        27
26.940        33
26.950        27
26.960        40
26.970        27
26.980        47
26.990        40
27.000        47
27.010        20
27.020        40
27.030        27
27.040        40
27.050        93
27.060        27
27.070        40
27.080        27
27.090        73
27.100        33
27.110        33
27.120        27
27.130        20
27.140        40
27.150        40
27.160        47
27.170        27
27.180        33
27.190        40
27.200        27
27.210        13
27.220        33
27.230        40
27.240        40
27.250        40
27.260        27
27.270         0
27.280        13
27.290        53
27.300        20
27.310        33
27.320        40
27.330        40
27.340        40
27.350        47
27.360        47
27.370        33
27.380        20
27.390        20
27.400        27
27.410        13
27.420        33
27.430        27
27.440        40
27.450        47
27.460        40
27.470        13
27.480        13
27.490        33
27.500        27
27.510        67
27.520        20
27.530        27
27.540        13
27.550        13
27.560        33
27.570        27
27.580        13
27.590        27
27.600        27
27.610        33
27.620        33
27.630        67
27.640        27
27.650        20
27.660        27
27.670        20
27.680        33
27.690        27
27.700        13
27.710        13
27.720         7
27.730        33
27.740        27
27.750        27
27.760        40
27.770        20
27.780        67
27.790         0
27.800        20
27.810        27
27.820        20
27.830        27
27.840        47
27.850        20
27.860        47
27.870        27
27.880        40
27.890        13
27.900        20
27.910        47
27.920        60
27.930        20
27.940        27
27.950        20
27.960        27
27.970        53
27.980        40
27.990        33
28.000        40
28.010        27
28.020        27
28.030        40
28.040        13
28.050        53
28.060        27
28.070        53
28.080        47
28.090        33
28.100        47
28.110        33
28.120        13
28.130        13
28.140        40
28.150        47
28.160        27
28.170        20
28.180        27
28.190        33
28.200        20
28.210        40
28.220        27
28.230        20
28.240        47
28.250        27
28.260         0
28.270        20
28.280        40
28.290        27
28.300        20
28.310        20
28.320        33
28.330        27
28.340        27
28.350        20
28.360        53
28.370        60
28.380        33
28.390        27
28.400        13
28.410        13
28.420        33
28.430        27
28.440        20
28.450        40
28.460        13
28.470        20
28.480        27
28.490        33
28.500        27
28.510        40
28.520        27
28.530        27
28.540        47
28.550        13
28.560        33
28.570        27
28.580        27
28.590        33
28.600        47
28.610        33
28.620        33
28.630        47
28.640        13
28.650        13
28.660        33
28.670        13
28.680         7
28.690         7
28.700        40
28.710        13
28.720        60
28.730        33
28.740        33
28.750         7
28.760        33
28.770        20
28.780        47
28.790        27
28.800        33
28.810        47
28.820        40
28.830        20
28.840        67
28.850        40
28.860        20
28.870        20
28.880        27
28.890        40
28.900        20
28.910        13
28.920        33
28.930        27
28.940        13
28.950        13
28.960        27
28.970        40
28.980        27
28.990        13
29.000        33
29.010         7
29.020        40
29.030        53
29.040        33
29.050        27
29.060        33
29.070        33
29.080        27
29.090         7
29.100        33
29.110        20
29.120        53
29.130        13
29.140        33
29.150        60
29.160        13
29.170        40
29.180         7
29.190        33
29.200        20
29.210        20
29.220        33
29.230        47
29.240         7
29.250        13
29.260        27
29.270        20
29.280        53
29.290        47
29.300        27
29.310        27
29.320        27
29.330        60
29.340        40
29.350        53
29.360        27
29.370        27
29.380        53
29.390        47
29.400        27
29.410        27
29.420         7
29.430        27
29.440        13
29.450        13
29.460        27
29.470        20
29.480        27
29.490        27
29.500        40
29.510        53
29.520        20
29.530        47
29.540        27
29.550        40
29.560        27
29.570        27
29.580        33
29.590        33
29.600        27
29.610        33
29.620        20
29.630        33
29.640        20
29.650        13
29.660        13
29.670        33
29.680        27
29.690        13
29.700        27
29.710        33
29.720        20
29.730        13
29.740        20
29.750        13
29.760        33
29.770        27
29.780        20
29.790        47
29.800        20
29.810        27
29.820        13
29.830        20
29.840        27
29.850        47
29.860        13
29.870        20
29.880        20
29.890         7
29.900        13
29.910        53
29.920        40
29.930        73
29.940        27
29.950        33
29.960        27
29.970        33
29.980        33
29.990        47
30.000        20
30.010        27
30.020         7
30.030        33
30.040        27
30.050        20
30.060        13
30.070        33
30.080        27
30.090        20
30.100        20
30.110        13
30.120        33
30.130        13
30.140        60
30.150        20
30.160        27
30.170         7
30.180        13
30.190        27
30.200        13
30.210        40
30.220        47
30.230        53
30.240        33
30.250        47
30.260         7
30.270        20
30.280        40
30.290        33
30.300        33
30.310        20
30.320        40
30.330        33
30.340        40
30.350        20
30.360        47
30.370        33
30.380        20
30.390        13
30.400        27
30.410        13
30.420         7
30.430        20
30.440        13
30.450        27
30.460        20
30.470        20
30.480        27
30.490        47
30.500        13
30.510        33
30.520        27
30.530         0
30.540        20
30.550        20
30.560        33
30.570        27
30.580        20
30.590        47
30.600        27
30.610        27
30.620        27
30.630        13
30.640        27
30.650        20
30.660        27
30.670        33
30.680        27
30.690         0
30.700        13
30.710        33
30.720        33
30.730         0
30.740        13
30.750         0
30.760        27
30.770        20
30.780        27
30.790         7
30.800         7
30.810        27
30.820        53
30.830         7
30.840        40
30.850        40
30.860        33
30.870         7
30.880        20
30.890        27
30.900        27
30.910        33
30.920        20
30.930        47
30.940        33
30.950        53
30.960         7
30.970         7
30.980        27
30.990         7
31.000        53
31.010        40
31.020        40
31.030        20
31.040        40
31.050        13
31.060        20
31.070        27
31.080        53
31.090        40
31.100        27
31.110        53
31.120        13
31.130        20
31.140        13
31.150        27
31.160        33
31.170        20
31.180        33
31.190        47
31.200        27
31.210        27
31.220         7
31.230        13
31.240        33
31.250        20
31.260        33
31.270        27
31.280        20
31.290        20
31.300        47
31.310        20
31.320        33
31.330        33
31.340        33
31.350        40
31.360        33
31.370        73
31.380        53
31.390        33
31.400        33
31.410        20
31.420         7
31.430        40
31.440        40
31.450        20
31.460        47
31.470        13
31.480        40
31.490        20
31.500        67
31.510        53
31.520        47
31.530        33
31.540        47
31.550        20
31.560        40
31.570         7
31.580        27
31.590        47
31.600        47
31.610        47
31.620        13
31.630         7
31.640        33
31.650        40
31.660        13
31.670        20
31.680        13
31.690        13
31.700        13
31.710        40
31.720        53
31.730        27
31.740        53
31.750        20
31.760        27
31.770        13
31.780        27
31.790        13
31.800        20
31.810        27
31.820        20
31.830        20
31.840        13
31.850        27
31.860        53
31.870        53
31.880        27
31.890        33
31.900        40
31.910        40
31.920        40
31.930        27
31.940        47
31.950        20
31.960        53
31.970        33
31.980        33
31.990        33
32.000        53
32.010        27
32.020        67
32.030        33
32.040        60
32.050        40
32.060        13
32.070        67
32.080        20
32.090        40
32.100        53
32.110        47
32.120        40
32.130        60
32.140        20
32.150        67
32.160        60
32.170        33
32.180        60
32.190       100
32.200        67
32.210        73
32.220       120
32.230       113
32.240       100
32.250       133
32.260       140
32.270        87
32.280        80
32.290       140
32.300       113
32.310       153
32.320       187
32.330       180
32.340       233
32.350       200
32.360       227
32.370       300
32.380       307
32.390       347
32.400       426
32.410       373
32.420       360
32.430       460
32.440       407
32.450       493
32.460       466
32.470       560
32.480       553
32.490       466
32.500       426
32.510       506
32.520       353
32.530       480
32.540       433
32.550       387
32.560       373
32.570       340
32.580       227
32.590       247
32.600       240
32.610       187
32.620       160
32.630       180
32.640       167
32.650       153
32.660       100
32.670       100
32.680       100
32.690       147
32.700       133
32.710        93
32.720        87
32.730        53
32.740        80
32.750        40
32.760        80
32.770        80
32.780        87
32.790        27
32.800        27
32.810        40
32.820        73
32.830        33
32.840        40
32.850        80
32.860        13
32.870        40
32.880        93
32.890        20
32.900        33
32.910        27
32.920         7
32.930        53
32.940         7
32.950        33
32.960        20
32.970        27
32.980        53
32.990        73
33.000        53
33.010        53
33.020        40
33.030        40
33.040        33
33.050        27
33.060        20
33.070        20
33.080        47
33.090        53
33.100        53
33.110        13
33.120        27
33.130        33
33.140        13
33.150        13
33.160        13
33.170        40
33.180        27
33.190        13
33.200        40
33.210        27
33.220        20
33.230        33
33.240        33
33.250        33
33.260        47
33.270        20
33.280        60
33.290        20
33.300        40
33.310        33
33.320        60
33.330        27
33.340        47
33.350        33
33.360        27
33.370        27
33.380        13
33.390        27
33.400        33
33.410        53
33.420        33
33.430        53
33.440        33
33.450        47
33.460        53
33.470        13
33.480        40
33.490        20
33.500        20
33.510        40
33.520        47
33.530        47
33.540        33
33.550        27
33.560        47
33.570        20
33.580        47
33.590        40
33.600        33
33.610         7
33.620        13
33.630        47
33.640        20
33.650        20
33.660        13
33.670        20
33.680        13
33.690        20
33.700        20
33.710        27
33.720        33
33.730        33
33.740        47
33.750         7
33.760        27
33.770        47
33.780        27
33.790        27
33.800        20
33.810        40
33.820        33
33.830        27
33.840        27
33.850        27
33.860        20
33.870        47
33.880        47
33.890        33
33.900        20
33.910        13
33.920        20
33.930        33
33.940        20
33.950        40
33.960        47
33.970        27
33.980        47
33.990        27
34.000        53
34.010        20
34.020        20
34.030        47
34.040        20
34.050        33
34.060        20
34.070        60
34.080        33
34.090        13
34.100        20
34.110        33
34.120        20
34.130        47
34.140        47
34.150        40
34.160        27
34.170        20
34.180        27
34.190         7
34.200        20
34.210        20
34.220        33
34.230        13
34.240        20
34.250        20
34.260        20
34.270        13
34.280        33
34.290        27
34.300        40
34.310        13
34.320         7
34.330        33
34.340        20
34.350        47
34.360        13
34.370        13
34.380        27
34.390        20
34.400        13
34.410         7
34.420         7
34.430        27
34.440         0
34.450         7
34.460        20
34.470        53
34.480        27
34.490        53
34.500         7
34.510        20
34.520        20
34.530        27
34.540        67
34.550        40
34.560        40
34.570        40
34.580        27
34.590        33
34.600        13
34.610        27
34.620        20
34.630        20
34.640        47
34.650        47
34.660        40
34.670        33
34.680        33
34.690        27
34.700        20
34.710        13
34.720        47
34.730        20
34.740        33
34.750        53
34.760        27
34.770        20
34.780        47
34.790        20
34.800        47
34.810         7
34.820        33
34.830        20
34.840        27
34.850        33
34.860        13
34.870        33
34.880        40
34.890        27
34.900        40
34.910        47
34.920        33
34.930        53
34.940        40
34.950        47
34.960        53
34.970        80
34.980        93
34.990        53
35.000        53
35.010        20
35.020        47
35.030       100
35.040        80
35.050       140
35.060       187
35.070        93
35.080       220
35.090       220
35.100       160
35.110       253
35.120       280
35.130       267
35.140       287
35.150       466
35.160       360
35.170       640
35.180       553
35.190       666
35.200       740
35.210       580
35.220       546
35.230       446
35.240       433
35.250       400
35.260       320
35.270       300
35.280       260
35.290       320
35.300       187
35.310       140
35.320       153
35.330       147
35.340       113
35.350        60
35.360        47
35.370         7
35.380        20
35.390        20
35.400        27
35.410        27
35.420        33
35.430        33
35.440        20
35.450        20
35.460        53
35.470         7
35.480        20
35.490        33
35.500        20
35.510        60
35.520        13
35.530        33
35.540         0
35.550        27
35.560        13
35.570        20
35.580        20
35.590        20
35.600        13
35.610        20
35.620        33
35.630        20
35.640        33
35.650        47
35.660        33
35.670         7
35.680        13
35.690        33
35.700        20
35.710        33
35.720        40
35.730        13
35.740         0
35.750        27
35.760        13
35.770         7
35.780        13
35.790         0
35.800        47
35.810        13
35.820        20
35.830        20
35.840        20
35.850        40
35.860        13
35.870        33
35.880        20
35.890        13
35.900        27
35.910        13
35.920        27
35.930        27
35.940        27
35.950        27
35.960        40
35.970        20
35.980        33
35.990        13
36.000         7
36.010        13
36.020        13
36.030        33
36.040        27
36.050        13
36.060        20
36.070        33
36.080        33
36.090        13
36.100        47
36.110        27
36.120        20
36.130        33
36.140        40
36.150        13
36.160        27
36.170        27
36.180        33
36.190        33
36.200        40
36.210        47
36.220        47
36.230        27
36.240         0
36.250        13
36.260        20
36.270         0
36.280        53
36.290        27
36.300        27
36.310         7
36.320        20
36.330        33
36.340        20
36.350        13
36.360        13
36.370        33
36.380         7
36.390        27
36.400        27
36.410        33
36.420         7
36.430        40
36.440        47
36.450        53
36.460        13
36.470        20
36.480        33
36.490        20
36.500        13
36.510        13
36.520        47
36.530         7
36.540        20
36.550         7
36.560        13
36.570         0
36.580        13
36.590        53
36.600        20
36.610        27
36.620        20
36.630        40
36.640        53
36.650        20
36.660        40
36.670         7
36.680        20
36.690        27
36.700        20
36.710         7
36.720         7
36.730        20
36.740        13
36.750         7
36.760        53
36.770        27
36.780        20
36.790        20
36.800        20
36.810        33
36.820        40
36.830         7
36.840        27
36.850        27
36.860        47
36.870        27
36.880        33
36.890        20
36.900        40
36.910        20
36.920         7
36.930        33
36.940        53
36.950        33
36.960        33
36.970        73
36.980        40
36.990        27
37.000        40
37.010        33
37.020        53
37.030        40
37.040        27
37.050        27
37.060        47
37.070        47
37.080        47
37.090        13
37.100        27
37.110        53
37.120        20
37.130        33
37.140        13
37.150        20
37.160         7
37.170         7
37.180        13
37.190        47
37.200        33
37.210        27
37.220         7
37.230        27
37.240        33
37.250        20
37.260        60
37.270        13
37.280        33
37.290        13
37.300        20
37.310         7
37.320         7
37.330        40
37.340        20
37.350        20
37.360        47
37.370        33
37.380        33
37.390        20
37.400        33
37.410        20
37.420        40
37.430        20
37.440        47
37.450        13
37.460         7
37.470        20
37.480        13
37.490        47
37.500        53
37.510        20
37.520        33
37.530        13
37.540        27
37.550        20
37.560         7
37.570        40
37.580        53
37.590        33
37.600        60
37.610        33
37.620        20
37.630        47
37.640        27
37.650        20
37.660        20
37.670        47
37.680        33
37.690        33
37.700        33
37.710        53
37.720        67
37.730        87
37.740        53
37.750        80
37.760       167
37.770       187
37.780       153
37.790       153
37.800        80
37.810        87
37.820       127
37.830        60
37.840        87
37.850        73
37.860       127
37.870        80
37.880        80
37.890        87
37.900       107
37.910        53
37.920        53
37.930        53
37.940        40
37.950        40
37.960        20
37.970        33
37.980        47
37.990        20
38.000         7
38.010        27
38.020        20
38.030        33
38.040        47
38.050        13
38.060        33
38.070         7
38.080        13
38.090        27
38.100        33
38.110        13
38.120         7
38.130        20
38.140        27
38.150        40
38.160        20
38.170        33
38.180        40
38.190        13
38.200        47
38.210        20
38.220        20
38.230        27
38.240        33
38.250         7
38.260        40
38.270        20
38.280        20
38.290        27
38.300        33
38.310        33
38.320         7
38.330        33
38.340        27
38.350        20
38.360        27
38.370        20
38.380        13
38.390        27
38.400         0
38.410        13
38.420        20
38.430        13
38.440         7
38.450        20
38.460        13
38.470        27
38.480        33
38.490        33
38.500         0
38.510        33
38.520        20
38.530        33
38.540        20
38.550         7
38.560        27
38.570         7
38.580         7
38.590        33
38.600         7
38.610        27
38.620        53
38.630         7
38.640        40
38.650        33
38.660        20
38.670        33
38.680        47
38.690        27
38.700        20
38.710        20
38.720        13
38.730        33
38.740        27
38.750        27
38.760        27
38.770        33
38.780        20
38.790        13
38.800        67
38.810        13
38.820        40
38.830        13
38.840        13
38.850        20
38.860        20
38.870        20
38.880        47
38.890        20
38.900        20
38.910         7
38.920        27
38.930        33
38.940        27
38.950         7
38.960        20
38.970        40
38.980        20
38.990        13
39.000         7
39.010         7
39.020        20
39.030        27
39.040        27
39.050        13
39.060        47
39.070         7
39.080        27
39.090        27
39.100        33
39.110        20
39.120        13
39.130        27
39.140        20
39.150        20
39.160        33
39.170         7
39.180        47
39.190        27
39.200        27
39.210         7
39.220        13
39.230        33
39.240        27
39.250        27
39.260        13
39.270        27
39.280        20
39.290        33
39.300        40
39.310        33
39.320        20
39.330        47
39.340        27
39.350        20
39.360        27
39.370        13
39.380        13
39.390        13
39.400        27
39.410        13
39.420        33
39.430        33
39.440        13
39.450        27
39.460        27
39.470        27
39.480        27
39.490        13
39.500        13
39.510        13
39.520        27
39.530        13
39.540        27
39.550        40
39.560        33
39.570        20
39.580        20
39.590        13
39.600        47
39.610        20
39.620        13
39.630        13
39.640        20
39.650        27
39.660        27
39.670        33
39.680        33
39.690        27
39.700        40
39.710        20
39.720         7
39.730        53
39.740         7
39.750         7
39.760        33
39.770        33
39.780        27
39.790        27
39.800        40
39.810        47
39.820        33
39.830        40
39.840        20
39.850        27
39.860        40
39.870        40
39.880        53
39.890        33
39.900        53
39.910        40
39.920        40
39.930        33
39.940        47
39.950        60
39.960        73
39.970        60
39.980        87
39.990        67
40.000        87
40.010        60
40.020        67
40.030        27
40.040        60
40.050        73
40.060        80
40.070        40
40.080        40
40.090        60
40.100        80
40.110        87
40.120        40
40.130        53
40.140        53
40.150        67
40.160        47
40.170        47
40.180        33
40.190        27
40.200        40
40.210        27
40.220        47
40.230        20
40.240        33
40.250        27
40.260        27
40.270        60
40.280        27
40.290        53
40.300        33
40.310        20
40.320        20
40.330        67
40.340        40
40.350        13
40.360         7
40.370        27
40.380        33
40.390        13
40.400        13
40.410        13
40.420        13
40.430        40
40.440        27
40.450        27
40.460        27
40.470         7
40.480        27
40.490        13
40.500        20
40.510        53
40.520        13
40.530        20
40.540        13
40.550        13
40.560        27
40.570        20
40.580        27
40.590        33
40.600        20
40.610        40
40.620        13
40.630         7
40.640        40
40.650        27
40.660        33
40.670        13
40.680        27
40.690        13
40.700        20
40.710         7
40.720        40
40.730        40
40.740        20
40.750        13
40.760        27
40.770        20
40.780        20
40.790        13
40.800         7
40.810        13
40.820        40
40.830        33
40.840         7
40.850        40
40.860        40
40.870        27
40.880        20
40.890        27
40.900        27
40.910        13
40.920        40
40.930         7
40.940         7
40.950         7
40.960        20
40.970        27
40.980        20
40.990        13
41.000        40
41.010        20
41.020        20
41.030         7
41.040         7
41.050        13
41.060        20
41.070        40
41.080        27
41.090        13
41.100        40
41.110        20
41.120        20
41.130        20
41.140        20
41.150        13
41.160        27
41.170        27
41.180        33
41.190        27
41.200        40
41.210         7
41.220        47
41.230        20
41.240        27
41.250         7
41.260        27
41.270        47
41.280        13
41.290        47
41.300        13
41.310        20
41.320        13
41.330        27
41.340        20
41.350        20
41.360        40
41.370        40
41.380        47
41.390        27
41.400         7
41.410        20
41.420        20
41.430        27
41.440        20
41.450        20
41.460         0
41.470        27
41.480        13
41.490        60
41.500        27
41.510         7
41.520        33
41.530        33
41.540        40
41.550        47
41.560        33
41.570        27
41.580        13
41.590        13
41.600        47
41.610        47
41.620        73
41.630        87
41.640        53
41.650        87
41.660        93
41.670       127
41.680       120
41.690       107
41.700       167
41.710       167
41.720       127
41.730       140
41.740       187
41.750       113
41.760       120
41.770        47
41.780        73
41.790       107
41.800        80
41.810        87
41.820       100
41.830       107
41.840        73
41.850        47
41.860        87
41.870       107
41.880         7
41.890        73
41.900        27
41.910        33
41.920        27
41.930        33
41.940        33
41.950        20
41.960        33
41.970        13
41.980        13
41.990        27
42.000        13
42.010        20
42.020        13
42.030        47
42.040        27
42.050        27
42.060        33
42.070        33
42.080        13
42.090        27
42.100        27
42.110        27
42.120        20
42.130        33
42.140        20
42.150        27
42.160         0
42.170        53
42.180        27
42.190        47
42.200        27
42.210        27
42.220        13
42.230         7
42.240        13
42.250        40
42.260         7
42.270         7
42.280        20
42.290         7
42.300        13
42.310         0
42.320        20
42.330        27
42.340        27
42.350        13
42.360        33
42.370        27
42.380        27
42.390        20
42.400        33
42.410        47
42.420        27
42.430        20
42.440        33
42.450         0
42.460        27
42.470        13
42.480        40
42.490        13
42.500        13
42.510        20
42.520        13
42.530        20
42.540        13
42.550         7
42.560        13
42.570        20
42.580         7
42.590         7
42.600         7
42.610        20
42.620        27
42.630        33
42.640        13
42.650         7
42.660        33
42.670         0
42.680        20
42.690        40
42.700        20
42.710        33
42.720         7
42.730        20
42.740        33
42.750        93
42.760        13
42.770        53
42.780        13
42.790        40
42.800        27
42.810        27
42.820         0
42.830         7
42.840        40
42.850        20
42.860        20
42.870        20
42.880        20
42.890         7
42.900        33
42.910        33
42.920        33
42.930        13
42.940        40
42.950        27
42.960        27
42.970        13
42.980        20
42.990        13
43.000        33
43.010        20
43.020        20
43.030        13
43.040         7
43.050        20
43.060        53
43.070        13
43.080         7
43.090        40
43.100        13
43.110        20
43.120        20
43.130        20
43.140         7
43.150        27
43.160        40
43.170        33
43.180        40
43.190        40
43.200        13
43.210        73
43.220        27
43.230        47
43.240        67
43.250        53
43.260        20
43.270        93
43.280        53
43.290        47
43.300        80
43.310        47
43.320        73
43.330        87
43.340       120
43.350       167
43.360       160
43.370       187
43.380       180
43.390       293
43.400       213
43.410       233
43.420       327
43.430       240
43.440       207
43.450       153
43.460       200
43.470        73
43.480       167
43.490       147
43.500       167
43.510       167
43.520        80
43.530       140
43.540       173
43.550        80
43.560       107
43.570        73
43.580        47
43.590        33
43.600        53
43.610        47
43.620        47
43.630        27
43.640        20
43.650        40
43.660        20
43.670        33
43.680        40
43.690        27
43.700        47
43.710        13
43.720         7
43.730        13
43.740        20
43.750        20
43.760        27
43.770        13
43.780        33
43.790        20
43.800         7
43.810        13
43.820        20
43.830        27
43.840        20
43.850         7
43.860        13
43.870         0
43.880        33
43.890         0
43.900        20
43.910        13
43.920        13
43.930        13
43.940        27
43.950        27
43.960        20
43.970        27
43.980        27
43.990        13
44.000        13
44.010        13
44.020        27
44.030         0
44.040        40
44.050         7
44.060        13
44.070         7
44.080        40
44.090        20
44.100         7
44.110        33
44.120        13
44.130        20
44.140         7
44.150        27
44.160        47
44.170        27
44.180        20
44.190        13
44.200        13
44.210        20
44.220        27
44.230        27
44.240        20
44.250        13
44.260         7
44.270         7
44.280        20
44.290        47
44.300        13
44.310        33
44.320        20
44.330        13
44.340        13
44.350         0
44.360        33
44.370        13
44.380        20
44.390        20
44.400        20
44.410        20
44.420        13
44.430         7
44.440        27
44.450        20
44.460         7
44.470        13
44.480        13
44.490        27
44.500        20
44.510        33
44.520        13
44.530        47
44.540        20
44.550        27
44.560        33
44.570        20
44.580        13
44.590        20
44.600        33
44.610        27
44.620        40
44.630        20
44.640        13
44.650        27
44.660        20
44.670        27
44.680        33
44.690        40
44.700        40
44.710        40
44.720         7
44.730        13
44.740        20
44.750        20
44.760        27
44.770        27
44.780        13
44.790        33
44.800        47
44.810        33
44.820        20
44.830        27
44.840        60
44.850        27
44.860        40
44.870        20
44.880        13
44.890        27
44.900        27
44.910        47
44.920         0
44.930        33
44.940        27
44.950        20
44.960        60
44.970        40
44.980        20
44.990        20
45.000        40
45.010        40
45.020        20
45.030        27
45.040        33
45.050        27
45.060        27
45.070        27
45.080        13
45.090        67
45.100        20
45.110        40
45.120        20
45.130         7
45.140        13
45.150        33
45.160        47
45.170        33
45.180        27
45.190        80
45.200        53
45.210        27
45.220        20
45.230        33
45.240        47
45.250        20
45.260        20
45.270        27
45.280         7
45.290        13
45.300        20
45.310        20
45.320         7
45.330        27
45.340        40
45.350        33
45.360        13
45.370        27
45.380         7
45.390        20
45.400        33
45.410        40
45.420        47
45.430        13
45.440        20
45.450        20
45.460        20
45.470        40
45.480        20
45.490        20
45.500        33
45.510        27
45.520        47
45.530        27
45.540        27
45.550        27
45.560        53
45.570        20
45.580        53
45.590        27
45.600        33
45.610        47
45.620        13
45.630        13
45.640        47
45.650        13
45.660        73
45.670        27
45.680        33
45.690        53
45.700        67
45.710        33
45.720        47
45.730        47
45.740        27
45.750        73
45.760        33
45.770        27
45.780        40
45.790        13
45.800        40
45.810        13
45.820        47
45.830        53
45.840        53
45.850        67
45.860        20
45.870        13
45.880        80
45.890        67
45.900        67
45.910        47
45.920        33
45.930        47
45.940        27
45.950        73
45.960        47
45.970        67
45.980        20
45.990        47
46.000        67
46.010        60
46.020        53
46.030        53
46.040       100
46.050        53
46.060        93
46.070        87
46.080        93
46.090        80
46.100        93
46.110        93
46.120       120
46.130       140
46.140       107
46.150       133
46.160       113
46.170       180
46.180       127
46.190       113
46.200        93
46.210       247
46.220       180
46.230       160
46.240       167
46.250       273
46.260       213
46.270       267
46.280       233
46.290       247
46.300       287
46.310       287
46.320       360
46.330       420
46.340       380
46.350       426
46.360       367
46.370       553
46.380       566
46.390       553
46.400       613
46.410       646
46.420       613
46.430       746
46.440       826
46.450       846
46.460       920
46.470       800
46.480       846
46.490       873
46.500       946
46.510      1026
46.520      1193
46.530       986
46.540      1106
46.550      1026
46.560       973
46.570      1180
46.580      1106
46.590      1053
46.600      1166
46.610      1000
46.620      1126
46.630       846
46.640       920
46.650       993
46.660       913
46.670       873
46.680       946
46.690       586
46.700       693
46.710       573
46.720       686
46.730       433
46.740       533
46.750       546
46.760       580
46.770       307
46.780       340
46.790       440
46.800       327
46.810       300
46.820       287
46.830       287
46.840       253
46.850       207
46.860       253
46.870       233
46.880       327
46.890       207
46.900       193
46.910       140
46.920       213
46.930       127
46.940       113
46.950        93
46.960       193
46.970        93
46.980       107
46.990       113
47.000        73
47.010        60
47.020       147
47.030       107
47.040        60
47.050        93
47.060        73
47.070        87
47.080       107
47.090        67
47.100        87
47.110        47
47.120        67
47.130       100
47.140        67
47.150        73
47.160        67
47.170        53
47.180        47
47.190        60
47.200        67
47.210        40
47.220        40
47.230        53
47.240        47
47.250        73
47.260        47
47.270        53
47.280        47
47.290        20
47.300        80
47.310        67
47.320        40
47.330        40
47.340        33
47.350        60
47.360        93
47.370         7
47.380        53
47.390        53
47.400        67
47.410        27
47.420        33
47.430        40
47.440        40
47.450        20
47.460         7
47.470        27
47.480        20
47.490        53
47.500        40
47.510        40
47.520        60
47.530        20
47.540        20
47.550        27
47.560        20
47.570        33
47.580        33
47.590        47
47.600        47
47.610        47
47.620        40
47.630        33
47.640        20
47.650        33
47.660        33
47.670        33
47.680        20
47.690        20
47.700        13
47.710        47
47.720        60
47.730        33
47.740         7
47.750        13
47.760        40
47.770        20
47.780        40
47.790        40
47.800        13
47.810        20
47.820        47
47.830        20
47.840        27
47.850        27
47.860        13
47.870        27
47.880         7
47.890        27
47.900        27
47.910        40
47.920        27
47.930        40
47.940        20
47.950        33
47.960        33
47.970        27
47.980        40
47.990        67
48.000        47
48.010        33
48.020        20
48.030        27
48.040        47
48.050        20
48.060        27
48.070        33
48.080        33
48.090        13
48.100        27
48.110        20
48.120         7
48.130        20
48.140        53
48.150        33
48.160        20
48.170        27
48.180        20
48.190        40
48.200        20
48.210        47
48.220        20
48.230        13
48.240        60
48.250        27
48.260        13
48.270         7
48.280        20
48.290        13
48.300        13
48.310         7
48.320        13
48.330        40
48.340        40
48.350        13
48.360         7
48.370        13
48.380         7
48.390        33
48.400        20
48.410        53
48.420        27
48.430        27
48.440        20
48.450         7
48.460        20
48.470        20
48.480        20
48.490        13
48.500        20
48.510        27
48.520        27
48.530        13
48.540        13
48.550        33
48.560        73
48.570        20
48.580        20
48.590        13
48.600        40
48.610        20
48.620        27
48.630        33
48.640        33
48.650        20
48.660        60
48.670        20
48.680        40
48.690        20
48.700        27
48.710        27
48.720        13
48.730         7
48.740        13
48.750         7
48.760        27
48.770        27
48.780        33
48.790         0
48.800        13
48.810        13
48.820        13
48.830         7
48.840        13
48.850        13
48.860        33
48.870        20
48.880        33
48.890        20
48.900        13
48.910        40
48.920        33
48.930        33
48.940        27
48.950        20
48.960        20
48.970        27
48.980        47
48.990         7
49.000        13
49.010        33
49.020        13
49.030        20
49.040        33
49.050        20
49.060         7
49.070        20
49.080        13
49.090        47
49.100        33
49.110        20
49.120         7
49.130        13
49.140        13
49.150         0
49.160        20
49.170        27
49.180        33
49.190        47
49.200        13
49.210         0
49.220        13
49.230         7
49.240        13
49.250         0
49.260        33
49.270        13
49.280        20
49.290        20
49.300        40
49.310        27
49.320         7
49.330        13
49.340        20
49.350        27
49.360        27
49.370        13
49.380        13
49.390        33
49.400        13
49.410        13
49.420         7
49.430        13
49.440        27
49.450        20
49.460         7
49.470        20
49.480        27
49.490        27
49.500        33
49.510        13
49.520        20
49.530         7
49.540        40
49.550        13
49.560        20
49.570        40
49.580        20
49.590         7
49.600        40
49.610        13
49.620        20
49.630        33
49.640        27
49.650        13
49.660        47
49.670         7
49.680        13
49.690        33
49.700        40
49.710        33
49.720        13
49.730         0
49.740         7
49.750         7
49.760        33
49.770        20
49.780        13
49.790         7
49.800        13
49.810         7
49.820        27
49.830        67
49.840        27
49.850        20
49.860         7
49.870        27
49.880         7
49.890        13
49.900         0
49.910         7
49.920        20
49.930         0
49.940        27
49.950        13
49.960         0
49.970         7
49.980        13
49.990         7
50.000        20
50.010        33
50.020         7
50.030        60
50.040        13
50.050        33
50.060        13
50.070        20
50.080         7
50.090         7
50.100         7
50.110        20
50.120        20
50.130         7
50.140        27
50.150        27
50.160        20
50.170        13
50.180        13
50.190        33
50.200        13
50.210        27
50.220        40
50.230        27
50.240        13
50.250         0
50.260         0
50.270        27
50.280         7
50.290        20
50.300         7
50.310        13
50.320         7
50.330        13
50.340        13
50.350         7
50.360        13
50.370        33
50.380        13
50.390        40
50.400        13
50.410        20
50.420         7
50.430         7
50.440        13
50.450        20
50.460        13
50.470        53
50.480        27
50.490        20
50.500         0
50.510        13
50.520         7
50.530        20
50.540        20
50.550        33
50.560        20
50.570         7
50.580         7
50.590         7
50.600        20
50.610        13
50.620         0
50.630         7
50.640        33
50.650        27
50.660        27
50.670        13
50.680         7
50.690        20
50.700        33
50.710         0
50.720        20
50.730         7
50.740         7
50.750         7
50.760        13
50.770        20
50.780        20
50.790        13
50.800         7
50.810        20
50.820        20
50.830        20
50.840        20
50.850        20
50.860        13
50.870        20
50.880        20
50.890        40
50.900        20
50.910        27
50.920         7
50.930         7
50.940        20
50.950        20
50.960        40
50.970        47
50.980        13
50.990        53
51.000         0
51.010        20
51.020         7
51.030        20
51.040        27
51.050        27
51.060         7
51.070        13
51.080         7
51.090        13
51.100        13
51.110        13
51.120        33
51.130         7
51.140        47
51.150        13
51.160        27
51.170        33
51.180        33
51.190         7
51.200         7
51.210        27
51.220        33
51.230        20
51.240        13
51.250         7
51.260         7
51.270        13
51.280        13
51.290        27
51.300         0
51.310        13
51.320        20
51.330        40
51.340         7
51.350        27
51.360        20
51.370         0
51.380        33
51.390        13
51.400         7
51.410        27
51.420        27
51.430        27
51.440        13
51.450         7
51.460        20
51.470        20
51.480         7
51.490        13
51.500        20
51.510        33
51.520         0
51.530        27
51.540         7
51.550        27
51.560        27
51.570        40
51.580        20
51.590        27
51.600         7
51.610        20
51.620         0
51.630        33
51.640        27
51.650        33
51.660        20
51.670        20
51.680        13
51.690        27
51.700        13
51.710        13
51.720         7
51.730        27
51.740        20
51.750        13
51.760        33
51.770         0
51.780        13
51.790         7
51.800        33
51.810        20
51.820        13
51.830        33
51.840        33
51.850        20
51.860        13
51.870        33
51.880         0
51.890        20
51.900        20
51.910         7
51.920        47
51.930        20
51.940         7
51.950        13
51.960        13
51.970        33
51.980         7
51.990        13
52.000        13
52.010        20
52.020        27
52.030         0
52.040        20
52.050        13
52.060        53
52.070        13
52.080         7
52.090         7
52.100         7
52.110        20
52.120         0
52.130        27
52.140        13
52.150         7
52.160         7
52.170        13
52.180         7
52.190        20
52.200         0
52.210         0
52.220        60
52.230        27
52.240        20
52.250        20
52.260        13
52.270        33
52.280        13
52.290        20
52.300         7
52.310        13
52.320        13
52.330        20
52.340        20
52.350        33
52.360        40
52.370        20
52.380        27
52.390        33
52.400        47
52.410        40
52.420        40
52.430        13
52.440        27
52.450        13
52.460        13
52.470        27
52.480        33
52.490        27
52.500        40
52.510        33
52.520        53
52.530        47
52.540        80
52.550       100
52.560       113
52.570       127
52.580       140
52.590       180
52.600       233
52.610       233
52.620       167
52.630       167
52.640       153
52.650       140
52.660       140
52.670       107
52.680        73
52.690        87
52.700        73
52.710        67
52.720        73
52.730       100
52.740        80
52.750       133
52.760       153
52.770        80
52.780       113
52.790        60
52.800        60
52.810        67
52.820        80
52.830        20
52.840        13
52.850        20
52.860        40
52.870        20
52.880        20
52.890        13
52.900        27
52.910        33
52.920         0
52.930         0
52.940         7
52.950         0
52.960        20
52.970        33
52.980        27
52.990        40
53.000         7
53.010        27
53.020        27
53.030        27
53.040        20
53.050        13
53.060        13
53.070        20
53.080        27
53.090         7
53.100        33
53.110        13
53.120        20
53.130        13
53.140        27
53.150         7
53.160         7
53.170        40
53.180        13
53.190        27
53.200        33
53.210         0
53.220        27
53.230        13
53.240        20
53.250        13
53.260        13
53.270        20
53.280        20
53.290        13
53.300         7
53.310        13
53.320         7
53.330        27
53.340        20
53.350        13
53.360        40
53.370        13
53.380        13
53.390        20
53.400        47
53.410        13
53.420        13
53.430        13
53.440        13
53.450        20
53.460         7
53.470        27
53.480        27
53.490        20
53.500        13
53.510         0
53.520         7
53.530        13
53.540        33
53.550        40
53.560        20
53.570        33
53.580        33
53.590         7
53.600        20
53.610        13
53.620        13
53.630        13
53.640         7
53.650         0
53.660        27
53.670         0
53.680         7
53.690         0
53.700        13
53.710         7
53.720        33
53.730        27
53.740        13
53.750        20
53.760         7
53.770         7
53.780        20
53.790         7
53.800        20
53.810         0
53.820         7
53.830        13
53.840        13
53.850        40
53.860        13
53.870        27
53.880         7
53.890         7
53.900        13
53.910         7
53.920        20
53.930        20
53.940         7
53.950        13
53.960        27
53.970        13
53.980        27
53.990        13
54.000         7
54.010        13
54.020        33
54.030        13
54.040         0
54.050        13
54.060        13
54.070        20
54.080         0
54.090         0
54.100        13
54.110         7
54.120         7
54.130        20
54.140        27
54.150         7
54.160        27
54.170         0
54.180         0
54.190         7
54.200        20
54.210        13
54.220        47
54.230         7
54.240        13
54.250         0
54.260        20
54.270        27
54.280        27
54.290        20
54.300        40
54.310        13
54.320        40
54.330        27
54.340        20
54.350         7
54.360        27
54.370        20
54.380        20
54.390         7
54.400         7
54.410        20
54.420         7
54.430        20
54.440        27
54.450        20
54.460        27
54.470         7
54.480        20
54.490        13
54.500        27
54.510        13
54.520        13
54.530        33
54.540        13
54.550        13
54.560        20
54.570         7
54.580         7
54.590         7
54.600        27
54.610        13
54.620        13
54.630        33
54.640        13
54.650        27
54.660        13
54.670        13
54.680         0
54.690        20
54.700        20
54.710        13
54.720        13
54.730        13
54.740        20
54.750         0
54.760         7
54.770        13
54.780        20
54.790         7
54.800        13
54.810        20
54.820         7
54.830        13
54.840        20
54.850        13
54.860         0
54.870        20
54.880         7
54.890         0
54.900        20
54.910        13
54.920         7
54.930        13
54.940        20
54.950        13
54.960         7
54.970        20
54.980         7
54.990         7
55.000         7
55.010         7
55.020        27
55.030        20
55.040        13
55.050        33
55.060         0
55.070         7
55.080         7
55.090        13
55.100        20
55.110        13
55.120        20
55.130        20
55.140        20
55.150        13
55.160        13
55.170         0
55.180        20
55.190        40
55.200        20
55.210         7
55.220        27
55.230        13
55.240        13
55.250         7
55.260        20
55.270        27
55.280        13
55.290         7
55.300         7
55.310        20
55.320        20
55.330        27
55.340        27
55.350        27
55.360        27
55.370        20
55.380        27
55.390        13
55.400        20
55.410        20
55.420        20
55.430        27
55.440        13
55.450        20
55.460         0
55.470        27
55.480        20
55.490         7
55.500         7
55.510        20
55.520        13
55.530        13
55.540        27
55.550        13
55.560        13
55.570         7
55.580         0
55.590        40
55.600        27
55.610         7
55.620        20
55.630         7
55.640         7
55.650        20
55.660        13
55.670        33
55.680        13
55.690         0
55.700        13
55.710         7
55.720        13
55.730        13
55.740        20
55.750         7
55.760        20
55.770         0
55.780        20
55.790        20
55.800        13
55.810        20
55.820        13
55.830         0
55.840        67
55.850        20
55.860         7
55.870         7
55.880         7
55.890        20
55.900         0
55.910        20
55.920         0
55.930        20
55.940         0
55.950        13
55.960        33
55.970        33
55.980        27
55.990        20
56.000         7
56.010         0
56.020        20
56.030         7
56.040         7
56.050        20
56.060        20
56.070        20
56.080        27
56.090        40
56.100        20
56.110        13
56.120        13
56.130         0
56.140        13
56.150        13
56.160        20
56.170         0
56.180        33
56.190        13
56.200        20
56.210         7
56.220        13
56.230         7
56.240         7
56.250        20
56.260        13
56.270         7
56.280        13
56.290         0
56.300        13
56.310        13
56.320        13
56.330        13
56.340        13
56.350        20
56.360        20
56.370         0
56.380         7
56.390        33
56.400        20
56.410         0
56.420        13
56.430        20
56.440         0
56.450        20
56.460        20
56.470         7
56.480         7
56.490        20
56.500        13
56.510         7
56.520         7
56.530        33
56.540        20
56.550        13
56.560        20
56.570        20
56.580         7
56.590        27
56.600        27
56.610        13
56.620        27
56.630         7
56.640        20
56.650         7
56.660        20
56.670        20
56.680         7
56.690         7
56.700        33
56.710         7
56.720        20
56.730         7
56.740        33
56.750         7
56.760        20
56.770        13
56.780         0
56.790        33
56.800        13
56.810        13
56.820        27
56.830         7
56.840        13
56.850        47
56.860         7
56.870        27
56.880        20
56.890        13
56.900         0
56.910         7
56.920        13
56.930         0
56.940        20
56.950        13
56.960        13
56.970         0
56.980         0
56.990        27
57.000         7
57.010        27
57.020        13
57.030         0
57.040        27
57.050        27
57.060        20
57.070        40
57.080        20
57.090         0
57.100        13
57.110        40
57.120        27
57.130        13
57.140        13
57.150        20
57.160         0
57.170        27
57.180        33
57.190        20
57.200        20
57.210        27
57.220        20
57.230        20
57.240        33
57.250        47
57.260        20
57.270        20
57.280        20
57.290        20
57.300        27
57.310        27
57.320        40
57.330        27
57.340        33
57.350        20
57.360        40
57.370        27
57.380        33
57.390        40
57.400       107
57.410        67
57.420        60
57.430        73
57.440       107
57.450        80
57.460       133
57.470       173
57.480       220
57.490       260
57.500       260
57.510       387
57.520       453
57.530       473
57.540       566
57.550       560
57.560       640
57.570       500
57.580       500
57.590       533
57.600       347
57.610       240
57.620       173
57.630       200
57.640       160
57.650       173
57.660       213
57.670       293
57.680       333
57.690       287
57.700       280
57.710       360
57.720       280
57.730       293
57.740       260
57.750       207
57.760       140
57.770        80
57.780       120
57.790        67
57.800       100
57.810        60
57.820        60
57.830        80
57.840        33
57.850        67
57.860        27
57.870        20
57.880        13
57.890        20
57.900        20
57.910        27
57.920        40
57.930        53
57.940        20
57.950        60
57.960        13
57.970        27
57.980        47
57.990        47
58.000        60
58.010        27
58.020        33
58.030        33
58.040        27
58.050        20
58.060        27
58.070         7
58.080        20
58.090        27
58.100        27
58.110        20
58.120         0
58.130        33
58.140         7
58.150        20
58.160        40
58.170         7
58.180        20
58.190        13
58.200        13
58.210        33
58.220        20
58.230        40
58.240        13
58.250        27
58.260         7
58.270         7
58.280        27
58.290        13
58.300         0
58.310         7
58.320        27
58.330        13
58.340         7
58.350        20
58.360         0
58.370         7
58.380         0
58.390         0
58.400         7
58.410        20
58.420         0
58.430         7
58.440        20
58.450        13
58.460        47
58.470         7
58.480        20
58.490        13
58.500        20
58.510         7
58.520        13
58.530         7
58.540         7
58.550        13
58.560        27
58.570        27
58.580        20
58.590        20
58.600        20
58.610         0
58.620         0
58.630         7
58.640         7
58.650         7
58.660         7
58.670         7
58.680         7
58.690         7
58.700        13
58.710        20
58.720         7
58.730        13
58.740         7
58.750        13
58.760        13
58.770        13
58.780        13
58.790         7
58.800        20
58.810         0
58.820         7
58.830        20
58.840        13
58.850        27
58.860        13
58.870        13
58.880         7
58.890        20
58.900        13
58.910         0
58.920        13
58.930        20
58.940         7
58.950         7
58.960         7
58.970        27
58.980        20
58.990         7
59.000        27
59.010         7
59.020         7
59.030        20
59.040        13
59.050        20
59.060        13
59.070         7
59.080        20
59.090         7
59.100        13
59.110         0
59.120         7
59.130        13
59.140         0
59.150         7
59.160        73
59.170        27
59.180        33
59.190         7
59.200        13
59.210        13
59.220        13
59.230        13
59.240        33
59.250        20
59.260        27
59.270        40
59.280        20
59.290         0
59.300        27
59.310        13
59.320         7
59.330         0
59.340         7
59.350         7
59.360        20
59.370        13
59.380         0
59.390        13
59.400        13
59.410        13
59.420         0
59.430        13
59.440        13
59.450        20
59.460        33
59.470        27
59.480        13
59.490        13
59.500        20
59.510        20
59.520        13
59.530        20
59.540        20
59.550         7
59.560         7
59.570         7
59.580        20
59.590        33
59.600         7
59.610        33
59.620        20
59.630        13
59.640        27
59.650        13
59.660         7
59.670         7
59.680         7
59.690         0
59.700         7
59.710        13
59.720        20
59.730         7
59.740        13
59.750        27
59.760         7
59.770        40
59.780        13
59.790        27
59.800        27
59.810         7
59.820         0
59.830        33
59.840        20
59.850        20
59.860        13
59.870        40
59.880        13
59.890         7
59.900        13
59.910         0
59.920        27
59.930        13
59.940        20
59.950        27
59.960        27
59.970        13
59.980         0
59.990        13
60.000        47
