20.000        33
20.010        73
20.020        47
20.030        40
20.040        27
20.050        73
20.060        47
20.070        73
20.080        40
20.090        47
20.100        60
20.110        47
20.120        53
20.130        13
20.140        53
20.150        40
20.160        80
20.170        20
20.180        40
20.190        73
20.200        53
20.210        53
20.220        60
20.230        20
20.240        40
20.250        47
20.260        60
20.270        73
20.280        53
20.290        47
20.300        40
20.310        67
20.320        40
20.330        33
20.340        33
20.350        27
20.360        20
20.370        33
20.380        40
20.390        20
20.400        60
20.410        67
20.420        20
20.430        67
20.440        13
20.450        47
20.460        47
20.470        33
20.480        33
20.490        53
20.500        33
20.510        40
20.520        53
20.530        87
20.540        27
20.550        33
20.560        60
20.570        60
20.580        60
20.590        40
20.600        33
20.610        47
20.620        33
20.630        53
20.640        47
20.650        40
20.660        47
20.670        40
20.680        33
20.690        40
20.700        27
20.710        47
20.720        33
20.730        40
20.740        27
20.750        80
20.760        53
20.770        40
20.780        33
20.790        73
20.800        40
20.810        53
20.820        47
20.830        27
20.840        20
20.850        53
20.860        47
20.870        27
20.880        67
20.890        80
20.900        47
20.910        53
20.920        53
20.930        67
20.940        80
20.950        67
20.960        33
20.970        33
20.980        47
20.990        60
21.000        27
21.010        47
21.020        27
21.030        60
21.040        13
21.050        33
21.060        20
21.070        20
21.080        27
21.090        47
21.100        20
21.110        27
21.120        27
21.130        60
21.140        47
21.150        33
21.160        33
21.170        40
21.180        40
21.190        60
21.200        27
21.210        53
21.220        73
21.230        40
21.240        53
21.250        60
21.260        40
21.270        20
21.280        20
21.290        80
21.300        47
21.310        40
21.320        20
21.330        33
21.340        53
21.350        20
21.360        33
21.370        33
21.380        67
21.390        40
21.400        33
21.410        33
21.420        40
21.430        53
21.440        33
21.450        40
21.460        67
21.470        60
21.480         7
21.490        73
21.500        20
21.510        20
21.520        40
21.530        53
21.540        47
21.550        60
21.560        47
21.570        40
21.580        40
21.590        33
21.600        47
21.610        60
21.620        27
21.630        20
21.640        27
21.650        13
21.660        33
21.670        27
21.680        13
21.690        20
21.700        53
21.710        40
21.720        33
21.730        60
21.740        47
21.750        67
21.760        27
21.770        33
21.780        20
21.790        47
21.800        27
21.810        53
21.820        40
21.830        33
21.840        20
21.850        27
21.860        53
21.870        40
21.880        80
21.890        47
21.900        47
21.910        53
21.920        47
21.930        27
21.940        20
21.950        53
21.960        27
21.970        40
21.980        60
21.990        53
22.000        40
22.010        73
22.020        20
22.030        47
22.040        27
22.050        40
22.060        53
22.070        27
22.080        47
22.090        40
22.100        67
22.110        67
22.120        33
22.130        27
22.140        47
22.150        53
22.160        47
22.170        13
22.180        33
22.190        53
22.200        47
22.210        53
22.220        67
22.230        67
22.240        40
22.250        53
22.260        47
22.270        40
22.280        67
22.290        33
22.300        67
22.310        60
22.320        13
22.330        47
22.340        60
22.350        53
22.360        53
22.370        40
22.380       107
22.390        13
22.400        40
22.410        93
22.420        67
22.430        47
22.440       107
22.450        67
22.460       100
22.470       100
22.480        53
22.490        87
22.500        80
22.510        87
22.520        87
22.530       113
22.540       100
22.550        93
22.560       107
22.570       107
22.580        80
22.590        93
22.600        93
22.610        93
22.620       107
22.630       100
22.640       100
22.650       100
22.660       107
22.670       113
22.680       107
22.690        73
22.700        73
22.710       107
22.720        73
22.730       120
22.740        73
22.750        93
22.760        87
22.770        60
22.780        80
22.790        47
22.800        73
22.810        60
22.820        87
22.830        67
22.840        67
22.850        33
22.860        67
22.870        53
22.880        60
22.890        40
22.900        87
22.910        67
22.920        40
22.930        87
22.940        67
22.950        60
22.960        33
22.970        60
22.980        53
22.990        40
23.000        27
23.010        67
23.020        53
23.030        40
23.040        53
23.050        60
23.060        27
23.070        67
23.080        67
23.090        60
23.100        60
23.110        53
23.120        47
23.130        47
23.140        33
23.150        47
23.160        33
23.170        20
23.180        87
23.190        27
23.200        33
23.210        67
23.220        67
23.230        33
23.240        47
23.250        13
23.260        27
23.270        60
23.280        60
23.290        20
23.300        33
23.310        40
23.320        40
23.330        67
23.340        60
23.350        73
23.360        13
23.370        53
23.380        27
23.390        40
23.400        20
23.410        60
23.420        20
23.430        40
23.440        47
23.450        67
23.460        53
23.470        20
23.480        33
23.490        87
23.500        27
23.510        47
23.520       100
23.530        33
23.540        67
23.550        40
23.560        53
23.570        27
23.580        33
23.590         7
23.600        33
23.610        53
23.620         7
23.630        47
23.640        20
23.650        47
23.660        27
23.670        60
23.680        13
23.690        27
23.700        27
23.710        47
23.720        27
23.730        40
23.740        60
23.750        27
23.760        33
23.770        73
23.780        33
23.790        33
23.800        27
23.810        20
23.820        40
23.830        47
23.840        47
23.850        40
23.860        40
23.870        27
23.880        60
23.890        40
23.900        33
23.910        60
23.920        13
23.930        27
23.940        47
23.950        13
23.960        40
23.970        33
23.980        20
23.990        33
24.000        87
24.010        33
24.020        60
24.030        67
24.040        53
24.050        53
24.060        27
24.070        47
24.080        40
24.090        60
24.100        13
24.110        33
24.120        27
24.130        67
24.140        33
24.150        40
24.160        47
24.170        60
24.180        53
24.190        27
24.200        20
24.210        60
24.220        27
24.230        13
24.240        27
24.250        80
24.260        27
24.270        27
24.280        33
24.290        73
24.300         7
24.310        40
24.320        20
24.330        33
24.340        40
24.350        67
24.360        60
24.370        40
24.380        33
24.390        40
24.400        27
24.410        20
24.420        60
24.430        33
24.440        40
24.450        40
24.460        40
24.470        27
24.480        33
24.490        40
24.500        67
24.510        13
24.520        47
24.530        40
24.540        40
24.550        27
24.560        53
24.570        47
24.580        40
24.590        33
24.600        47
24.610        47
24.620        80
24.630        53
24.640        73
24.650        60
24.660        33
24.670        40
24.680        33
24.690        53
24.700        47
24.710        13
24.720        20
24.730        13
24.740        27
24.750        27
24.760        27
24.770        40
24.780        53
24.790        33
24.800        53
24.810        13
24.820        73
24.830        27
24.840        60
24.850         7
24.860        27
24.870        27
24.880        13
24.890        47
24.900        27
24.910        33
24.920        33
24.930        53
24.940        20
24.950        40
24.960        40
24.970        20
24.980        40
24.990        33
25.000        33
25.010        47
25.020        27
25.030        27
25.040        27
25.050        33
25.060        40
25.070        13
25.080        20
25.090        20
25.100        27
25.110        40
25.120        40
25.130        20
25.140        13
25.150        47
25.160        13
25.170        40
25.180        67
25.190        13
25.200        27
25.210        27
25.220        33
25.230        73
25.240        67
25.250        47
25.260        40
25.270        47
25.280        27
25.290        27
25.300        67
25.310        33
25.320        47
25.330        33
25.340        20
25.350        53
25.360        40
25.370        33
25.380        53
25.390        67
25.400        73
25.410        40
25.420        33
25.430        60
25.440        60
25.450        40
25.460        40
25.470        87
25.480        60
25.490        73
25.500        53
25.510        87
25.520        87
25.530        60
25.540        87
25.550        87
25.560        87
25.570        73
25.580       113
25.590        93
25.600       147
25.610       140
25.620       120
25.630       140
25.640       133
25.650        93
25.660        80
25.670        60
25.680        67
25.690        93
25.700        80
25.710        67
25.720        67
25.730        53
25.740        67
25.750        40
25.760        27
25.770        53
25.780        33
25.790        53
25.800        40
25.810        33
25.820        47
25.830        20
25.840        20
25.850        20
25.860        20
25.870        40
25.880        27
25.890        47
25.900        27
25.910        20
25.920        20
25.930         7
25.940        13
25.950        33
25.960        47
25.970        60
25.980        60
25.990        40
26.000        53
26.010        40
26.020        20
26.030        20
26.040        33
26.050        40
26.060        33
26.070        40
26.080        53
26.090        27
26.100        73
26.110        40
26.120        20
26.130        20
26.140        60
26.150        33
26.160        27
26.170         7
26.180        27
26.190        53
26.200        13
26.210        20
26.220        53
26.230        33
26.240        33
26.250        47
26.260        20
26.270        40
26.280        27
26.290        27
26.300        33
26.310        27
26.320        13
26.330        20
26.340        20
26.350        27
26.360        40
26.370        27
26.380        87
26.390        40
26.400        27
26.410        27
26.420        40
26.430        27
26.440        33
26.450        33
26.460        33
26.470        40
26.480        20
26.490        27
26.500        13
26.510        33
26.520        27
26.530        20
26.540        40
26.550        40
26.560        40
26.570        67
26.580        27
26.590        33
26.600        13
26.610        40
26.620        13
26.630        20
26.640        33
26.650        27
26.660        33
26.670        20
26.680        40
26.690        33
26.700        27
26.710        13
26.720        47
26.730        40
26.740        33
26.750        27
26.760        20
26.770        60
26.780        20
26.790        33
26.800        40
26.810        13
26.820        40
26.830        47
26.840        47
26.850        40
26.860        40
26.870        60
26.880        27
26.890        33
26.900        40
26.910        13
26.920        13
26.930        40
26.940        47
26.950         0
26.960        20
26.970        40
26.980        40
26.990        47
27.000        40
27.010        33
27.020        33
27.030        47
27.040         7
27.050        47
27.060        27
27.070        40
27.080        33
27.090        27
27.100        27
27.110         7
27.120        33
27.130        40
27.140        33
27.150        40
27.160        33
27.170         7
27.180        40
27.190        53
27.200        67
27.210        40
27.220         0
27.230        13
27.240        33
27.250        40
27.260        47
27.270        33
27.280        27
27.290        33
27.300        20
27.310        33
27.320        13
27.330        53
27.340        40
27.350        60
27.360        60
27.370        20
27.380         7
27.390        53
27.400        40
27.410        27
27.420        33
27.430        47
27.440        13
27.450        67
27.460        40
27.470        20
27.480        47
27.490        20
27.500        40
27.510        27
27.520        40
27.530        33
27.540        27
27.550        33
27.560        40
27.570        27
27.580        33
27.590        27
27.600        33
27.610        40
27.620        33
27.630        33
27.640        33
27.650        60
27.660        60
27.670        33
27.680        47
27.690         7
27.700        20
27.710        27
27.720        53
27.730        40
27.740        20
27.750        13
27.760        27
27.770        33
27.780        53
27.790        20
27.800        33
27.810        33
27.820        33
27.830        13
27.840        13
27.850        60
27.860        27
27.870        33
27.880        27
27.890        53
27.900        27
27.910        33
27.920        20
27.930        33
27.940        13
27.950        33
27.960        20
27.970        20
27.980        27
27.990        47
28.000        40
28.010        47
28.020        33
28.030        40
28.040        13
28.050        33
28.060        40
28.070        20
28.080        27
28.090        33
28.100        47
28.110        20
28.120        33
28.130        33
28.140        53
28.150        47
28.160        20
28.170        20
28.180        47
28.190        53
28.200        20
28.210        40
28.220        40
28.230        47
28.240        20
28.250        20
28.260        47
28.270        53
28.280        53
28.290        40
28.300        27
28.310         7
28.320        13
28.330        13
28.340        27
28.350        60
28.360        20
28.370        13
28.380        67
28.390        27
28.400        67
28.410        33
28.420        20
28.430        40
28.440        53
28.450        27
28.460        33
28.470        13
28.480        47
28.490        27
28.500        13
28.510        33
28.520        33
28.530        33
28.540        33
28.550        40
28.560        20
28.570        27
28.580        73
28.590        20
28.600        27
28.610        20
28.620        27
28.630        33
28.640        20
28.650        33
28.660        20
28.670         7
28.680        40
28.690        13
28.700        47
28.710        33
28.720        40
28.730        40
28.740        33
28.750        27
28.760        33
28.770        27
28.780        20
28.790         0
28.800        20
28.810        20
28.820        47
28.830        53
28.840        53
28.850        40
28.860        20
28.870        27
28.880        33
28.890        13
28.900        33
28.910        53
28.920        20
28.930        27
28.940        80
28.950        33
28.960        40
28.970        20
28.980        40
28.990        40
29.000        40
29.010        27
29.020        27
29.030        27
29.040        40
29.050        40
29.060        60
29.070        33
29.080        20
29.090         7
29.100        47
29.110        60
29.120        47
29.130        40
29.140         7
29.150        20
29.160        13
29.170        40
29.180        27
29.190        13
29.200        27
29.210        53
29.220        60
29.230        27
29.240        67
29.250        20
29.260         7
29.270        33
29.280        53
29.290        27
29.300        20
29.310        13
29.320        13
29.330        27
29.340        33
29.350        13
29.360        27
29.370        27
29.380         0
29.390        33
29.400        27
29.410        33
29.420        33
29.430        20
29.440        33
29.450        47
29.460        13
29.470        27
29.480        27
29.490        27
29.500        40
29.510        27
29.520        27
29.530         7
29.540        33
29.550        47
29.560        47
29.570        20
29.580        73
29.590        13
29.600        20
29.610        20
29.620         7
29.630        27
29.640         7
29.650        20
29.660        27
29.670        27
29.680        20
29.690        40
29.700        53
29.710        27
29.720        27
29.730        27
29.740        67
29.750        33
29.760        20
29.770        40
29.780        53
29.790        27
29.800        13
29.810        60
29.820        33
29.830        40
29.840        40
29.850        13
29.860        20
29.870        27
29.880        13
29.890        20
29.900        33
29.910        20
29.920        33
29.930         7
29.940        27
29.950        33
29.960        13
29.970         7
29.980        27
29.990        27
30.000        33
30.010         7
30.020        40
30.030        20
30.040        40
30.050        27
30.060        20
30.070        40
30.080        27
30.090        33
30.100        27
30.110        27
30.120        40
30.130        20
30.140        33
30.150        27
30.160        33
30.170        33
30.180        13
30.190        40
30.200        47
30.210        53
30.220        20
30.230        20
30.240         7
30.250        20
30.260        47
30.270        53
30.280        20
30.290        40
30.300        40
30.310        33
30.320        13
30.330        33
30.340        13
30.350        20
30.360        27
30.370        20
30.380        33
30.390        20
30.400        13
30.410        13
30.420        20
30.430        20
30.440        13
30.450        20
30.460        20
30.470         7
30.480        20
30.490        40
30.500        20
30.510        33
30.520        33
30.530         7
30.540        27
30.550        40
30.560         7
30.570        20
30.580        33
30.590        20
30.600        53
30.610        40
30.620        40
30.630        40
30.640        33
30.650        33
30.660        13
30.670        60
30.680        20
30.690        27
30.700        27
30.710        40
30.720        33
30.730        40
30.740        13
30.750        13
30.760         7
30.770        27
30.780        33
30.790        53
30.800        33
30.810        40
30.820        40
30.830        40
30.840        20
30.850        13
30.860        13
30.870        13
30.880        33
30.890        27
30.900        27
30.910        47
30.920        47
30.930         7
30.940        27
30.950        40
30.960        20
30.970        27
30.980        20
30.990        33
31.000        73
31.010        27
31.020        60
31.030        13
31.040        20
31.050        27
31.060        47
31.070        27
31.080        20
31.090        33
31.100        33
31.110        20
31.120        47
31.130        33
31.140         7
31.150        33
31.160        67
31.170        27
31.180        47
31.190        40
31.200        33
31.210        47
31.220        40
31.230        53
31.240        40
31.250        20
31.260        73
31.270        33
31.280        53
31.290        33
31.300        13
31.310        33
31.320        27
31.330        47
31.340        13
31.350        20
31.360        27
31.370        53
31.380        67
31.390        40
31.400        40
31.410        20
31.420        60
31.430        33
31.440         0
31.450        27
31.460        27
31.470        40
31.480        27
31.490        53
31.500        47
31.510        20
31.520        33
31.530        13
31.540        33
31.550        60
31.560        60
31.570        53
31.580        27
31.590        20
31.600        40
31.610        33
31.620        13
31.630        47
31.640        53
31.650        73
31.660        60
31.670        33
31.680        33
31.690        67
31.700        27
31.710        73
31.720        20
31.730        73
31.740        47
31.750        27
31.760        73
31.770        67
31.780        47
31.790        47
31.800        20
31.810        47
31.820         7
31.830        47
31.840        47
31.850        33
31.860        93
31.870        87
31.880        73
31.890       113
31.900        73
31.910        73
31.920        40
31.930       120
31.940        93
31.950       113
31.960       113
31.970        87
31.980       120
31.990        87
32.000        40
32.010       100
32.020       133
32.030        87
32.040       127
32.050       147
32.060       147
32.070       200
32.080       127
32.090       120
32.100       180
32.110       153
32.120       213
32.130       140
32.140       213
32.150       213
32.160       173
32.170       220
32.180       200
32.190       173
32.200       240
32.210       320
32.220       300
32.230       247
32.240       287
32.250       247
32.260       233
32.270       207
32.280       287
32.290       347
32.300       273
32.310       340
32.320       293
32.330       373
32.340       313
32.350       293
32.360       333
32.370       253
32.380       273
32.390       293
32.400       247
32.410       200
32.420       220
32.430       227
32.440       273
32.450       220
32.460       227
32.470       180
32.480       193
32.490       173
32.500       153
32.510       153
32.520       193
32.530       147
32.540       100
32.550       133
32.560       107
32.570       127
32.580       107
32.590        67
32.600       160
32.610        53
32.620        73
32.630       120
32.640        60
32.650        73
32.660        67
32.670        67
32.680       153
32.690        60
32.700        93
32.710        80
32.720        47
32.730        73
32.740        67
32.750        87
32.760        67
32.770        53
32.780        47
32.790        73
32.800        73
32.810        47
32.820        40
32.830        40
32.840        40
32.850        53
32.860        53
32.870        40
32.880        53
32.890        27
32.900        60
32.910        53
32.920        33
32.930        40
32.940        33
32.950        47
32.960        47
32.970        40
32.980        40
32.990        53
33.000        47
33.010        20
33.020        60
33.030        47
33.040        47
33.050        27
33.060        60
33.070        13
33.080        13
33.090        47
33.100        40
33.110        20
33.120        40
33.130        33
33.140        13
33.150        20
33.160        20
33.170        47
33.180        40
33.190        20
33.200        27
33.210        47
33.220        13
33.230        27
33.240         7
33.250        13
33.260        20
33.270        33
33.280        33
33.290        53
33.300        20
33.310        13
33.320        20
33.330        33
33.340        20
33.350        40
33.360        33
33.370        27
33.380        47
33.390        20
33.400         7
33.410         7
33.420        40
33.430        33
33.440        40
33.450        27
33.460         7
33.470        33
33.480         0
33.490        20
33.500        27
33.510         7
33.520        27
33.530        27
33.540        27
33.550        27
33.560        27
33.570        27
33.580        53
33.590         7
33.600        40
33.610        33
33.620        33
33.630        27
33.640        53
33.650        27
33.660        40
33.670        40
33.680         7
33.690        47
33.700        20
33.710        33
33.720         7
33.730         0
33.740         7
33.750        20
33.760        33
33.770        33
33.780        20
33.790         7
33.800        27
33.810        13
33.820        33
33.830        13
33.840         7
33.850        13
33.860        13
33.870         7
33.880        40
33.890        27
33.900        27
33.910        53
33.920        33
33.930        53
33.940        20
33.950        27
33.960        53
33.970        47
33.980        27
33.990        33
34.000        27
34.010        67
34.020        13
34.030        20
34.040        33
34.050        20
34.060        27
34.070        13
34.080        13
34.090        20
34.100        20
34.110        13
34.120        27
34.130        33
34.140        33
34.150        13
34.160        27
34.170        60
34.180        33
34.190        33
34.200        53
34.210        13
34.220        20
34.230        33
34.240        47
34.250        40
34.260        20
34.270        40
34.280        27
34.290        47
34.300        53
34.310        40
34.320        53
34.330        47
34.340        47
34.350        20
34.360        20
34.370        20
34.380        40
34.390        40
34.400        40
34.410        47
34.420        20
34.430        33
34.440        27
34.450        27
34.460        20
34.470        20
34.480        40
34.490        27
34.500        13
34.510        40
34.520        40
34.530        13
34.540        20
34.550        20
34.560        20
34.570        53
34.580        20
34.590         7
34.600        27
34.610        33
34.620        27
34.630        67
34.640        40
34.650        27
34.660        13
34.670        40
34.680        33
34.690        60
34.700        47
34.710        40
34.720         7
34.730        60
34.740        53
34.750        33
34.760        47
34.770        20
34.780        27
34.790        33
34.800        33
34.810        27
34.820        53
34.830        47
34.840        47
34.850        67
34.860        27
34.870        27
34.880        20
34.890        20
34.900        47
34.910        73
34.920        53
34.930        40
34.940        87
34.950        60
34.960        33
34.970        53
34.980        73
34.990        73
35.000        53
35.010        73
35.020       107
35.030       120
35.040       107
35.050       113
35.060        93
35.070        93
35.080       100
35.090        87
35.100        93
35.110       207
35.120       193
35.130       293
35.140       293
35.150       400
35.160       387
35.170       420
35.180       533
35.190       413
35.200       433
35.210       307
35.220       247
35.230       200
35.240       267
35.250       300
35.260       267
35.270       213
35.280       207
35.290       173
35.300       140
35.310        60
35.320        60
35.330        40
35.340        53
35.350        20
35.360        73
35.370        27
35.380        60
35.390        13
35.400        13
35.410        27
35.420        20
35.430        33
35.440        40
35.450        33
35.460        20
35.470        27
35.480        13
35.490        20
35.500        20
35.510        27
35.520        33
35.530        60
35.540        20
35.550        27
35.560        40
35.570        47
35.580        47
35.590        53
35.600        47
35.610        33
35.620        20
35.630         7
35.640        13
35.650        13
35.660        20
35.670        33
35.680        27
35.690        20
35.700        20
35.710         7
35.720         7
35.730        27
35.740        40
35.750        20
35.760         0
35.770        20
35.780        53
35.790         7
35.800        13
35.810        27
35.820        20
35.830        20
35.840        33
35.850        20
35.860        20
35.870        40
35.880        20
35.890        20
35.900         0
35.910        47
35.920        20
35.930         0
35.940        13
35.950        53
35.960        20
35.970        27
35.980        20
35.990         7
36.000        33
36.010        27
36.020        27
36.030        40
36.040        13
36.050        13
36.060        20
36.070        13
36.080        20
36.090        33
36.100        40
36.110        27
36.120        27
36.130        33
36.140        27
36.150        40
36.160        47
36.170        73
36.180        27
36.190        13
36.200         7
36.210        40
36.220         7
36.230        13
36.240        40
36.250        13
36.260        33
36.270        33
36.280        40
36.290        33
36.300        20
36.310        27
36.320         7
36.330        33
36.340        27
36.350        13
36.360        33
36.370        33
36.380        20
36.390         7
36.400        27
36.410        53
36.420        13
36.430        13
36.440        33
36.450        13
36.460        40
36.470        53
36.480        20
36.490        13
36.500        20
36.510        27
36.520        33
36.530        33
36.540        13
36.550        20
36.560        27
36.570        13
36.580        40
36.590         7
36.600        13
36.610        20
36.620         7
36.630        27
36.640        40
36.650        40
36.660        20
36.670        27
36.680         7
36.690        27
36.700        27
36.710        27
36.720        20
36.730        27
36.740        40
36.750        27
36.760        20
36.770        47
36.780        47
36.790        27
36.800         7
36.810        40
36.820        33
36.830        33
36.840        20
36.850        33
36.860        13
36.870        20
36.880        27
36.890        60
36.900        20
36.910        67
36.920        40
36.930        40
36.940        27
36.950        13
36.960         7
36.970        27
36.980        87
36.990        53
37.000        60
37.010        33
37.020        53
37.030        33
37.040        13
37.050        40
37.060        47
37.070        47
37.080        27
37.090        40
37.100        60
37.110        27
37.120        13
37.130         7
37.140        20
37.150        53
37.160        20
37.170         7
37.180         7
37.190        13
37.200         7
37.210        13
37.220        20
37.230        20
37.240        20
37.250        33
37.260        27
37.270        53
37.280        20
37.290        33
37.300        13
37.310        40
37.320        20
37.330        20
37.340         7
37.350        20
37.360         7
37.370        33
37.380        20
37.390        13
37.400        33
37.410        20
37.420        20
37.430        20
37.440        40
37.450        47
37.460        20
37.470        40
37.480        20
37.490        33
37.500        67
37.510        47
37.520        33
37.530        40
37.540        20
37.550        20
37.560        33
37.570        27
37.580         7
37.590        53
37.600        27
37.610        27
37.620        33
37.630        20
37.640         7
37.650        13
37.660         0
37.670        33
37.680        27
37.690        27
37.700        20
37.710        67
37.720        47
37.730        47
37.740        80
37.750        73
37.760        80
37.770       127
37.780       133
37.790        80
37.800        67
37.810       100
37.820       133
37.830        80
37.840       120
37.850       140
37.860        80
37.870        73
37.880        73
37.890        53
37.900        67
37.910        47
37.920        40
37.930        40
37.940        47
37.950        60
37.960        47
37.970        47
37.980        33
37.990        13
38.000        33
38.010        47
38.020        27
38.030        20
38.040        27
38.050        33
38.060        27
38.070        20
38.080        27
38.090         7
38.100        27
38.110        33
38.120        13
38.130        33
38.140        27
38.150        20
38.160         7
38.170        20
38.180        33
38.190         0
38.200        27
38.210        33
38.220        27
38.230        13
38.240        13
38.250        20
38.260        33
38.270        40
38.280        13
38.290        27
38.300        40
38.310        27
38.320        27
38.330        33
38.340        27
38.350         7
38.360        20
38.370        13
38.380        40
38.390        13
38.400        20
38.410        27
38.420        40
38.430         7
38.440        20
38.450        20
38.460        13
38.470        27
38.480        13
38.490         7
38.500        27
38.510        13
38.520        20
38.530        33
38.540        20
38.550        20
38.560        13
38.570        27
38.580        27
38.590         7
38.600        13
38.610         7
38.620        27
38.630        33
38.640        20
38.650        33
38.660        27
38.670         7
38.680        33
38.690        13
38.700         0
38.710        20
38.720        13
38.730        27
38.740        20
38.750        13
38.760        20
38.770         7
38.780         7
38.790        13
38.800        13
38.810        53
38.820        40
38.830        13
38.840        33
38.850        20
38.860        27
38.870        27
38.880        40
38.890        13
38.900        13
38.910        40
38.920        13
38.930        20
38.940        33
38.950        27
38.960        20
38.970        27
38.980        13
38.990        33
39.000        27
39.010        13
39.020        33
39.030        47
39.040        13
39.050        20
39.060        20
39.070         0
39.080        27
39.090        20
39.100         7
39.110        13
39.120        47
39.130        47
39.140        40
39.150         7
39.160        33
39.170        33
39.180        13
39.190        33
39.200        40
39.210        33
39.220        40
39.230        20
39.240        47
39.250        27
39.260        13
39.270        33
39.280        13
39.290         7
39.300        13
39.310        13
39.320        20
39.330        20
39.340        27
39.350        27
39.360        27
39.370        13
39.380        40
39.390        20
39.400        20
39.410        27
39.420         0
39.430        13
39.440        13
39.450        53
39.460        20
39.470        13
39.480        33
39.490        27
39.500        67
39.510         7
39.520        27
39.530        13
39.540        27
39.550        13
39.560         7
39.570        13
39.580        60
39.590        20
39.600        20
39.610        13
39.620        13
39.630         7
39.640        33
39.650        20
39.660        33
39.670        13
39.680        27
39.690        33
39.700        27
39.710        20
39.720        40
39.730        33
39.740        20
39.750        20
39.760        33
39.770        27
39.780        40
39.790        40
39.800        40
39.810        40
39.820        33
39.830        53
39.840        33
39.850        33
39.860        47
39.870        53
39.880        60
39.890        53
39.900        13
39.910        60
39.920        33
39.930        27
39.940        40
39.950        87
39.960        60
39.970        87
39.980        47
39.990        33
40.000        33
40.010        27
40.020        73
40.030        27
40.040        60
40.050        40
40.060        47
40.070        27
40.080        20
40.090        47
40.100        53
40.110        40
40.120        33
40.130        20
40.140        20
40.150        33
40.160        13
40.170        53
40.180        27
40.190        13
40.200         7
40.210        20
40.220        40
40.230        33
40.240        47
40.250         0
40.260        20
40.270        47
40.280         0
40.290        47
40.300        13
40.310        27
40.320        13
40.330        20
40.340        33
40.350        40
40.360        33
40.370        27
40.380        33
40.390        33
40.400        40
40.410         7
40.420        20
40.430        27
40.440        20
40.450        27
40.460        60
40.470        27
40.480        40
40.490        33
40.500        33
40.510        27
40.520         0
40.530        27
40.540        13
40.550        40
40.560        27
40.570        27
40.580        13
40.590        27
40.600        20
40.610        33
40.620        27
40.630        27
40.640        47
40.650        40
40.660        13
40.670        20
40.680        40
40.690        20
40.700        33
40.710        33
40.720        13
40.730        33
40.740        20
40.750        27
40.760        27
40.770         0
40.780        33
40.790        27
40.800        33
40.810        33
40.820        20
40.830        47
40.840        27
40.850         7
40.860        20
40.870        13
40.880        20
40.890        33
40.900         7
40.910         0
40.920        40
40.930        13
40.940        20
40.950         0
40.960        40
40.970        20
40.980         7
40.990        27
41.000        40
41.010        20
41.020         7
41.030        33
41.040        40
41.050         7
41.060        13
41.070        13
41.080        27
41.090        20
41.100        20
41.110        13
41.120        27
41.130        13
41.140        13
41.150         7
41.160        20
41.170        13
41.180        47
41.190        20
41.200        27
41.210        13
41.220        20
41.230        20
41.240        33
41.250        20
41.260        13
41.270        27
41.280        13
41.290        33
41.300        27
41.310        20
41.320        40
41.330        13
41.340        27
41.350        27
41.360        13
41.370        20
41.380        20
41.390        13
41.400        33
41.410        13
41.420         7
41.430        20
41.440        33
41.450        20
41.460        27
41.470         7
41.480        27
41.490        13
41.500        27
41.510        27
41.520        27
41.530        40
41.540        20
41.550        27
41.560        20
41.570        40
41.580        40
41.590        47
41.600        73
41.610        47
41.620       100
41.630       107
41.640        67
41.650        93
41.660        73
41.670       140
41.680       120
41.690        80
41.700       120
41.710       113
41.720       120
41.730        80
41.740       100
41.750       180
41.760        73
41.770        73
41.780        87
41.790        60
41.800        60
41.810        87
41.820        80
41.830        80
41.840        73
41.850        40
41.860        47
41.870        13
41.880        40
41.890        20
41.900        27
41.910         7
41.920        13
41.930        40
41.940        20
41.950         7
41.960        60
41.970        27
41.980         7
41.990        47
42.000        33
42.010        27
42.020        47
42.030        27
42.040         7
42.050        13
42.060        20
42.070        13
42.080        27
42.090        33
42.100        13
42.110        20
42.120        20
42.130        27
42.140        13
42.150        13
42.160        40
42.170        20
42.180         0
42.190        20
42.200         7
42.210        13
42.220        20
42.230        20
42.240        13
42.250        33
42.260         7
42.270        40
42.280        27
42.290        13
42.300        40
42.310        20
42.320        20
42.330        33
42.340        33
42.350        33
42.360        47
42.370         7
42.380        40
42.390        47
42.400        13
42.410        13
42.420        20
42.430        20
42.440        13
42.450        13
42.460        20
42.470         7
42.480        33
42.490        13
42.500        13
42.510        20
42.520        20
42.530        20
42.540        27
42.550         7
42.560        33
42.570        13
42.580        40
42.590        33
42.600        20
42.610        20
42.620        33
42.630        40
42.640        13
42.650        20
42.660        33
42.670        13
42.680         0
42.690         7
42.700        33
42.710        20
42.720        20
42.730        33
42.740        33
42.750        27
42.760         7
42.770        13
42.780        20
42.790        33
42.800        27
42.810        20
42.820        20
42.830        53
42.840        53
42.850        33
42.860        27
42.870        27
42.880        13
42.890        13
42.900        27
42.910        27
42.920        33
42.930        20
42.940        27
42.950         7
42.960        33
42.970        13
42.980        20
42.990        47
43.000        40
43.010        33
43.020        27
43.030        13
43.040        13
43.050         7
43.060        27
43.070        13
43.080        80
43.090        13
43.100        13
43.110        13
43.120        20
43.130        20
43.140        13
43.150        40
43.160        40
43.170        67
43.180         7
43.190        47
43.200        40
43.210        27
43.220        40
43.230        53
43.240        73
43.250        80
43.260        67
43.270        80
43.280        73
43.290        67
43.300        27
43.310        93
43.320       107
43.330       240
43.340       207
43.350       247
43.360       213
43.370       353
43.380       287
43.390       313
43.400       293
43.410       227
43.420       240
43.430       153
43.440       160
43.450       153
43.460       153
43.470       153
43.480       173
43.490       147
43.500       227
43.510       187
43.520       100
43.530       113
43.540        87
43.550        47
43.560        40
43.570        47
43.580        20
43.590        33
43.600        33
43.610        40
43.620        27
43.630        27
43.640        33
43.650        20
43.660        40
43.670        27
43.680        33
43.690        40
43.700        20
43.710        20
43.720        33
43.730        20
43.740        27
43.750        47
43.760        27
43.770        33
43.780        47
43.790        13
43.800        47
43.810         7
43.820        20
43.830        33
43.840        20
43.850         7
43.860        27
43.870         0
43.880        13
43.890        13
43.900        40
43.910        47
43.920        20
43.930        27
43.940        33
43.950        27
43.960         7
43.970        33
43.980         7
43.990         7
44.000        13
44.010        27
44.020        27
44.030        40
44.040        33
44.050        20
44.060        40
44.070         0
44.080        13
44.090        53
44.100         0
44.110        33
44.120        27
44.130        20
44.140        33
44.150        13
44.160         7
44.170        53
44.180        47
44.190        33
44.200        13
44.210        20
44.220        13
44.230        40
44.240        20
44.250        27
44.260        33
44.270        20
44.280         0
44.290        27
44.300        33
44.310        20
44.320        13
44.330         7
44.340        20
44.350         7
44.360        53
44.370        60
44.380        47
44.390        20
44.400        13
44.410         7
44.420        33
44.430        20
44.440        27
44.450        13
44.460        27
44.470        13
44.480        20
44.490        20
44.500        33
44.510        40
44.520        47
44.530        20
44.540         7
44.550        20
44.560        47
44.570        47
44.580        27
44.590        27
44.600        47
44.610        33
44.620        33
44.630        47
44.640        33
44.650        47
44.660        73
44.670        47
44.680        20
44.690        40
44.700        40
44.710        33
44.720        40
44.730        20
44.740        33
44.750        80
44.760        40
44.770         0
44.780        47
44.790        73
44.800        47
44.810        20
44.820        47
44.830        33
44.840        13
44.850        40
44.860        53
44.870        40
44.880        20
44.890        60
44.900        27
44.910        33
44.920        33
44.930        27
44.940        53
44.950        53
44.960        27
44.970        20
44.980        20
44.990        33
45.000        33
45.010        40
45.020        27
45.030        73
45.040        60
45.050        73
45.060        33
45.070        47
45.080         7
45.090        67
45.100        73
45.110        47
45.120        67
45.130        60
45.140        40
45.150        47
45.160        53
45.170        40
45.180        67
45.190        67
45.200        13
45.210        40
45.220        47
45.230        67
45.240        40
45.250        40
45.260        60
45.270        53
45.280        73
45.290        47
45.300        27
45.310        47
45.320       100
45.330        33
45.340        73
45.350        47
45.360        73
45.370        20
45.380        73
45.390        53
45.400        47
45.410        67
45.420        67
45.430        47
45.440        67
45.450        87
45.460        67
45.470        87
45.480       100
45.490       120
45.500       107
45.510        53
45.520       127
45.530        80
45.540       140
45.550        60
45.560       127
45.570       107
45.580       140
45.590        87
45.600       107
45.610       140
45.620       127
45.630        87
45.640       107
45.650       173
45.660       167
45.670       107
45.680       120
45.690       133
45.700       200
45.710       140
45.720       113
45.730       160
45.740       193
45.750       207
45.760       227
45.770       220
45.780       207
45.790       200
45.800       260
45.810       247
45.820       180
45.830       207
45.840       153
45.850       220
45.860       340
45.870       333
45.880       220
45.890       273
45.900       207
45.910       280
45.920       233
45.930       240
45.940       353
45.950       313
45.960       307
45.970       320
45.980       340
45.990       373
46.000       387
46.010       413
46.020       380
46.030       440
46.040       353
46.050       387
46.060       460
46.070       367
46.080       273
46.090       353
46.100       440
46.110       420
46.120       393
46.130       347
46.140       380
46.150       493
46.160       413
46.170       433
46.180       353
46.190       333
46.200       387
46.210       320
46.220       407
46.230       360
46.240       466
46.250       353
46.260       373
46.270       420
46.280       407
46.290       426
46.300       320
46.310       426
46.320       353
46.330       493
46.340       513
46.350       333
46.360       367
46.370       247
46.380       373
46.390       267
46.400       353
46.410       300
46.420       353
46.430       373
46.440       273
46.450       253
46.460       247
46.470       307
46.480       293
46.490       287
46.500       347
46.510       233
46.520       260
46.530       173
46.540       253
46.550       247
46.560       240
46.570       193
46.580       247
46.590       173
46.600       113
46.610       160
46.620       207
46.630       140
46.640       187
46.650       213
46.660       193
46.670       207
46.680       167
46.690       127
46.700       160
46.710       173
46.720       173
46.730       107
46.740       147
46.750       107
46.760       147
46.770        67
46.780       120
46.790       113
46.800        73
46.810       113
46.820       100
46.830        80
46.840        73
46.850       120
46.860       127
46.870       100
46.880       187
46.890        80
46.900        80
46.910       140
46.920        60
46.930        73
46.940        27
46.950       107
46.960       107
46.970        73
46.980        93
46.990        60
47.000       113
47.010        53
47.020        33
47.030        47
47.040        67
47.050        80
47.060        93
47.070        40
47.080        87
47.090        33
47.100        80
47.110        80
47.120        60
47.130        87
47.140        53
47.150        40
47.160        60
47.170        40
47.180        53
47.190        53
47.200        40
47.210        20
47.220        60
47.230        67
47.240        47
47.250        13
47.260        33
47.270        53
47.280        20
47.290        47
47.300        47
47.310        27
47.320        40
47.330        40
47.340        40
47.350        27
47.360        40
47.370        47
47.380        47
47.390        40
47.400        40
47.410        60
47.420        27
47.430        67
47.440        47
47.450        47
47.460        40
47.470        47
47.480        27
47.490        33
47.500        13
47.510        40
47.520        40
47.530         7
47.540        67
47.550         0
47.560        20
47.570        27
47.580        33
47.590        67
47.600        20
47.610        20
47.620        13
47.630        27
47.640        13
47.650        27
47.660        13
47.670        20
47.680        40
47.690        20
47.700        33
47.710        27
47.720        53
47.730        40
47.740        40
47.750        33
47.760         7
47.770        20
47.780        13
47.790        33
47.800        40
47.810        27
47.820        27
47.830        40
47.840        27
47.850        33
47.860        33
47.870        33
47.880        33
47.890        13
47.900        20
47.910        13
47.920        20
47.930        27
47.940        13
47.950        33
47.960        20
47.970        27
47.980        20
47.990        33
48.000        53
48.010        53
48.020        47
48.030        60
48.040        27
48.050        27
48.060        27
48.070         7
48.080        27
48.090        20
48.100        60
48.110        13
48.120        33
48.130        27
48.140        27
48.150        27
48.160        20
48.170        53
48.180        47
48.190        13
48.200        13
48.210         7
48.220        53
48.230         7
48.240        40
48.250         0
48.260        40
48.270         7
48.280        33
48.290        13
48.300        27
48.310        20
48.320        20
48.330        20
48.340        33
48.350        33
48.360        27
48.370        27
48.380         7
48.390        40
48.400        27
48.410        13
48.420        60
48.430        33
48.440         0
48.450        13
48.460        20
48.470        27
48.480        27
48.490        33
48.500        40
48.510        13
48.520        20
48.530        27
48.540        33
48.550         7
48.560         7
48.570        13
48.580        20
48.590        13
48.600        13
48.610        27
48.620        20
48.630        33
48.640        33
48.650        13
48.660        33
48.670         7
48.680        27
48.690         7
48.700         7
48.710        13
48.720        47
48.730        27
48.740        27
48.750        20
48.760        13
48.770        20
48.780        27
48.790        33
48.800         0
48.810        53
48.820        27
48.830         7
48.840         7
48.850        13
48.860        13
48.870        53
48.880        20
48.890        13
48.900         0
48.910         7
48.920        13
48.930        13
48.940        47
48.950        20
48.960        20
48.970        33
48.980        20
48.990        27
49.000        40
49.010        20
49.020         0
49.030        20
49.040        27
49.050        13
49.060        40
49.070        13
49.080        13
49.090        13
49.100        13
49.110        20
49.120        20
49.130        27
49.140         0
49.150        13
49.160        13
49.170        27
49.180        20
49.190        40
49.200        40
49.210         7
49.220        20
49.230        33
49.240        20
49.250         7
49.260        33
49.270        33
49.280        27
49.290        20
49.300        33
49.310        13
49.320        33
49.330        33
49.340         0
49.350         7
49.360        20
49.370         7
49.380        20
49.390         7
49.400        27
49.410        33
49.420        27
49.430        27
49.440        33
49.450        33
49.460        13
49.470         7
49.480         7
49.490         7
49.500        33
49.510        13
49.520        20
49.530        27
49.540        20
49.550         7
49.560        33
49.570        47
49.580        33
49.590        33
49.600        13
49.610        13
49.620        33
49.630        40
49.640        40
49.650         7
49.660        20
49.670        47
49.680         0
49.690        13
49.700         7
49.710        20
49.720         7
49.730        13
49.740         7
49.750        20
49.760        33
49.770        27
49.780        13
49.790         7
49.800         0
49.810         7
49.820         0
49.830        13
49.840        20
49.850        33
49.860        13
49.870        13
49.880        27
49.890        20
49.900         0
49.910         7
49.920        47
49.930         7
49.940         0
49.950         7
49.960        13
49.970        27
49.980        20
49.990        33
50.000        20
50.010        20
50.020        27
50.030        20
50.040        13
50.050        40
50.060        20
50.070        33
50.080         7
50.090        53
50.100        33
50.110        13
50.120        13
50.130        13
50.140        33
50.150        27
50.160        20
50.170        20
50.180         7
50.190        20
50.200         0
50.210         0
50.220        33
50.230         7
50.240         7
50.250        20
50.260        13
50.270         7
50.280        13
50.290        13
50.300        27
50.310        27
50.320        13
50.330        20
50.340        20
50.350        27
50.360         7
50.370        27
50.380        13
50.390         0
50.400        13
50.410        20
50.420        13
50.430        13
50.440        13
50.450        47
50.460         7
50.470        13
50.480        13
50.490        20
50.500        33
50.510         7
50.520        27
50.530         0
50.540        33
50.550         7
50.560        40
50.570         7
50.580        13
50.590        20
50.600         7
50.610        47
50.620        20
50.630        13
50.640        27
50.650        20
50.660         7
50.670         0
50.680        20
50.690        20
50.700        27
50.710        13
50.720        33
50.730         7
50.740         7
50.750        13
50.760        13
50.770        13
50.780        20
50.790        40
50.800         7
50.810        40
50.820        20
50.830        13
50.840        33
50.850        27
50.860        40
50.870         7
50.880        33
50.890        13
50.900        20
50.910        13
50.920        33
50.930        33
50.940        13
50.950        33
50.960         7
50.970        20
50.980        40
50.990        13
51.000        20
51.010         0
51.020         7
51.030         7
51.040         7
51.050         7
51.060         7
51.070        33
51.080         7
51.090        13
51.100        13
51.110         7
51.120        20
51.130        13
51.140         7
51.150        20
51.160        33
51.170        20
51.180        27
51.190        20
51.200        27
51.210        13
51.220        27
51.230        33
51.240         0
51.250        27
51.260         7
51.270        27
51.280        13
51.290        13
51.300         7
51.310        13
51.320        27
51.330        13
51.340        33
51.350        13
51.360        40
51.370        33
51.380         7
51.390         0
51.400        13
51.410         0
51.420        13
51.430        33
51.440         7
51.450        20
51.460         0
51.470        27
51.480        20
51.490        13
51.500        13
51.510        47
51.520         7
51.530        47
51.540        20
51.550        33
51.560         0
51.570        27
51.580        27
51.590        27
51.600        33
51.610        33
51.620         7
51.630        20
51.640        20
51.650         7
51.660         7
51.670        13
51.680        20
51.690        20
51.700        20
51.710        33
51.720        20
51.730        27
51.740         7
51.750        20
51.760        13
51.770        20
51.780         7
51.790        27
51.800        13
51.810        47
51.820        20
51.830        40
51.840        20
51.850        13
51.860         7
51.870        13
51.880         7
51.890         7
51.900        40
51.910         7
51.920        13
51.930        13
51.940        27
51.950        20
51.960         7
51.970         0
51.980        13
51.990        20
52.000        40
52.010        13
52.020        13
52.030        20
52.040         0
52.050        27
52.060        13
52.070        13
52.080        27
52.090         7
52.100         0
52.110        27
52.120         7
52.130        20
52.140        27
52.150         7
52.160        40
52.170        33
52.180        13
52.190         7
52.200        13
52.210        40
52.220         7
52.230        20
52.240         7
52.250        20
52.260        27
52.270        20
52.280        13
52.290        20
52.300        13
52.310        47
52.320        33
52.330        33
52.340        13
52.350        27
52.360        20
52.370        27
52.380         7
52.390        27
52.400        20
52.410        40
52.420         0
52.430        20
52.440        20
52.450        27
52.460        20
52.470        33
52.480        53
52.490        47
52.500        87
52.510        53
52.520        73
52.530        87
52.540        80
52.550       153
52.560       160
52.570       220
52.580       153
52.590       220
52.600       140
52.610        93
52.620       113
52.630        60
52.640        73
52.650       100
52.660        47
52.670        60
52.680       120
52.690       100
52.700       153
52.710       100
52.720       113
52.730        93
52.740        73
52.750       127
52.760        53
52.770        40
52.780        40
52.790        27
52.800        47
52.810        67
52.820        73
52.830        27
52.840        33
52.850        20
52.860         7
52.870         0
52.880        20
52.890        33
52.900        20
52.910        33
52.920         7
52.930        20
52.940        13
52.950        27
52.960        13
52.970         7
52.980        20
52.990        13
53.000        20
53.010        13
53.020         7
53.030        13
53.040        20
53.050        33
53.060         7
53.070        13
53.080        67
53.090         7
53.100         7
53.110        20
53.120        13
53.130         7
53.140        20
53.150        20
53.160         7
53.170        13
53.180         7
53.190         0
53.200        20
53.210        27
53.220        13
53.230         7
53.240        20
53.250        20
53.260        47
53.270        27
53.280         7
53.290        20
53.300         7
53.310        13
53.320         0
53.330         0
53.340         7
53.350         7
53.360        13
53.370        33
53.380        27
53.390         7
53.400        20
53.410         7
53.420        27
53.430         0
53.440        20
53.450        13
53.460        20
53.470         7
53.480        20
53.490        20
53.500         7
53.510        20
53.520        33
53.530        20
53.540        20
53.550        13
53.560        20
53.570         7
53.580        13
53.590        27
53.600         7
53.610        20
53.620        27
53.630        20
53.640        20
53.650         7
53.660         0
53.670        27
53.680        13
53.690        20
53.700        27
53.710        13
53.720        33
53.730         7
53.740        27
53.750         7
53.760        47
53.770         7
53.780        13
53.790        20
53.800        13
53.810        13
53.820         7
53.830         0
53.840         0
53.850        33
53.860         0
53.870         7
53.880        27
53.890        27
53.900        13
53.910         7
53.920         7
53.930         7
53.940        33
53.950        20
53.960        13
53.970        40
53.980        13
53.990         7
54.000         0
54.010        13
54.020        27
54.030        13
54.040        33
54.050        27
54.060        13
54.070         7
54.080        27
54.090        20
54.100        13
54.110         7
54.120         7
54.130         7
54.140        13
54.150        27
54.160        20
54.170        27
54.180         0
54.190        13
54.200         7
54.210         7
54.220        20
54.230        13
54.240        13
54.250         7
54.260         7
54.270        27
54.280         0
54.290        13
54.300        13
54.310         7
54.320        13
54.330        13
54.340         7
54.350        13
54.360        27
54.370        40
54.380        13
54.390        20
54.400         7
54.410        47
54.420        20
54.430         0
54.440        20
54.450        20
54.460        13
54.470        27
54.480        40
54.490         7
54.500        13
54.510         7
54.520        13
54.530         7
54.540         7
54.550         0
54.560         7
54.570        27
54.580        13
54.590        13
54.600        13
54.610        13
54.620         7
54.630        27
54.640        13
54.650        20
54.660         7
54.670        27
54.680        13
54.690        27
54.700        33
54.710         7
54.720        13
54.730        33
54.740         7
54.750         7
54.760         0
54.770         0
54.780        27
54.790        20
54.800         7
54.810        20
54.820        13
54.830         7
54.840        27
54.850        13
54.860        60
54.870        20
54.880        13
54.890        20
54.900        33
54.910         7
54.920        27
54.930        33
54.940        33
54.950        13
54.960        20
54.970        27
54.980         7
54.990        13
55.000        20
55.010        27
55.020        20
55.030        20
55.040         7
55.050         7
55.060        13
55.070         7
55.080         7
55.090         7
55.100        13
55.110        20
55.120        20
55.130        13
55.140         7
55.150        13
55.160         7
55.170        13
55.180        13
55.190        20
55.200        20
55.210        40
55.220         7
55.230         7
55.240        33
55.250        20
55.260         7
55.270        13
55.280        13
55.290         7
55.300        27
55.310         7
55.320         7
55.330         7
55.340        20
55.350        13
55.360        40
55.370        13
55.380        20
55.390         7
55.400        20
55.410        27
55.420         7
55.430        13
55.440        13
55.450        13
55.460        20
55.470        53
55.480        27
55.490        13
55.500        13
55.510         0
55.520        20
55.530        13
55.540        33
55.550        33
55.560         7
55.570         7
55.580        27
55.590         0
55.600        20
55.610        13
55.620        33
55.630         7
55.640        27
55.650        13
55.660        40
55.670        13
55.680        20
55.690        13
55.700        20
55.710         7
55.720        13
55.730        20
55.740        40
55.750        20
55.760        13
55.770         7
55.780        20
55.790        13
55.800        20
55.810        13
55.820        27
55.830        20
55.840        13
55.850        33
55.860        27
55.870        20
55.880        33
55.890        13
55.900        20
55.910         7
55.920         7
55.930        27
55.940        27
55.950        13
55.960        13
55.970        13
55.980        13
55.990         7
56.000        27
56.010         7
56.020        27
56.030        20
56.040        13
56.050        33
56.060         7
56.070        53
56.080        13
56.090        20
56.100        13
56.110        20
56.120         0
56.130        20
56.140         7
56.150         7
56.160        20
56.170        13
56.180         7
56.190        40
56.200        20
56.210        27
56.220        27
56.230        13
56.240        40
56.250        13
56.260        13
56.270         7
56.280        20
56.290        13
56.300        27
56.310        13
56.320         7
56.330         0
56.340        13
56.350        13
56.360         7
56.370         7
56.380         0
56.390         7
56.400         0
56.410        13
56.420        20
56.430        33
56.440        13
56.450        13
56.460        27
56.470        13
56.480        27
56.490         7
56.500         7
56.510        33
56.520         7
56.530        27
56.540        27
56.550        20
56.560        13
56.570        20
56.580         0
56.590        20
56.600        20
56.610        13
56.620        13
56.630        20
56.640        20
56.650         7
56.660        20
56.670        13
56.680         7
56.690        27
56.700         0
56.710        20
56.720         7
56.730        27
56.740         7
56.750        47
56.760         0
56.770        20
56.780        27
56.790         7
56.800         7
56.810         7
56.820         7
56.830        20
56.840        27
56.850         7
56.860        20
56.870        20
56.880         7
56.890        27
56.900        40
56.910        13
56.920        27
56.930        13
56.940        20
56.950        20
56.960        33
56.970        20
56.980        20
56.990        13
57.000        13
57.010         7
57.020        20
57.030        13
57.040        13
57.050        13
57.060        13
57.070        20
57.080        27
57.090        20
57.100        40
57.110        27
57.120         7
57.130        33
57.140        40
57.150        13
57.160         7
57.170        33
57.180         7
57.190        13
57.200        27
57.210        20
57.220        40
57.230        20
57.240        20
57.250        40
57.260        47
57.270        13
57.280        47
57.290        33
57.300        93
57.310        80
57.320        47
57.330        93
57.340        27
57.350        40
57.360        47
57.370        73
57.380        87
57.390        87
57.400        80
57.410        67
57.420       173
57.430       167
57.440       133
57.450       247
57.460       240
57.470       373
57.480       333
57.490       646
57.500       673
57.510       786
57.520       706
57.530       973
57.540       906
57.550       700
57.560       760
57.570       660
57.580       526
57.590       320
57.600       273
57.610       280
57.620       340
57.630       293
57.640       193
57.650       360
57.660       340
57.670       453
57.680       426
57.690       560
57.700       500
57.710       400
57.720       313
57.730       373
57.740       240
57.750       213
57.760       120
57.770       107
57.780        60
57.790        87
57.800        60
57.810        53
57.820        40
57.830         7
57.840        47
57.850        47
57.860        33
57.870         0
57.880        27
57.890        27
57.900        40
57.910        40
57.920        33
57.930        20
57.940        20
57.950        13
57.960        53
57.970        40
57.980        33
57.990        27
58.000        20
58.010        20
58.020        27
58.030        27
58.040         7
58.050        27
58.060        27
58.070        40
58.080        33
58.090        13
58.100        20
58.110        33
58.120        33
58.130        20
58.140        13
58.150        20
58.160        67
58.170        13
58.180        20
58.190        20
58.200        20
58.210         7
58.220        13
58.230        40
58.240         7
58.250        33
58.260         7
58.270        13
58.280        13
58.290        13
58.300        20
58.310         7
58.320        20
58.330         7
58.340        13
58.350        13
58.360        13
58.370        13
58.380        33
58.390        13
58.400         0
58.410        20
58.420        20
58.430        20
58.440        20
58.450        13
58.460        13
58.470         7
58.480         7
58.490        13
58.500        13
58.510        27
58.520         7
58.530        20
58.540        13
58.550        13
58.560         7
58.570        27
58.580         7
58.590         7
58.600        27
58.610        13
58.620        20
58.630        27
58.640        27
58.650        27
58.660         7
58.670         7
58.680        33
58.690        20
58.700        13
58.710        20
58.720        20
58.730         7
58.740        13
58.750         7
58.760        27
58.770         7
58.780        20
58.790         7
58.800        33
58.810         7
58.820        33
58.830         7
58.840         7
58.850        13
58.860        13
58.870        27
58.880        13
58.890        27
58.900        20
58.910         7
58.920         7
58.930        60
58.940        13
58.950        27
58.960        13
58.970        20
58.980         7
58.990        13
59.000         7
59.010        27
59.020        20
59.030         7
59.040        20
59.050        20
59.060         7
59.070        33
59.080         0
59.090         7
59.100        33
59.110         7
59.120         7
59.130        27
59.140        27
59.150        20
59.160        13
59.170         0
59.180        13
59.190        20
59.200        13
59.210        13
59.220         0
59.230        20
59.240         0
59.250        20
59.260        20
59.270        60
59.280         7
59.290        20
59.300        13
59.310        20
59.320         0
59.330         0
59.340         7
59.350        13
59.360        20
59.370        13
59.380        20
59.390        20
59.400        33
59.410         0
59.420        33
59.430         7
59.440        13
59.450        13
59.460        40
59.470        20
59.480        27
59.490        33
59.500        13
59.510        13
59.520        20
59.530        13
59.540         7
59.550        27
59.560        27
59.570        27
59.580        13
59.590        13
59.600         7
59.610         0
59.620         7
59.630         0
59.640        33
59.650         7
59.660        20
59.670        13
59.680         7
59.690         7
59.700         0
59.710        27
59.720        20
59.730        20
59.740        13
59.750        13
59.760        20
59.770        20
59.780         7
59.790        20
59.800        47
59.810         7
59.820         7
59.830         7
59.840        13
59.850        20
59.860         7
59.870        27
59.880        13
59.890        13
59.900        20
59.910        20
59.920         0
59.930        20
59.940         7
59.950        13
59.960         7
59.970         7
59.980         7
59.990         7
60.000         7
