20.000        27
20.010        27
20.020        47
20.030        40
20.040        67
20.050        47
20.060        40
20.070        33
20.080        33
20.090        47
20.100        27
20.110        53
20.120        60
20.130        33
20.140        20
20.150        40
20.160        33
20.170        47
20.180        27
20.190        53
20.200        53
20.210        60
20.220        40
20.230        53
20.240        27
20.250        20
20.260        67
20.270        60
20.280        47
20.290        53
20.300        40
20.310        53
20.320        60
20.330        40
20.340        67
20.350        33
20.360        27
20.370        53
20.380        40
20.390        47
20.400        80
20.410        40
20.420        60
20.430        80
20.440        67
20.450        40
20.460        53
20.470        47
20.480        47
20.490        40
20.500        87
20.510        27
20.520        33
20.530        27
20.540        40
20.550        80
20.560        60
20.570        60
20.580        53
20.590        27
20.600        27
20.610        33
20.620        67
20.630        27
20.640        20
20.650        13
20.660        33
20.670        33
20.680        33
20.690        33
20.700        53
20.710        33
20.720        20
20.730        67
20.740        47
20.750        53
20.760        33
20.770        47
20.780        33
20.790        60
20.800        40
20.810        33
20.820        27
20.830        67
20.840        53
20.850        40
20.860        53
20.870        40
20.880        20
20.890        40
20.900        13
20.910        33
20.920        40
20.930        27
20.940        27
20.950        53
20.960        53
20.970         7
20.980        53
20.990         7
21.000        40
21.010        60
21.020        13
21.030        40
21.040        40
21.050        80
21.060        40
21.070        40
21.080        40
21.090        60
21.100        40
21.110        13
21.120        40
21.130        33
21.140        33
21.150        47
21.160        40
21.170        53
21.180        67
21.190        40
21.200        47
21.210        27
21.220        33
21.230        47
21.240         7
21.250        60
21.260        33
21.270        33
21.280        53
21.290        27
21.300        27
21.310        53
21.320        33
21.330        67
21.340        40
21.350        53
21.360        60
21.370        40
21.380        47
21.390        27
21.400        40
21.410        40
21.420        33
21.430        33
21.440        53
21.450        33
21.460        27
21.470        33
21.480        27
21.490        33
21.500        27
21.510        73
21.520        53
21.530        33
21.540        40
21.550        40
21.560        53
21.570         7
21.580        27
21.590        47
21.600        47
21.610        47
21.620        40
21.630        13
21.640        47
21.650        33
21.660        80
21.670        27
21.680        33
21.690        13
21.700        40
21.710        53
21.720        33
21.730        47
21.740        27
21.750        33
21.760        40
21.770        60
21.780        27
21.790        33
21.800        33
21.810        53
21.820        27
21.830        47
21.840        33
21.850        20
21.860        13
21.870        53
21.880        53
21.890        47
21.900        20
21.910        47
21.920        67
21.930        67
21.940        13
21.950        40
21.960        47
21.970        60
21.980        33
21.990        47
22.000        33
22.010        27
22.020        53
22.030        73
22.040        47
22.050        53
22.060        40
22.070        53
22.080        40
22.090        67
22.100        20
22.110        33
22.120        33
22.130        33
22.140         7
22.150        27
22.160        40
22.170        53
22.180        67
22.190         7
22.200        33
22.210        67
22.220        33
22.230        27
22.240        33
22.250        27
22.260        40
22.270        60
22.280        33
22.290        40
22.300        40
22.310        60
22.320        33
22.330        27
22.340        47
22.350        60
22.360        47
22.370        73
22.380        27
22.390        53
22.400        73
22.410        47
22.420        40
22.430        47
22.440        67
22.450        53
22.460        53
22.470        33
22.480        60
22.490        73
22.500        80
22.510        87
22.520        80
22.530       120
22.540       113
22.550       107
22.560       133
22.570        60
22.580       107
22.590       187
22.600       153
22.610       153
22.620       220
22.630       153
22.640       160
22.650       193
22.660       253
22.670       247
22.680       273
22.690       287
22.700       247
22.710       273
22.720       307
22.730       327
22.740       300
22.750       307
22.760       287
22.770       273
22.780       287
22.790       300
22.800       300
22.810       207
22.820       240
22.830       133
22.840       167
22.850       160
22.860       160
22.870       127
22.880       140
22.890       167
22.900       100
22.910       113
22.920       107
22.930        93
22.940        73
22.950        93
22.960        80
22.970        80
22.980        47
22.990        87
23.000        67
23.010        67
23.020       113
23.030        67
23.040        47
23.050        87
23.060        67
23.070        53
23.080        20
23.090        80
23.100        47
23.110        47
23.120        33
23.130        60
23.140        40
23.150        53
23.160        13
23.170        53
23.180        60
23.190        33
23.200        53
23.210        47
23.220        47
23.230        53
23.240        33
23.250        93
23.260        67
23.270        13
23.280        73
23.290        53
23.300        60
23.310        33
23.320        47
23.330        40
23.340        47
23.350        47
23.360        27
23.370        20
23.380        40
23.390        73
23.400        20
23.410        40
23.420        27
23.430        47
23.440        80
23.450        80
23.460        60
23.470        40
23.480        33
23.490        40
23.500        20
23.510        33
23.520        33
23.530        53
23.540        60
23.550        40
23.560        93
23.570        13
23.580        40
23.590        40
23.600        13
23.610        47
23.620        27
23.630        27
23.640        20
23.650        40
23.660        33
23.670        47
23.680         7
23.690        47
23.700        47
23.710        47
23.720        33
23.730        67
23.740         7
23.750        47
23.760        53
23.770        33
23.780        47
23.790        40
23.800        67
23.810        40
23.820        47
23.830        27
23.840        27
23.850        47
23.860        33
23.870        40
23.880        47
23.890        20
23.900        47
23.910        47
23.920        60
23.930        13
23.940        60
23.950        53
23.960        40
23.970        33
23.980        13
23.990        47
24.000        47
24.010        40
24.020        20
24.030        67
24.040        20
24.050        40
24.060        40
24.070        27
24.080        53
24.090        27
24.100        47
24.110        53
24.120       100
24.130        40
24.140        40
24.150        27
24.160        53
24.170        47
24.180        33
24.190        47
24.200        27
24.210        40
24.220        40
24.230        13
24.240        47
24.250        20
24.260        53
24.270        47
24.280        33
24.290        20
24.300        47
24.310        27
24.320        47
24.330        33
24.340        40
24.350        13
24.360        47
24.370        20
24.380        27
24.390        20
24.400        27
24.410        47
24.420        20
24.430        27
24.440        27
24.450        27
24.460        33
24.470        20
24.480        20
24.490        40
24.500        33
24.510        40
24.520        20
24.530        27
24.540        53
24.550        20
24.560        47
24.570        40
24.580        33
24.590        40
24.600        67
24.610        20
24.620        67
24.630        47
24.640        80
24.650        47
24.660        47
24.670        33
24.680        33
24.690        13
24.700        40
24.710        40
24.720        47
24.730        27
24.740        40
24.750        33
24.760        33
24.770        40
24.780        60
24.790        47
24.800        20
24.810        20
24.820        20
24.830        47
24.840        60
24.850        47
24.860        80
24.870        20
24.880        40
24.890        47
24.900        40
24.910        27
24.920        47
24.930        33
24.940        40
24.950        33
24.960        53
24.970        53
24.980        33
24.990        47
25.000        33
25.010        33
25.020        33
25.030        67
25.040        60
25.050        33
25.060        27
25.070        40
25.080        47
25.090        20
25.100        27
25.110        33
25.120        60
25.130        20
25.140        33
25.150        40
25.160        67
25.170        27
25.180        60
25.190        60
25.200        53
25.210        33
25.220        40
25.230        40
25.240        33
25.250        40
25.260        20
25.270        47
25.280        33
25.290        27
25.300        13
25.310        47
25.320        47
25.330        40
25.340        33
25.350        67
25.360        47
25.370        60
25.380        53
25.390        60
25.400        60
25.410        73
25.420        40
25.430        53
25.440        27
25.450        27
25.460        53
25.470        47
25.480        53
25.490        60
25.500        60
25.510        47
25.520        33
25.530        47
25.540        47
25.550        87
25.560        73
25.570        60
25.580        73
25.590        67
25.600        87
25.610       127
25.620       133
25.630       220
25.640       207
25.650       213
25.660       233
25.670       167
25.680       200
25.690       133
25.700        67
25.710       107
25.720        67
25.730        80
25.740        53
25.750        53
25.760        53
25.770        60
25.780        80
25.790        60
25.800        47
25.810         7
25.820        47
25.830        27
25.840        27
25.850        53
25.860        40
25.870        47
25.880        13
25.890        33
25.900        53
25.910        33
25.920        40
25.930        40
25.940        20
25.950        33
25.960        40
25.970        20
25.980        13
25.990        33
26.000        27
26.010        27
26.020        47
26.030        33
26.040        40
26.050        33
26.060        40
26.070        47
26.080        33
26.090        53
26.100        40
26.110        33
26.120        20
26.130        20
26.140        40
26.150        33
26.160        20
26.170        33
26.180        40
26.190        20
26.200        47
26.210        20
26.220        33
26.230        33
26.240        27
26.250        40
26.260        40
26.270        53
26.280        67
26.290        27
26.300        40
26.310        20
26.320        27
26.330        47
26.340        40
26.350        27
26.360        13
26.370        27
26.380        27
26.390        20
26.400        33
26.410        40
26.420        40
26.430        40
26.440        47
26.450        33
26.460        13
26.470        47
26.480         7
26.490        20
26.500        40
26.510        67
26.520        53
26.530        20
26.540        13
26.550        20
26.560        27
26.570        33
26.580        33
26.590        20
26.600        27
26.610        20
26.620        27
26.630        13
26.640        33
26.650        53
26.660        33
26.670        33
26.680         7
26.690        20
26.700        20
26.710        27
26.720        53
26.730        40
26.740        33
26.750        60
26.760        20
26.770        40
26.780        40
26.790        53
26.800        20
26.810        27
26.820        40
26.830        40
26.840        47
26.850        27
26.860        33
26.870        13
26.880        40
26.890        60
26.900        33
26.910        13
26.920        47
26.930        40
26.940        33
26.950        47
26.960        33
26.970        60
26.980        47
26.990        33
27.000        20
27.010        60
27.020        53
27.030        13
27.040        20
27.050        47
27.060        47
27.070        47
27.080        33
27.090         7
27.100        33
27.110        53
27.120        40
27.130        33
27.140        33
27.150        40
27.160        33
27.170        20
27.180        60
27.190        20
27.200        20
27.210        53
27.220        27
27.230        27
27.240        27
27.250        13
27.260        20
27.270        53
27.280        47
27.290        47
27.300        20
27.310        47
27.320         7
27.330        40
27.340        20
27.350        13
27.360        40
27.370        27
27.380        27
27.390         7
27.400        13
27.410        33
27.420        33
27.430        67
27.440        27
27.450        20
27.460        53
27.470        47
27.480         7
27.490        27
27.500        33
27.510        47
27.520        47
27.530        13
27.540        53
27.550        33
27.560        27
27.570        20
27.580        20
27.590        47
27.600        60
27.610        13
27.620        33
27.630        40
27.640        60
27.650        47
27.660        20
27.670        20
27.680        13
27.690        27
27.700        20
27.710        27
27.720        53
27.730        33
27.740        13
27.750        20
27.760        20
27.770        33
27.780        13
27.790        47
27.800        33
27.810        40
27.820         0
27.830        53
27.840        47
27.850        40
27.860        40
27.870        47
27.880        27
27.890        40
27.900        27
27.910        33
27.920        40
27.930        27
27.940        27
27.950        33
27.960        40
27.970        40
27.980        33
27.990        13
28.000        27
28.010        60
28.020        13
28.030        33
28.040        53
28.050        20
28.060        40
28.070        40
28.080        40
28.090        33
28.100        47
28.110         0
28.120        20
28.130         7
28.140        60
28.150        33
28.160         0
28.170        40
28.180        47
28.190        53
28.200        33
28.210        20
28.220        13
28.230        47
28.240        13
28.250        13
28.260        40
28.270        20
28.280        27
28.290        27
28.300        13
28.310        20
28.320        33
28.330        40
28.340        27
28.350        40
28.360        33
28.370        40
28.380        13
28.390        20
28.400        40
28.410        20
28.420        33
28.430        33
28.440        27
28.450        47
28.460        13
28.470        53
28.480         7
28.490        40
28.500         0
28.510        40
28.520        33
28.530        47
28.540        47
28.550        20
28.560        47
28.570        20
28.580        40
28.590        27
28.600        47
28.610        60
28.620        33
28.630        47
28.640        53
28.650        20
28.660        33
28.670        13
28.680        47
28.690        20
28.700        53
28.710        40
28.720         7
28.730        40
28.740        33
28.750        20
28.760        33
28.770        33
28.780        67
28.790        13
28.800        47
28.810        13
28.820        53
28.830        33
28.840        33
28.850        20
28.860        33
28.870        33
28.880        13
28.890        20
28.900        40
28.910        40
28.920        27
28.930        20
28.940        40
28.950        13
28.960        20
28.970        20
28.980        27
28.990        33
29.000        27
29.010        47
29.020        33
29.030        40
29.040        40
29.050        40
29.060         7
29.070        33
29.080        13
29.090        27
29.100        27
29.110        47
29.120        20
29.130         7
29.140        40
29.150        47
29.160        40
29.170        27
29.180        20
29.190        33
29.200         0
29.210        33
29.220        33
29.230        27
29.240        13
29.250        33
29.260        27
29.270        33
29.280        40
29.290        27
29.300        40
29.310        20
29.320        33
29.330        20
29.340        40
29.350        20
29.360        20
29.370        20
29.380         7
29.390         7
29.400        47
29.410        33
29.420        33
29.430        40
29.440        20
29.450        27
29.460         7
29.470        27
29.480        40
29.490        40
29.500        60
29.510        33
29.520        13
29.530        40
29.540        40
29.550        33
29.560        27
29.570        20
29.580        13
29.590        53
29.600        40
29.610        13
29.620        33
29.630        40
29.640        20
29.650        13
29.660        33
29.670        33
29.680        20
29.690        73
29.700        20
29.710        20
29.720        40
29.730        13
29.740        20
29.750        20
29.760        27
29.770         7
29.780        53
29.790        13
29.800        13
29.810        33
29.820        47
29.830        40
29.840        33
29.850        47
29.860        20
29.870        33
29.880        53
29.890        27
29.900        47
29.910        27
29.920        47
29.930        13
29.940        60
29.950        33
29.960        27
29.970        53
29.980        47
29.990        47
30.000        33
30.010        47
30.020        33
30.030        20
30.040        13
30.050        27
30.060        40
30.070        13
30.080        40
30.090        27
30.100         7
30.110        40
30.120        13
30.130        33
30.140        33
30.150        33
30.160        40
30.170        20
30.180        40
30.190        20
30.200         7
30.210        33
30.220        20
30.230        33
30.240        13
30.250        47
30.260        27
30.270        40
30.280        33
30.290        13
30.300        53
30.310        47
30.320        53
30.330        20
30.340        33
30.350        13
30.360        13
30.370        13
30.380        20
30.390        33
30.400        20
30.410        20
30.420        27
30.430        13
30.440        27
30.450        13
30.460        27
30.470        33
30.480        40
30.490        40
30.500        33
30.510        27
30.520        13
30.530        40
30.540        20
30.550        47
30.560        53
30.570        13
30.580        20
30.590        27
30.600        33
30.610        20
30.620        40
30.630        33
30.640        33
30.650        60
30.660        13
30.670        40
30.680        27
30.690        13
30.700        20
30.710        33
30.720        13
30.730        13
30.740        33
30.750        13
30.760         7
30.770        20
30.780        20
30.790        13
30.800        53
30.810        40
30.820        20
30.830        13
30.840        33
30.850        27
30.860        53
30.870        13
30.880        27
30.890        20
30.900        33
30.910        33
30.920        13
30.930        20
30.940         7
30.950        40
30.960        47
30.970        20
30.980        47
30.990        27
31.000        27
31.010        27
31.020        40
31.030        20
31.040        20
31.050        33
31.060        53
31.070        27
31.080        53
31.090        13
31.100        20
31.110        33
31.120        27
31.130         7
31.140        13
31.150        60
31.160        53
31.170        27
31.180        27
31.190        27
31.200        13
31.210        53
31.220        40
31.230        13
31.240        27
31.250        27
31.260        13
31.270        27
31.280        27
31.290        13
31.300        20
31.310         7
31.320        60
31.330        33
31.340        27
31.350        40
31.360        47
31.370         7
31.380        20
31.390        20
31.400        20
31.410        27
31.420        27
31.430        33
31.440        60
31.450        33
31.460         7
31.470        47
31.480         7
31.490        67
31.500        20
31.510        47
31.520        13
31.530        27
31.540         7
31.550        13
31.560         7
31.570         0
31.580        13
31.590        40
31.600        40
31.610        40
31.620        40
31.630        20
31.640         7
31.650        40
31.660        20
31.670        53
31.680        20
31.690        33
31.700        67
31.710        40
31.720        33
31.730        20
31.740        13
31.750        20
31.760        47
31.770        13
31.780        20
31.790        53
31.800        53
31.810        13
31.820        13
31.830        20
31.840        27
31.850        20
31.860        53
31.870        60
31.880        13
31.890        33
31.900        60
31.910         0
31.920        33
31.930        33
31.940        13
31.950        40
31.960        27
31.970         7
31.980        73
31.990        47
32.000        33
32.010        60
32.020        40
32.030        60
32.040         7
32.050        73
32.060        33
32.070        47
32.080        27
32.090        27
32.100        53
32.110        60
32.120        67
32.130        67
32.140        33
32.150        27
32.160        53
32.170        27
32.180        53
32.190        40
32.200        60
32.210        73
32.220        53
32.230       100
32.240        87
32.250       107
32.260       100
32.270        40
32.280        80
32.290       160
32.300       147
32.310       100
32.320       107
32.330       100
32.340       120
32.350       153
32.360       147
32.370       153
32.380       160
32.390       187
32.400       133
32.410       180
32.420       160
32.430       140
32.440       133
32.450       147
32.460       167
32.470       173
32.480       167
32.490       160
32.500       113
32.510       207
32.520       120
32.530       140
32.540       160
32.550       120
32.560       100
32.570       107
32.580       107
32.590       100
32.600        80
32.610       100
32.620        67
32.630        87
32.640        73
32.650        40
32.660        73
32.670        80
32.680        67
32.690        73
32.700        27
32.710        40
32.720        27
32.730        33
32.740        47
32.750        33
32.760        33
32.770         7
32.780        53
32.790        33
32.800        33
32.810        27
32.820        33
32.830        60
32.840        33
32.850        13
32.860        27
32.870        13
32.880        33
32.890        33
32.900        40
32.910        27
32.920        27
32.930        27
32.940        27
32.950         7
32.960        13
32.970        27
32.980        20
32.990        47
33.000        33
33.010        27
33.020        20
33.030        33
33.040        20
33.050         7
33.060        40
33.070        20
33.080        20
33.090        27
33.100        20
33.110        27
33.120         7
33.130        40
33.140        27
33.150        33
33.160        40
33.170        27
33.180         7
33.190        47
33.200        27
33.210         0
33.220        33
33.230        40
33.240        13
33.250        20
33.260        33
33.270        27
33.280        47
33.290        27
33.300        27
33.310        20
33.320        47
33.330        13
33.340        33
33.350        33
33.360        27
33.370         7
33.380        33
33.390        27
33.400        33
33.410        13
33.420         0
33.430        13
33.440        13
33.450        13
33.460        33
33.470        13
33.480        27
33.490        27
33.500        47
33.510        20
33.520        27
33.530        13
33.540        60
33.550        40
33.560         7
33.570         7
33.580        67
33.590        20
33.600        33
33.610        27
33.620        20
33.630        27
33.640        33
33.650        40
33.660        20
33.670        47
33.680        20
33.690        33
33.700        13
33.710        13
33.720        33
33.730        27
33.740        40
33.750        27
33.760        20
33.770        27
33.780        13
33.790        33
33.800        20
33.810        27
33.820        60
33.830        13
33.840        27
33.850        20
33.860        27
33.870        40
33.880        20
33.890        20
33.900        27
33.910        33
33.920        20
33.930        33
33.940        20
33.950         0
33.960        27
33.970        40
33.980        33
33.990        27
34.000        40
34.010        13
34.020         7
34.030        27
34.040        20
34.050        33
34.060        13
34.070        40
34.080        20
34.090         7
34.100        20
34.110        13
34.120        33
34.130        20
34.140        20
34.150        33
34.160        13
34.170         7
34.180        27
34.190        27
34.200         7
34.210        47
34.220        33
34.230        20
34.240        33
34.250        27
34.260         7
34.270        47
34.280        33
34.290        33
34.300        13
34.310        53
34.320        33
34.330         7
34.340        20
34.350        27
34.360        13
34.370        20
34.380        20
34.390        20
34.400        20
34.410        47
34.420        13
34.430        33
34.440        27
34.450        40
34.460        33
34.470        13
34.480        27
34.490        27
34.500        47
34.510        27
34.520        13
34.530        20
34.540         0
34.550        20
34.560        27
34.570        20
34.580        20
34.590        60
34.600        33
34.610        20
34.620        20
34.630        47
34.640        33
34.650        47
34.660        47
34.670        20
34.680        13
34.690        13
34.700        47
34.710        33
34.720        33
34.730        27
34.740        20
34.750        33
34.760        13
34.770        33
34.780        27
34.790        40
34.800        13
34.810        27
34.820        33
34.830        13
34.840        20
34.850        13
34.860        27
34.870        33
34.880        20
34.890        20
34.900        47
34.910        20
34.920        60
34.930        40
34.940        67
34.950        47
34.960        13
34.970        40
34.980        27
34.990        87
35.000        47
35.010        60
35.020        60
35.030        47
35.040        60
35.050        60
35.060        40
35.070        93
35.080        93
35.090       120
35.100       113
35.110       180
35.120       127
35.130       153
35.140       133
35.150       247
35.160       233
35.170       347
35.180       287
35.190       347
35.200       293
35.210       160
35.220       347
35.230       160
35.240       187
35.250       193
35.260       207
35.270       180
35.280       113
35.290       120
35.300       140
35.310       160
35.320       113
35.330        87
35.340        67
35.350        20
35.360        20
35.370        60
35.380        33
35.390        33
35.400        33
35.410        20
35.420        27
35.430        53
35.440        33
35.450        33
35.460        73
35.470        13
35.480        47
35.490        47
35.500        40
35.510        27
35.520        27
35.530        13
35.540        47
35.550        13
35.560        47
35.570        20
35.580        13
35.590        20
35.600        20
35.610        33
35.620        13
35.630        20
35.640        13
35.650        40
35.660        13
35.670        33
35.680        13
35.690         7
35.700        47
35.710         7
35.720         0
35.730        33
35.740        20
35.750        20
35.760        20
35.770        13
35.780        13
35.790        33
35.800        33
35.810        13
35.820        13
35.830        13
35.840        20
35.850        20
35.860         7
35.870        27
35.880        13
35.890        53
35.900        20
35.910        13
35.920        27
35.930        40
35.940        13
35.950        13
35.960        53
35.970        13
35.980        27
35.990        60
36.000        40
36.010        20
36.020        13
36.030        27
36.040        20
36.050         7
36.060        27
36.070        27
36.080        40
36.090        53
36.100        20
36.110        40
36.120        13
36.130        13
36.140        13
36.150        27
36.160        13
36.170        47
36.180         7
36.190        27
36.200         7
36.210        27
36.220        40
36.230        27
36.240        27
36.250        20
36.260        40
36.270        13
36.280        40
36.290        13
36.300        20
36.310        13
36.320        40
36.330        40
36.340        20
36.350        13
36.360        20
36.370        20
36.380        47
36.390        13
36.400        40
36.410        27
36.420         7
36.430        20
36.440        40
36.450        20
36.460        27
36.470        27
36.480        13
36.490        13
36.500        20
36.510        53
36.520        13
36.530        13
36.540         0
36.550        27
36.560        40
36.570         7
36.580        20
36.590        33
36.600        20
36.610        20
36.620        20
36.630        27
36.640        20
36.650        20
36.660        20
36.670        40
36.680        13
36.690        33
36.700        20
36.710        27
36.720        47
36.730        20
36.740        53
36.750        13
36.760        53
36.770        67
36.780         7
36.790        33
36.800        40
36.810        20
36.820        27
36.830        33
36.840        13
36.850        33
36.860        33
36.870        27
36.880        33
36.890        27
36.900        20
36.910        20
36.920        13
36.930        27
36.940        40
36.950        20
36.960        13
36.970        53
36.980        33
36.990        20
37.000        20
37.010        13
37.020        40
37.030        40
37.040         7
37.050        13
37.060        40
37.070         0
37.080        33
37.090        27
37.100        33
37.110        40
37.120         0
37.130         0
37.140        13
37.150         7
37.160        27
37.170        13
37.180        20
37.190         7
37.200        13
37.210        20
37.220        27
37.230        27
37.240        20
37.250        47
37.260         7
37.270        40
37.280        27
37.290        33
37.300        27
37.310        20
37.320        20
37.330        13
37.340        13
37.350         7
37.360        27
37.370        40
37.380        40
37.390        13
37.400        13
37.410        13
37.420         7
37.430        20
37.440         0
37.450        47
37.460         0
37.470        20
37.480        13
37.490        20
37.500        27
37.510        33
37.520        20
37.530        47
37.540        20
37.550         7
37.560        13
37.570        27
37.580        20
37.590        60
37.600        20
37.610        27
37.620        20
37.630        47
37.640        20
37.650        33
37.660        47
37.670         7
37.680        40
37.690        27
37.700        13
37.710        40
37.720        20
37.730         7
37.740        47
37.750        33
37.760        53
37.770       100
37.780       107
37.790       133
37.800       193
37.810       207
37.820       260
37.830       247
37.840       227
37.850       193
37.860       140
37.870       147
37.880       107
37.890       193
37.900       113
37.910       173
37.920       160
37.930       133
37.940       187
37.950       187
37.960        87
37.970        93
37.980        73
37.990        27
38.000        33
38.010        47
38.020        27
38.030        33
38.040        33
38.050        47
38.060        13
38.070        20
38.080        20
38.090        40
38.100        27
38.110        27
38.120        27
38.130        33
38.140        33
38.150        27
38.160         0
38.170        33
38.180        20
38.190        27
38.200        27
38.210        33
38.220        13
38.230        27
38.240         7
38.250        27
38.260        47
38.270        13
38.280        33
38.290        27
38.300        27
38.310        33
38.320        13
38.330        33
38.340        33
38.350        13
38.360        13
38.370        33
38.380        47
38.390        33
38.400         7
38.410        27
38.420        40
38.430        40
38.440        27
38.450        27
38.460        27
38.470        40
38.480         0
38.490        53
38.500         0
38.510         7
38.520        20
38.530        20
38.540        33
38.550        20
38.560        27
38.570        20
38.580         7
38.590        33
38.600        27
38.610        27
38.620        27
38.630        33
38.640        20
38.650        33
38.660        13
38.670        13
38.680        33
38.690        27
38.700        20
38.710        40
38.720        20
38.730        13
38.740        27
38.750        20
38.760         7
38.770         7
38.780         7
38.790        20
38.800        33
38.810        33
38.820        40
38.830        20
38.840        20
38.850        20
38.860         0
38.870        33
38.880        13
38.890        33
38.900        27
38.910        27
38.920        33
38.930        13
38.940        40
38.950        20
38.960        33
38.970         0
38.980        33
38.990        13
39.000        27
39.010        13
39.020        13
39.030        27
39.040        40
39.050        20
39.060        53
39.070        33
39.080        27
39.090        33
39.100        33
39.110        40
39.120        20
39.130        40
39.140        47
39.150        27
39.160         7
39.170        20
39.180        20
39.190         7
39.200        13
39.210        27
39.220        20
39.230        47
39.240        13
39.250        20
39.260        33
39.270        27
39.280         7
39.290        27
39.300        27
39.310        20
39.320         7
39.330         7
39.340        20
39.350        20
39.360        13
39.370         7
39.380        47
39.390        40
39.400        20
39.410        13
39.420        13
39.430        40
39.440        20
39.450        47
39.460        20
39.470        27
39.480        20
39.490        33
39.500        40
39.510        40
39.520         7
39.530        33
39.540         7
39.550        53
39.560        27
39.570        33
39.580        13
39.590        40
39.600        20
39.610        27
39.620        40
39.630        20
39.640        53
39.650        13
39.660        33
39.670         7
39.680        20
39.690        20
39.700        33
39.710        33
39.720        13
39.730        47
39.740        27
39.750        27
39.760        40
39.770        47
39.780        47
39.790        40
39.800        27
39.810        93
39.820        40
39.830        27
39.840        60
39.850        60
39.860        33
39.870        67
39.880        80
39.890        47
39.900        80
39.910       107
39.920       107
39.930       100
39.940        93
39.950       133
39.960       193
39.970       120
39.980       153
39.990       147
40.000       200
40.010       160
40.020       193
40.030       233
40.040       200
40.050       207
40.060       147
40.070       193
40.080       127
40.090        93
40.100       113
40.110       153
40.120       133
40.130        93
40.140       127
40.150        93
40.160        73
40.170       107
40.180        60
40.190        47
40.200        67
40.210        53
40.220        60
40.230        33
40.240        27
40.250        47
40.260        53
40.270        40
40.280        47
40.290        47
40.300        47
40.310        40
40.320         7
40.330        40
40.340        47
40.350        33
40.360        33
40.370        40
40.380        40
40.390        40
40.400        67
40.410         7
40.420        47
40.430        40
40.440        20
40.450        27
40.460        27
40.470        33
40.480        13
40.490        20
40.500        13
40.510        67
40.520        33
40.530        27
40.540         7
40.550        13
40.560        20
40.570        20
40.580        33
40.590        20
40.600        20
40.610        27
40.620        33
40.630        27
40.640        53
40.650        20
40.660        40
40.670         7
40.680        13
40.690        27
40.700         7
40.710        33
40.720        33
40.730        13
40.740        20
40.750        33
40.760         0
40.770        33
40.780        20
40.790        40
40.800        13
40.810        27
40.820        13
40.830        20
40.840        13
40.850        20
40.860        40
40.870         7
40.880        27
40.890        60
40.900        20
40.910        20
40.920        13
40.930        60
40.940        13
40.950        13
40.960        20
40.970         7
40.980        20
40.990        33
41.000        13
41.010        13
41.020        33
41.030        13
41.040        33
41.050        40
41.060        27
41.070        47
41.080        13
41.090        33
41.100         7
41.110        47
41.120        33
41.130        20
41.140        20
41.150        20
41.160        20
41.170        20
41.180        40
41.190         7
41.200        40
41.210        20
41.220        33
41.230        13
41.240        60
41.250         7
41.260        33
41.270        40
41.280        33
41.290        20
41.300        13
41.310        20
41.320        27
41.330        27
41.340        27
41.350        13
41.360        20
41.370        27
41.380        40
41.390        40
41.400        33
41.410         0
41.420        20
41.430        47
41.440        33
41.450        20
41.460        40
41.470        27
41.480        27
41.490        20
41.500        47
41.510         7
41.520        33
41.530        33
41.540        13
41.550        60
41.560        53
41.570        73
41.580        53
41.590        47
41.600        40
41.610        73
41.620        53
41.630        60
41.640        60
41.650        47
41.660       127
41.670        80
41.680       120
41.690       200
41.700       147
41.710       120
41.720       227
41.730       193
41.740       193
41.750        93
41.760       120
41.770       147
41.780        93
41.790        60
41.800        87
41.810       100
41.820        60
41.830       120
41.840        80
41.850        93
41.860        93
41.870        93
41.880        47
41.890        67
41.900        87
41.910        33
41.920        40
41.930         7
41.940        67
41.950        53
41.960        27
41.970        20
41.980        27
41.990        27
42.000        33
42.010         7
42.020        20
42.030        27
42.040        13
42.050        33
42.060        13
42.070        40
42.080        13
42.090        20
42.100         0
42.110        33
42.120        27
42.130        27
42.140         7
42.150        33
42.160        20
42.170        40
42.180        20
42.190        13
42.200        40
42.210        13
42.220        20
42.230        20
42.240        13
42.250        40
42.260        27
42.270         7
42.280        20
42.290        13
42.300        20
42.310        20
42.320         7
42.330         7
42.340        20
42.350        20
42.360        20
42.370        13
42.380        47
42.390         7
42.400         7
42.410        20
42.420        33
42.430        53
42.440        27
42.450        20
42.460        27
42.470        33
42.480        13
42.490         7
42.500        40
42.510        13
42.520        27
42.530        33
42.540         7
42.550        47
42.560        27
42.570        33
42.580        20
42.590        20
42.600        20
42.610        20
42.620        20
42.630        40
42.640        20
42.650        13
42.660        47
42.670         7
42.680        33
42.690        13
42.700         0
42.710        20
42.720        13
42.730        13
42.740        20
42.750        20
42.760        27
42.770        20
42.780         7
42.790        40
42.800        47
42.810        40
42.820        13
42.830        40
42.840        27
42.850        13
42.860        33
42.870        27
42.880        40
42.890        27
42.900        47
42.910        13
42.920         7
42.930        13
42.940        40
42.950        27
42.960        47
42.970        33
42.980         7
42.990        27
43.000         7
43.010        13
43.020        53
43.030        20
43.040        47
43.050        20
43.060        27
43.070        27
43.080        33
43.090        20
43.100        13
43.110        60
43.120        20
43.130        40
43.140        20
43.150        20
43.160        27
43.170        20
43.180        27
43.190        53
43.200         7
43.210        47
43.220        53
43.230        67
43.240         7
43.250        40
43.260        33
43.270        47
43.280        40
43.290        60
43.300        93
43.310       120
43.320       107
43.330       133
43.340       127
43.350       207
43.360       280
43.370       280
43.380       300
43.390       327
43.400       493
43.410       480
43.420       460
43.430       486
43.440       393
43.450       387
43.460       240
43.470       200
43.480       200
43.490       267
43.500       280
43.510       300
43.520       207
43.530       353
43.540       267
43.550       200
43.560       153
43.570        67
43.580       100
43.590        33
43.600        67
43.610        20
43.620        20
43.630        13
43.640        13
43.650        33
43.660        40
43.670        27
43.680        20
43.690        27
43.700        20
43.710        27
43.720        27
43.730        53
43.740        27
43.750        27
43.760        27
43.770        67
43.780        40
43.790        13
43.800        13
43.810        13
43.820        20
43.830        13
43.840        13
43.850        27
43.860        27
43.870        33
43.880         7
43.890        20
43.900        40
43.910         0
43.920        40
43.930        20
43.940        13
43.950        33
43.960        20
43.970        47
43.980        27
43.990        40
44.000        20
44.010        53
44.020        20
44.030        20
44.040        13
44.050        13
44.060        13
44.070        13
44.080         7
44.090         7
44.100        47
44.110        33
44.120        13
44.130        33
44.140        33
44.150        33
44.160        20
44.170        27
44.180        33
44.190        20
44.200        13
44.210         0
44.220        20
44.230        40
44.240        27
44.250        20
44.260        20
44.270        13
44.280        27
44.290        33
44.300        33
44.310        27
44.320        13
44.330        27
44.340        20
44.350        33
44.360        27
44.370        20
44.380        13
44.390        33
44.400        33
44.410        27
44.420        47
44.430         0
44.440        33
44.450        33
44.460        27
44.470        27
44.480        13
44.490        20
44.500        53
44.510        33
44.520        27
44.530        27
44.540        13
44.550        33
44.560        33
44.570        33
44.580        40
44.590         0
44.600        33
44.610        27
44.620        47
44.630        27
44.640        27
44.650        47
44.660        33
44.670        40
44.680        33
44.690        20
44.700        47
44.710        60
44.720        47
44.730        27
44.740         0
44.750        47
44.760        13
44.770        13
44.780        33
44.790        33
44.800        47
44.810        13
44.820        67
44.830        27
44.840        47
44.850        40
44.860        67
44.870        53
44.880        47
44.890        67
44.900        40
44.910        67
44.920        67
44.930        60
44.940        60
44.950        27
44.960        33
44.970        47
44.980        27
44.990        80
45.000        53
45.010        33
45.020        53
45.030        33
45.040        47
45.050        47
45.060        53
45.070        40
45.080        60
45.090        27
45.100        47
45.110        47
45.120        53
45.130        87
45.140        73
45.150        60
45.160        33
45.170        67
45.180        13
45.190        53
45.200        33
45.210        53
45.220        67
45.230        53
45.240        47
45.250        47
45.260       100
45.270        80
45.280        60
45.290        47
45.300        27
45.310        60
45.320        93
45.330        53
45.340        67
45.350        67
45.360        53
45.370        67
45.380        67
45.390        60
45.400        40
45.410        60
45.420        60
45.430        87
45.440        60
45.450        53
45.460        80
45.470        60
45.480       113
45.490        40
45.500        73
45.510       120
45.520        80
45.530        47
45.540        73
45.550        67
45.560        73
45.570        47
45.580        73
45.590       120
45.600        80
45.610        73
45.620        87
45.630        80
45.640       133
45.650        60
45.660       120
45.670        73
45.680        80
45.690       107
45.700       173
45.710       153
45.720       140
45.730       173
45.740       127
45.750       147
45.760       127
45.770       113
45.780       193
45.790       153
45.800       113
45.810       133
45.820       207
45.830       147
45.840       213
45.850       273
45.860       173
45.870       207
45.880       233
45.890       220
45.900       220
45.910       180
45.920       347
45.930       253
45.940       273
45.950       267
45.960       380
45.970       347
45.980       373
45.990       367
46.000       333
46.010       400
46.020       367
46.030       480
46.040       380
46.050       500
46.060       586
46.070       500
46.080       546
46.090       653
46.100       613
46.110       726
46.120       686
46.130       733
46.140       900
46.150       933
46.160       846
46.170       986
46.180      1020
46.190      1053
46.200      1193
46.210      1200
46.220      1439
46.230      1279
46.240      1419
46.250      1513
46.260      1526
46.270      1593
46.280      1659
46.290      1693
46.300      1719
46.310      1546
46.320      1766
46.330      1939
46.340      1979
46.350      2086
46.360      2006
46.370      2219
46.380      2206
46.390      2199
46.400      2326
46.410      2139
46.420      2226
46.430      2306
46.440      2033
46.450      2166
46.460      2239
46.470      2419
46.480      2232
46.490      1879
46.500      1979
46.510      1799
46.520      2033
46.530      1846
46.540      1899
46.550      1759
46.560      1653
46.570      1739
46.580      1839
46.590      1746
46.600      1419
46.610      1579
46.620      1459
46.630      1333
46.640      1200
46.650      1279
46.660      1206
46.670       986
46.680      1100
46.690       993
46.700       946
46.710       973
46.720       940
46.730       940
46.740       786
46.750       713
46.760       646
46.770       600
46.780       606
46.790       626
46.800       566
46.810       440
46.820       353
46.830       473
46.840       486
46.850       440
46.860       387
46.870       407
46.880       367
46.890       400
46.900       353
46.910       327
46.920       327
46.930       273
46.940       313
46.950       307
46.960       207
46.970       253
46.980       187
46.990       233
47.000       147
47.010       187
47.020       180
47.030       180
47.040       180
47.050       187
47.060       160
47.070       147
47.080        80
47.090       100
47.100       147
47.110       140
47.120        93
47.130       133
47.140       147
47.150       173
47.160       107
47.170       167
47.180       120
47.190       107
47.200        87
47.210       113
47.220       100
47.230        67
47.240       107
47.250        67
47.260       113
47.270       160
47.280        73
47.290        33
47.300        60
47.310        67
47.320        87
47.330        73
47.340        67
47.350        67
47.360        93
47.370       100
47.380        87
47.390        67
47.400        93
47.410        53
47.420        60
47.430        27
47.440        73
47.450        60
47.460        60
47.470        40
47.480        80
47.490        47
47.500        67
47.510        80
47.520        73
47.530        33
47.540        53
47.550        33
47.560        27
47.570        47
47.580        53
47.590        67
47.600        87
47.610        53
47.620        47
47.630        73
47.640        67
47.650        53
47.660        40
47.670        67
47.680        47
47.690        47
47.700        40
47.710        67
47.720        33
47.730        67
47.740        13
47.750        40
47.760        33
47.770        53
47.780        60
47.790        13
47.800        53
47.810        47
47.820        33
47.830        40
47.840        47
47.850        47
47.860        27
47.870        20
47.880        33
47.890        60
47.900        40
47.910        47
47.920        60
47.930        73
47.940        20
47.950        47
47.960        27
47.970        60
47.980        53
47.990         0
48.000        33
48.010        33
48.020        67
48.030        13
48.040        40
48.050        47
48.060        40
48.070        27
48.080        53
48.090        20
48.100        40
48.110        40
48.120        27
48.130        33
48.140        60
48.150         7
48.160        40
48.170        40
48.180        67
48.190        40
48.200        53
48.210        47
48.220        60
48.230        87
48.240        33
48.250        20
48.260        47
48.270        40
48.280        47
48.290        27
48.300        67
48.310        27
48.320        20
48.330         7
48.340        33
48.350        27
48.360        40
48.370        27
48.380        20
48.390        47
48.400        47
48.410         7
48.420         7
48.430        40
48.440        53
48.450        47
48.460        33
48.470        13
48.480        20
48.490        47
48.500        47
48.510         7
48.520        40
48.530         7
48.540        40
48.550        27
48.560        33
48.570        20
48.580        27
48.590         0
48.600        20
48.610        33
48.620        47
48.630        33
48.640        20
48.650         7
48.660        27
48.670        13
48.680        47
48.690        20
48.700        27
48.710        40
48.720        33
48.730        20
48.740        13
48.750        53
48.760        53
48.770         0
48.780        60
48.790        13
48.800        33
48.810        13
48.820        27
48.830        40
48.840        47
48.850        27
48.860        53
48.870        33
48.880        40
48.890        27
48.900        27
48.910        40
48.920        33
48.930        20
48.940        33
48.950        13
48.960        40
48.970        33
48.980        20
48.990        33
49.000        27
49.010        40
49.020        27
49.030        27
49.040        13
49.050         7
49.060        27
49.070        13
49.080        20
49.090        40
49.100        20
49.110        27
49.120        27
49.130        47
49.140        20
49.150        20
49.160        33
49.170        47
49.180        27
49.190        53
49.200        20
49.210        20
49.220        27
49.230        20
49.240        27
49.250        20
49.260        13
49.270        27
49.280         0
49.290        47
49.300        20
49.310        33
49.320        20
49.330         7
49.340         7
49.350        53
49.360        40
49.370        40
49.380        20
49.390        27
49.400        13
49.410        13
49.420        53
49.430         7
49.440        13
49.450        67
49.460        27
49.470        27
49.480        40
49.490        27
49.500        40
49.510        33
49.520        20
49.530        20
49.540         7
49.550        20
49.560        13
49.570        20
49.580        27
49.590        40
49.600        33
49.610        33
49.620        20
49.630        13
49.640        13
49.650        20
49.660        20
49.670        33
49.680        47
49.690         7
49.700        27
49.710        33
49.720        40
49.730        20
49.740        20
49.750        13
49.760        53
49.770        20
49.780        13
49.790        13
49.800        40
49.810        13
49.820        33
49.830        13
49.840         7
49.850        27
49.860        27
49.870        20
49.880        40
49.890        13
49.900        20
49.910         7
49.920        33
49.930        20
49.940        13
49.950        13
49.960        33
49.970        13
49.980        33
49.990        33
50.000        33
50.010         0
50.020        60
50.030        27
50.040        47
50.050        13
50.060        13
50.070        53
50.080        27
50.090         0
50.100        33
50.110        33
50.120         0
50.130        40
50.140         7
50.150        20
50.160        53
50.170        13
50.180        40
50.190        33
50.200        13
50.210        33
50.220        13
50.230        27
50.240         7
50.250        33
50.260        20
50.270        13
50.280        13
50.290        20
50.300        20
50.310        13
50.320        40
50.330        27
50.340        40
50.350        33
50.360        27
50.370         0
50.380        47
50.390        13
50.400        40
50.410        13
50.420        13
50.430        33
50.440        20
50.450        33
50.460        20
50.470         7
50.480        33
50.490         0
50.500        13
50.510        13
50.520        40
50.530        13
50.540        13
50.550        40
50.560        13
50.570        20
50.580        20
50.590        20
50.600        20
50.610         7
50.620        33
50.630        33
50.640        27
50.650         7
50.660        27
50.670         7
50.680        13
50.690        40
50.700        40
50.710         7
50.720        27
50.730        27
50.740        13
50.750        13
50.760        20
50.770        13
50.780        67
50.790        40
50.800        13
50.810        13
50.820         7
50.830        33
50.840        13
50.850        47
50.860         7
50.870        33
50.880        47
50.890         7
50.900        20
50.910        13
50.920        33
50.930        27
50.940        20
50.950        27
50.960        33
50.970        40
50.980         0
50.990        27
51.000        27
51.010        40
51.020        33
51.030         7
51.040        33
51.050        20
51.060         7
51.070        13
51.080        67
51.090         7
51.100        40
51.110        27
51.120        33
51.130        33
51.140        33
51.150         7
51.160         0
51.170        20
51.180        20
51.190        27
51.200        27
51.210        27
51.220        13
51.230         7
51.240        20
51.250        33
51.260        27
51.270        20
51.280        40
51.290        33
51.300         7
51.310        53
51.320        20
51.330         7
51.340        13
51.350        20
51.360        20
51.370        33
51.380        20
51.390        13
51.400        60
51.410         7
51.420        20
51.430        27
51.440        13
51.450         7
51.460        13
51.470        20
51.480        13
51.490         7
51.500        27
51.510        27
51.520        27
51.530        20
51.540        13
51.550        27
51.560        13
51.570        27
51.580         7
51.590        40
51.600        20
51.610         7
51.620        33
51.630        33
51.640        27
51.650        20
51.660        33
51.670        20
51.680         7
51.690        27
51.700        27
51.710        13
51.720        13
51.730        27
51.740        33
51.750        13
51.760        40
51.770         7
51.780         7
51.790        27
51.800        20
51.810        33
51.820        40
51.830         0
51.840        20
51.850        13
51.860        27
51.870        20
51.880        20
51.890         7
51.900        13
51.910        20
51.920        13
51.930        47
51.940        33
51.950        13
51.960        27
51.970        40
51.980        27
51.990        20
52.000        33
52.010        60
52.020         7
52.030        20
52.040        47
52.050        20
52.060        33
52.070        27
52.080        20
52.090        27
52.100        33
52.110        27
52.120        13
52.130        27
52.140        27
52.150        27
52.160        20
52.170        27
52.180         7
52.190        40
52.200        33
52.210        27
52.220        13
52.230        13
52.240        13
52.250         0
52.260        13
52.270         0
52.280        33
52.290        27
52.300        40
52.310         7
52.320        20
52.330        13
52.340        33
52.350        20
52.360        20
52.370        47
52.380        33
52.390        33
52.400        20
52.410        53
52.420        27
52.430        20
52.440        27
52.450        13
52.460        47
52.470        40
52.480        53
52.490        27
52.500        60
52.510        40
52.520        47
52.530        40
52.540        40
52.550        33
52.560        67
52.570       133
52.580       127
52.590       133
52.600       233
52.610       207
52.620       293
52.630       193
52.640       207
52.650       213
52.660       113
52.670       140
52.680       107
52.690        73
52.700       140
52.710        93
52.720        93
52.730        87
52.740       140
52.750       120
52.760       167
52.770       127
52.780       100
52.790       127
52.800        67
52.810        73
52.820        47
52.830        47
52.840        27
52.850        40
52.860        20
52.870        67
52.880        27
52.890        40
52.900        33
52.910        20
52.920        27
52.930        20
52.940        27
52.950        27
52.960        33
52.970        33
52.980        40
52.990        33
53.000        27
53.010        33
53.020         7
53.030        13
53.040        33
53.050        13
53.060        33
53.070        33
53.080        20
53.090        13
53.100        13
53.110        27
53.120        13
53.130         0
53.140        33
53.150        27
53.160        47
53.170        20
53.180        27
53.190        47
53.200        20
53.210        13
53.220         7
53.230        33
53.240        20
53.250        27
53.260        27
53.270        20
53.280         7
53.290        20
53.300         7
53.310        20
53.320        27
53.330        20
53.340        13
53.350        13
53.360         7
53.370        13
53.380        27
53.390        27
53.400        33
53.410        27
53.420        20
53.430        27
53.440        20
53.450        13
53.460        13
53.470        20
53.480        13
53.490        13
53.500        13
53.510        27
53.520         7
53.530        27
53.540        20
53.550        47
53.560        20
53.570         0
53.580        27
53.590        20
53.600        27
53.610        33
53.620         7
53.630         0
53.640         7
53.650        27
53.660        20
53.670        13
53.680         0
53.690        33
53.700        13
53.710        13
53.720        13
53.730        20
53.740        20
53.750        13
53.760         7
53.770         7
53.780        13
53.790        13
53.800        27
53.810        20
53.820        20
53.830         7
53.840        20
53.850         0
53.860         7
53.870         0
53.880        13
53.890        27
53.900        60
53.910        27
53.920        20
53.930        20
53.940         0
53.950        33
53.960         7
53.970        27
53.980         0
53.990        40
54.000        27
54.010         7
54.020        13
54.030        27
54.040        20
54.050        33
54.060         7
54.070        33
54.080         7
54.090        33
54.100         0
54.110        20
54.120        20
54.130        13
54.140        20
54.150        60
54.160        13
54.170        33
54.180        13
54.190        13
54.200        13
54.210        13
54.220        13
54.230        13
54.240        20
54.250        20
54.260        20
54.270        13
54.280        20
54.290        13
54.300         7
54.310         7
54.320        40
54.330        27
54.340        13
54.350        27
54.360        40
54.370        20
54.380        27
54.390        20
54.400        27
54.410         7
54.420        13
54.430        27
54.440         7
54.450         7
54.460        13
54.470        20
54.480        47
54.490        33
54.500        13
54.510        33
54.520        40
54.530        33
54.540        20
54.550        13
54.560        20
54.570         7
54.580         7
54.590        20
54.600         7
54.610        20
54.620        20
54.630        20
54.640        33
54.650        13
54.660        13
54.670        20
54.680         7
54.690         7
54.700         7
54.710        20
54.720         7
54.730        20
54.740         0
54.750         7
54.760        13
54.770        33
54.780        27
54.790        33
54.800        13
54.810        20
54.820        20
54.830        13
54.840         7
54.850        40
54.860        33
54.870        27
54.880         7
54.890        20
54.900         7
54.910        33
54.920        13
54.930        33
54.940        13
54.950        13
54.960        33
54.970        20
54.980         7
54.990        13
55.000         0
55.010        20
55.020        20
55.030        27
55.040        20
55.050        27
55.060        27
55.070        13
55.080         7
55.090        33
55.100        13
55.110         7
55.120        20
55.130        20
55.140        13
55.150        20
55.160        33
55.170         7
55.180        20
55.190         0
55.200        13
55.210        20
55.220         0
55.230        13
55.240         7
55.250        20
55.260        27
55.270        27
55.280        20
55.290        33
55.300        20
55.310        20
55.320        27
55.330        27
55.340         7
55.350        20
55.360        27
55.370        27
55.380        20
55.390        27
55.400         7
55.410        13
55.420        13
55.430        27
55.440        67
55.450        13
55.460        27
55.470        20
55.480        20
55.490        27
55.500         0
55.510         0
55.520        13
55.530        27
55.540         7
55.550        13
55.560        40
55.570         7
55.580        13
55.590        27
55.600         7
55.610        13
55.620        27
55.630        40
55.640         7
55.650         7
55.660        20
55.670        27
55.680        20
55.690        27
55.700         7
55.710        20
55.720        13
55.730         7
55.740        20
55.750        27
55.760        27
55.770        27
55.780        33
55.790        13
55.800        27
55.810        13
55.820        27
55.830        27
55.840        13
55.850         7
55.860        27
55.870        20
55.880        27
55.890         7
55.900        13
55.910        20
55.920        27
55.930        20
55.940         0
55.950         7
55.960        27
55.970         0
55.980        13
55.990         0
56.000        13
56.010         0
56.020        27
56.030        13
56.040        20
56.050        13
56.060        27
56.070        27
56.080        20
56.090        27
56.100        27
56.110         0
56.120        27
56.130         0
56.140        27
56.150        20
56.160        20
56.170         0
56.180        13
56.190        13
56.200         0
56.210        27
56.220        13
56.230        13
56.240         7
56.250        20
56.260        13
56.270        27
56.280         7
56.290        20
56.300        33
56.310        20
56.320         0
56.330        20
56.340        27
56.350        13
56.360        27
56.370         7
56.380        13
56.390        20
56.400        20
56.410         7
56.420        27
56.430        33
56.440        33
56.450        13
56.460        27
56.470        13
56.480        33
56.490        27
56.500        13
56.510        27
56.520         0
56.530        40
56.540        27
56.550        20
56.560        47
56.570        20
56.580        13
56.590         7
56.600         7
56.610        13
56.620        27
56.630        13
56.640        13
56.650        33
56.660         7
56.670        27
56.680        20
56.690        33
56.700        13
56.710        27
56.720        27
56.730        27
56.740        13
56.750         7
56.760        27
56.770        20
56.780         7
56.790        13
56.800        20
56.810        13
56.820        20
56.830         7
56.840         0
56.850        27
56.860        27
56.870        13
56.880        20
56.890        20
56.900        33
56.910        20
56.920         0
56.930        27
56.940        33
56.950        20
56.960        27
56.970        27
56.980        20
56.990         7
57.000        33
57.010        33
57.020        40
57.030         7
57.040         7
57.050        20
57.060         0
57.070        20
57.080        13
57.090         7
57.100        33
57.110        13
57.120         7
57.130         7
57.140        13
57.150        20
57.160        33
57.170        20
57.180        20
57.190        13
57.200        20
57.210        33
57.220        27
57.230        13
57.240        20
57.250        47
57.260        33
57.270        27
57.280        33
57.290        33
57.300        67
57.310        53
57.320        40
57.330        33
57.340        47
57.350        67
57.360        33
57.370        33
57.380        53
57.390        60
57.400        87
57.410        73
57.420        33
57.430       100
57.440        87
57.450       107
57.460       153
57.470       133
57.480       233
57.490       327
57.500       313
57.510       506
57.520       560
57.530       780
57.540       706
57.550       813
57.560       973
57.570       946
57.580       966
57.590       780
57.600       746
57.610       540
57.620       313
57.630       233
57.640       247
57.650       307
57.660       180
57.670       373
57.680       373
57.690       400
57.700       473
57.710       453
57.720       493
57.730       426
57.740       440
57.750       393
57.760       320
57.770       267
57.780       160
57.790       173
57.800        80
57.810        67
57.820        53
57.830        40
57.840        73
57.850        67
57.860        53
57.870        53
57.880        47
57.890        47
57.900        27
57.910        53
57.920        20
57.930        40
57.940        27
57.950        27
57.960        47
57.970        20
57.980        40
57.990        33
58.000        80
58.010        33
58.020        53
58.030        33
58.040         7
58.050        13
58.060        20
58.070        60
58.080        33
58.090        33
58.100        27
58.110        27
58.120        33
58.130        33
58.140        13
58.150        20
58.160        33
58.170        13
58.180        13
58.190        20
58.200        27
58.210        20
58.220        13
58.230        27
58.240        53
58.250        20
58.260         0
58.270        20
58.280        40
58.290         7
58.300         7
58.310        47
58.320        40
58.330        13
58.340        13
58.350        33
58.360         7
58.370        13
58.380        27
58.390        20
58.400        20
58.410        27
58.420         7
58.430        13
58.440        20
58.450         7
58.460         0
58.470        13
58.480         7
58.490         0
58.500        27
58.510        13
58.520         7
58.530        40
58.540        20
58.550        20
58.560         7
58.570         7
58.580        20
58.590        20
58.600         0
58.610        13
58.620        27
58.630        27
58.640         7
58.650        13
58.660        27
58.670        40
58.680         7
58.690        20
58.700        40
58.710        33
58.720        20
58.730        33
58.740         7
58.750        13
58.760        13
58.770        53
58.780        13
58.790         7
58.800        27
58.810        13
58.820        33
58.830        13
58.840        33
58.850         7
58.860        13
58.870        27
58.880        13
58.890         7
58.900         7
58.910        13
58.920         7
58.930         7
58.940         7
58.950        13
58.960        27
58.970        27
58.980         7
58.990        13
59.000        27
59.010        13
59.020        13
59.030        20
59.040        27
59.050         7
59.060        13
59.070        13
59.080        13
59.090        13
59.100        20
59.110        13
59.120         7
59.130         0
59.140        13
59.150        40
59.160        27
59.170        13
59.180        20
59.190         7
59.200        27
59.210        13
59.220         0
59.230        27
59.240         0
59.250         0
59.260         0
59.270        20
59.280         7
59.290         7
59.300        27
59.310         7
59.320         7
59.330         7
59.340        27
59.350         7
59.360        33
59.370        40
59.380        40
59.390        40
59.400        33
59.410        27
59.420         0
59.430        13
59.440        27
59.450        20
59.460        33
59.470        33
59.480        27
59.490        13
59.500        13
59.510        13
59.520        20
59.530        47
59.540        33
59.550        27
59.560        13
59.570        27
59.580        47
59.590        13
59.600        27
59.610        27
59.620        13
59.630        33
59.640        13
59.650        13
59.660         7
59.670        13
59.680        27
59.690        33
59.700        20
59.710        33
59.720        20
59.730        13
59.740        13
59.750        33
59.760        13
59.770        27
59.780        20
59.790         7
59.800        47
59.810         7
59.820        27
59.830        27
59.840        33
59.850        33
59.860        27
59.870        20
59.880        33
59.890         7
59.900        53
59.910        13
59.920         7
59.930        20
59.940        20
59.950        27
59.960        20
59.970        33
59.980        20
59.990        20
60.000        40
