20.000       413
20.010       493
20.020       446
20.030       407
20.040       460
20.050       380
20.060       407
20.070       480
20.080       400
20.090       407
20.100       347
20.110       373
20.120       407
20.130       440
20.140       426
20.150       413
20.160       493
20.170       373
20.180       453
20.190       313
20.200       387
20.210       360
20.220       493
20.230       440
20.240       460
20.250       440
20.260       360
20.270       440
20.280       420
20.290       446
20.300       387
20.310       433
20.320       380
20.330       533
20.340       333
20.350       360
20.360       353
20.370       420
20.380       493
20.390       400
20.400       453
20.410       353
20.420       333
20.430       420
20.440       466
20.450       380
20.460       373
20.470       333
20.480       313
20.490       353
20.500       360
20.510       367
20.520       400
20.530       420
20.540       473
20.550       373
20.560       367
20.570       287
20.580       393
20.590       433
20.600       460
20.610       327
20.620       380
20.630       460
20.640       313
20.650       400
20.660       400
20.670       367
20.680       400
20.690       380
20.700       433
20.710       426
20.720       360
20.730       393
20.740       313
20.750       380
20.760       393
20.770       413
20.780       353
20.790       293
20.800       367
20.810       380
20.820       420
20.830       333
20.840       367
20.850       353
20.860       413
20.870       400
20.880       333
20.890       353
20.900       307
20.910       393
20.920       433
20.930       407
20.940       360
20.950       446
20.960       340
20.970       340
20.980       367
20.990       360
21.000       327
21.010       380
21.020       287
21.030       327
21.040       313
21.050       367
21.060       340
21.070       213
21.080       300
21.090       313
21.100       327
21.110       320
21.120       320
21.130       353
21.140       353
21.150       333
21.160       367
21.170       327
21.180       247
21.190       360
21.200       333
21.210       347
21.220       360
21.230       513
21.240       373
21.250       373
21.260       340
21.270       280
21.280       453
21.290       300
21.300       400
21.310       353
21.320       320
21.330       347
21.340       327
21.350       253
21.360       367
21.370       347
21.380       327
21.390       320
21.400       333
21.410       287
21.420       360
21.430       267
21.440       340
21.450       327
21.460       313
21.470       407
21.480       233
21.490       293
21.500       340
21.510       367
21.520       253
21.530       320
21.540       240
21.550       333
21.560       360
21.570       293
21.580       353
21.590       307
21.600       360
21.610       307
21.620       347
21.630       320
21.640       347
21.650       387
21.660       413
21.670       260
21.680       267
21.690       247
21.700       180
21.710       247
21.720       293
21.730       340
21.740       293
21.750       327
21.760       287
21.770       347
21.780       253
21.790       307
21.800       320
21.810       247
21.820       307
21.830       327
21.840       327
21.850       353
21.860       387
21.870       267
21.880       273
21.890       253
21.900       267
21.910       353
21.920       253
21.930       333
21.940       273
21.950       313
21.960       300
21.970       260
21.980       367
21.990       387
22.000       253
22.010       200
22.020       253
22.030       320
22.040       287
22.050       260
22.060       233
22.070       273
22.080       273
22.090       300
22.100       373
22.110       293
22.120       340
22.130       207
22.140       233
22.150       287
22.160       307
22.170       287
22.180       293
22.190       333
22.200       327
22.210       333
22.220       273
22.230       367
22.240       253
22.250       200
22.260       287
22.270       220
22.280       360
22.290       233
22.300       313
22.310       287
22.320       280
22.330       267
22.340       307
22.350       300
22.360       260
22.370       353
22.380       233
22.390       293
22.400       273
22.410       307
22.420       333
22.430       227
22.440       240
22.450       240
22.460       280
22.470       300
22.480       213
22.490       293
22.500       280
22.510       260
22.520       273
22.530       313
22.540       373
22.550       240
22.560       280
22.570       240
22.580       253
22.590       320
22.600       160
22.610       233
22.620       273
22.630       347
22.640       287
22.650       227
22.660       273
22.670       300
22.680       300
22.690       207
22.700       287
22.710       293
22.720       287
22.730       213
22.740       220
22.750       260
22.760       300
22.770       173
22.780       300
22.790       307
22.800       273
22.810       300
22.820       347
22.830       260
22.840       240
22.850       267
22.860       273
22.870       313
22.880       220
22.890       273
22.900       267
22.910       280
22.920       260
22.930       253
22.940       293
22.950       280
22.960       280
22.970       207
22.980       193
22.990       313
23.000       167
23.010       240
23.020       260
23.030       200
23.040       227
23.050       267
23.060       273
23.070       267
23.080       220
23.090       220
23.100       260
23.110       213
23.120       267
23.130       213
23.140       180
23.150       333
23.160       253
23.170       253
23.180       280
23.190       307
23.200       273
23.210       307
23.220       187
23.230       213
23.240       220
23.250       247
23.260       200
23.270       280
23.280       253
23.290       287
23.300       193
23.310       193
23.320       180
23.330       280
23.340       220
23.350       247
23.360       233
23.370       267
23.380       220
23.390       227
23.400       300
23.410       227
23.420       140
23.430       220
23.440       220
23.450       220
23.460       193
23.470       253
23.480       240
23.490       200
23.500       207
23.510       187
23.520       240
23.530       227
23.540       180
23.550       220
23.560       300
23.570       273
23.580       273
23.590       213
23.600       227
23.610       200
23.620       220
23.630       187
23.640       200
23.650       273
23.660       233
23.670       287
23.680       260
23.690       187
23.700       200
23.710       193
23.720       247
23.730       227
23.740       267
23.750       173
23.760       260
23.770       187
23.780       247
23.790       167
23.800       207
23.810       193
23.820       227
23.830       173
23.840       200
23.850       267
23.860       247
23.870       240
23.880       267
23.890       207
23.900       213
23.910       260
23.920       200
23.930       247
23.940       193
23.950       187
23.960       180
23.970       127
23.980       180
23.990       213
24.000       140
24.010       167
24.020       200
24.030       193
24.040       247
24.050       200
24.060       220
24.070       113
24.080       167
24.090       247
24.100       247
24.110       207
24.120       220
24.130       160
24.140       160
24.150       140
24.160       153
24.170       227
24.180       260
24.190       167
24.200       227
24.210       100
24.220       220
24.230       207
24.240       180
24.250       180
24.260       147
24.270       207
24.280       193
24.290       147
24.300       147
24.310       260
24.320       180
24.330       193
24.340       113
24.350       147
24.360       200
24.370       147
24.380       173
24.390       167
24.400       173
24.410       160
24.420       193
24.430       140
24.440       133
24.450       173
24.460       200
24.470       187
24.480       147
24.490       167
24.500       187
24.510       180
24.520       160
24.530       127
24.540       240
24.550       187
24.560       267
24.570       153
24.580       193
24.590       133
24.600       160
24.610       140
24.620       153
24.630       180
24.640       160
24.650       167
24.660       107
24.670       147
24.680       247
24.690       153
24.700       187
24.710       207
24.720       240
24.730       220
24.740       213
24.750       233
24.760       160
24.770       233
24.780       153
24.790       167
24.800       153
24.810       200
24.820       180
24.830       140
24.840       167
24.850       167
24.860       167
24.870       187
24.880       207
24.890       227
24.900       173
24.910       193
24.920       160
24.930       207
24.940       120
24.950       120
24.960        87
24.970       153
24.980       100
24.990       227
25.000       120
25.010       147
25.020       207
25.030       133
25.040       153
25.050       213
25.060       160
25.070       167
25.080       127
25.090       233
25.100       127
25.110       147
25.120       147
25.130       147
25.140       160
25.150       193
25.160       160
25.170       180
25.180       147
25.190       193
25.200       200
25.210       140
25.220       100
25.230       113
25.240       140
25.250       187
25.260       200
25.270       200
25.280       127
25.290       180
25.300       153
25.310       127
25.320       120
25.330       120
25.340       107
25.350       160
25.360       147
25.370       133
25.380       147
25.390       207
25.400       147
25.410       113
25.420       147
25.430       133
25.440       133
25.450       180
25.460       153
25.470       173
25.480       133
25.490       120
25.500       147
25.510       147
25.520       133
25.530       133
25.540       100
25.550       113
25.560       127
25.570       147
25.580       140
25.590       160
25.600       107
25.610       127
25.620       147
25.630       107
25.640       120
25.650       247
25.660       107
25.670       120
25.680        47
25.690       100
25.700        93
25.710       120
25.720        93
25.730       113
25.740       133
25.750       160
25.760       113
25.770        67
25.780        87
25.790       147
25.800       160
25.810       107
25.820       120
25.830       127
25.840       100
25.850       127
25.860        67
25.870       127
25.880       113
25.890       100
25.900        87
25.910       153
25.920       133
25.930       100
25.940       107
25.950       167
25.960        60
25.970       120
25.980       100
25.990        73
26.000        93
26.010       153
26.020        80
26.030       167
26.040       107
26.050       100
26.060        93
26.070        80
26.080        47
26.090       133
26.100       120
26.110       107
26.120       107
26.130       120
26.140       113
26.150       113
26.160       127
26.170       100
26.180       113
26.190       120
26.200       120
26.210       160
26.220        80
26.230        93
26.240        93
26.250        73
26.260       147
26.270       107
26.280        73
26.290       140
26.300        67
26.310       133
26.320       100
26.330       100
26.340        73
26.350       140
26.360       100
26.370        60
26.380       107
26.390        80
26.400        93
26.410       100
26.420       133
26.430       113
26.440       100
26.450       113
26.460        93
26.470       113
26.480        87
26.490        73
26.500       120
26.510       140
26.520        87
26.530        93
26.540        87
26.550        67
26.560        60
26.570        93
26.580        80
26.590        93
26.600       107
26.610        53
26.620        80
26.630       107
26.640        73
26.650        60
26.660        93
26.670       127
26.680        93
26.690        67
26.700        53
26.710        67
26.720        67
26.730        53
26.740        73
26.750        60
26.760       120
26.770        60
26.780        73
26.790        73
26.800       113
26.810        80
26.820       120
26.830        47
26.840        80
26.850       160
26.860       107
26.870        87
26.880        67
26.890        67
26.900        60
26.910        80
26.920        93
26.930        87
26.940        80
26.950        87
26.960       100
26.970       127
26.980        67
26.990        80
27.000        53
27.010        40
27.020        73
27.030        73
27.040        87
27.050       100
27.060        93
27.070       120
27.080        53
27.090        60
27.100        93
27.110        67
27.120        60
27.130       107
27.140        80
27.150        67
27.160        53
27.170        80
27.180        93
27.190        93
27.200        67
27.210       107
27.220        80
27.230        80
27.240       100
27.250        67
27.260        80
27.270        93
27.280       113
27.290        53
27.300        47
27.310        73
27.320        93
27.330        93
27.340       133
27.350        53
27.360        87
27.370        73
27.380        80
27.390        53
27.400        87
27.410        60
27.420        67
27.430       100
27.440        87
27.450        27
27.460        67
27.470        47
27.480       100
27.490        93
27.500        47
27.510        87
27.520        73
27.530        87
27.540        67
27.550        87
27.560        40
27.570        80
27.580        60
27.590        60
27.600        60
27.610        40
27.620       120
27.630        53
27.640        53
27.650        47
27.660        80
27.670        47
27.680       113
27.690        73
27.700        93
27.710        87
27.720        73
27.730        27
27.740        80
27.750       113
27.760        80
27.770        73
27.780        53
27.790        20
27.800        73
27.810        73
27.820        47
27.830        93
27.840        73
27.850        47
27.860        53
27.870        47
27.880       100
27.890        80
27.900        47
27.910        80
27.920        87
27.930        87
27.940        87
27.950        60
27.960        47
27.970        53
27.980        47
27.990        53
28.000        73
28.010        47
28.020        60
28.030        60
28.040        53
28.050       120
28.060        67
28.070        60
28.080        93
28.090       107
28.100        93
28.110        67
28.120        80
28.130        73
28.140        40
28.150        87
28.160        33
28.170        67
28.180        40
28.190        60
28.200        60
28.210        47
28.220        60
28.230        53
28.240        40
28.250        47
28.260       120
28.270        53
28.280       107
28.290        80
28.300        93
28.310        73
28.320        53
28.330        73
28.340        33
28.350        20
28.360        60
28.370        87
28.380        60
28.390        53
28.400        33
28.410        53
28.420        67
28.430        33
28.440        53
28.450        47
28.460        80
28.470        40
28.480        33
28.490        60
28.500        73
28.510        33
28.520        67
28.530        67
28.540        80
28.550        53
28.560        40
28.570       100
28.580        67
28.590        47
28.600        33
28.610        33
28.620        67
28.630        33
28.640        60
28.650        60
28.660       107
28.670        33
28.680        73
28.690        47
28.700        93
28.710        73
28.720        93
28.730        53
28.740        67
28.750        67
28.760       113
28.770        40
28.780        60
28.790        73
28.800        40
28.810        67
28.820        87
28.830        73
28.840        60
28.850        60
28.860        53
28.870        47
28.880        33
28.890        27
28.900        87
28.910        93
28.920        67
28.930        20
28.940        53
28.950        80
28.960        93
28.970        47
28.980        40
28.990        40
29.000        53
29.010        53
29.020        73
29.030        60
29.040        47
29.050        67
29.060        40
29.070        47
29.080        60
29.090        60
29.100        80
29.110        67
29.120        60
29.130        33
29.140        47
29.150        80
29.160        47
29.170        53
29.180        93
29.190        67
29.200        60
29.210        13
29.220        33
29.230        53
29.240        73
29.250        93
29.260        40
29.270        87
29.280        47
29.290        40
29.300        73
29.310       107
29.320        27
29.330        93
29.340        60
29.350        40
29.360        40
29.370        47
29.380        73
29.390        93
29.400        47
29.410        53
29.420        53
29.430        73
29.440        80
29.450        73
29.460        80
29.470        40
29.480        53
29.490        27
29.500        60
29.510        33
29.520        40
29.530        73
29.540        40
29.550        33
29.560        73
29.570        80
29.580        93
29.590        47
29.600        33
29.610        60
29.620        27
29.630        47
29.640        53
29.650        53
29.660        47
29.670        47
29.680        67
29.690       107
29.700        53
29.710        40
29.720        27
29.730        60
29.740        67
29.750        33
29.760        47
29.770        33
29.780        67
29.790        40
29.800        27
29.810        53
29.820        47
29.830        60
29.840        27
29.850        33
29.860        27
29.870        47
29.880       107
29.890        40
29.900        33
29.910        60
29.920        53
29.930        33
29.940        80
29.950       100
29.960        73
29.970        73
29.980        33
29.990        67
30.000        33
30.010        47
30.020        73
30.030        53
30.040        53
30.050        33
30.060        73
30.070        33
30.080        80
30.090        53
30.100        67
30.110        20
30.120        27
30.130        60
30.140        40
30.150        53
30.160        33
30.170        40
30.180        67
30.190        40
30.200        67
30.210        27
30.220        47
30.230        33
30.240        60
30.250        40
30.260        73
30.270        47
30.280        53
30.290        47
30.300        67
30.310        67
30.320        27
30.330        87
30.340        67
30.350        73
30.360        93
30.370        60
30.380        33
30.390        33
30.400        40
30.410        47
30.420        53
30.430        40
30.440        60
30.450        73
30.460        53
30.470        33
30.480        53
30.490        60
30.500        53
30.510        60
30.520        47
30.530        47
30.540        60
30.550        60
30.560        40
30.570        40
30.580        67
30.590        47
30.600        80
30.610        60
30.620        67
30.630        27
30.640        27
30.650        60
30.660        80
30.670        73
30.680        47
30.690        53
30.700        40
30.710        40
30.720       107
30.730        67
30.740        87
30.750        67
30.760        67
30.770        80
30.780        67
30.790        47
30.800        53
30.810        27
30.820        67
30.830        60
30.840        80
30.850        33
30.860        67
30.870        87
30.880        80
30.890        53
30.900        60
30.910        53
30.920        47
30.930        67
30.940        73
30.950        73
30.960        60
30.970        73
30.980        60
30.990        53
31.000        60
31.010        80
31.020        53
31.030       113
31.040        73
31.050        40
31.060        60
31.070        60
31.080        80
31.090        60
31.100        60
31.110        47
31.120        73
31.130        67
31.140        87
31.150        67
31.160        53
31.170        73
31.180       113
31.190        67
31.200       107
31.210        73
31.220        93
31.230        33
31.240        93
31.250        87
31.260        93
31.270        73
31.280        67
31.290        53
31.300        47
31.310        40
31.320        53
31.330        40
31.340        80
31.350        67
31.360        13
31.370        60
31.380        53
31.390        87
31.400        73
31.410        60
31.420        47
31.430        67
31.440        20
31.450        33
31.460        67
31.470        80
31.480        27
31.490        87
31.500        67
31.510        80
31.520        53
31.530        60
31.540        53
31.550       107
31.560        53
31.570       100
31.580        53
31.590        67
31.600        53
31.610        60
31.620        87
31.630        67
31.640       107
31.650        93
31.660        73
31.670        53
31.680       127
31.690        67
31.700        73
31.710        40
31.720        87
31.730        73
31.740        60
31.750        93
31.760       107
31.770        73
31.780        80
31.790        67
31.800       113
31.810       147
31.820        93
31.830       113
31.840       107
31.850       140
31.860       127
31.870        87
31.880       100
31.890       127
31.900       180
31.910       160
31.920       153
31.930       107
31.940       147
31.950       167
31.960       173
31.970       127
31.980       153
31.990       153
32.000       207
32.010       220
32.020       253
32.030       173
32.040       247
32.050       380
32.060       586
32.070       793
32.080      1093
32.090      1379
32.100      1559
32.110      1686
32.120      1913
32.130      1813
32.140      1506
32.150      1053
32.160       780
32.170       480
32.180       340
32.190       193
32.200       213
32.210       193
32.220       180
32.230       167
32.240       160
32.250       160
32.260       127
32.270       133
32.280       153
32.290       167
32.300       160
32.310       120
32.320       133
32.330       147
32.340        87
32.350       127
32.360       147
32.370       120
32.380       100
32.390        60
32.400       127
32.410        53
32.420        87
32.430        87
32.440        80
32.450        67
32.460       133
32.470       107
32.480       120
32.490       133
32.500        73
32.510        53
32.520        80
32.530        80
32.540       113
32.550       127
32.560        67
32.570       100
32.580        87
32.590        87
32.600        87
32.610       120
32.620        87
32.630        93
32.640        93
32.650        60
32.660        80
32.670       133
32.680       127
32.690        93
32.700       100
32.710       100
32.720       120
32.730       100
32.740       120
32.750       133
32.760        60
32.770        73
32.780       100
32.790       107
32.800       100
32.810       107
32.820        73
32.830        87
32.840       100
32.850       133
32.860       120
32.870       107
32.880        87
32.890       107
32.900        87
32.910       107
32.920        73
32.930        67
32.940        93
32.950        93
32.960        67
32.970        87
32.980        93
32.990       133
33.000       100
33.010        87
33.020        80
33.030        73
33.040        53
33.050        87
33.060       100
33.070        80
33.080        73
33.090        73
33.100        87
33.110        87
33.120        60
33.130       120
33.140        40
33.150        47
33.160        80
33.170       120
33.180        47
33.190        93
33.200        80
33.210        93
33.220        93
33.230       100
33.240       113
33.250        47
33.260        60
33.270        67
33.280        80
33.290        60
33.300       100
33.310        93
33.320        47
33.330        73
33.340        53
33.350        60
33.360        93
33.370        60
33.380        67
33.390        80
33.400        73
33.410        93
33.420        67
33.430        80
33.440        53
33.450        67
33.460        80
33.470        87
33.480        73
33.490        67
33.500        67
33.510        87
33.520       140
33.530        40
33.540       100
33.550        93
33.560        93
33.570       107
33.580        73
33.590       113
33.600        87
33.610       113
33.620       127
33.630        87
33.640        60
33.650       140
33.660        80
33.670        60
33.680       133
33.690       107
33.700        93
33.710        60
33.720        87
33.730        93
33.740       107
33.750        93
33.760        93
33.770        60
33.780        87
33.790        73
33.800        67
33.810       127
33.820        67
33.830        73
33.840        87
33.850        60
33.860        93
33.870        80
33.880       113
33.890        80
33.900        73
33.910        60
33.920        73
33.930        93
33.940        80
33.950        67
33.960       107
33.970        53
33.980        87
33.990       100
34.000       100
34.010        80
34.020       107
34.030       113
34.040       127
34.050        67
34.060       120
34.070       107
34.080        67
34.090        67
34.100        53
34.110        93
34.120        93
34.130       100
34.140        80
34.150        93
34.160       100
34.170        93
34.180        60
34.190       133
34.200        93
34.210       100
34.220        67
34.230       127
34.240       120
34.250       127
34.260       100
34.270       147
34.280       120
34.290       147
34.300       113
34.310       127
34.320       133
34.330       127
34.340       127
34.350       153
34.360       260
34.370       313
34.380       293
34.390       393
34.400       413
34.410       486
34.420       460
34.430       533
34.440       546
34.450       613
34.460       560
34.470       606
34.480       586
34.490       513
34.500       553
34.510       593
34.520       593
34.530       606
34.540       640
34.550       626
34.560       660
34.570       566
34.580       693
34.590       640
34.600       633
34.610       533
34.620       593
34.630       700
34.640       553
34.650       573
34.660       606
34.670       526
34.680       706
34.690       733
34.700       606
34.710       733
34.720       580
34.730       633
34.740       586
34.750       666
34.760       700
34.770       633
34.780       560
34.790       660
34.800       606
34.810       540
34.820       526
34.830       573
34.840       546
34.850       673
34.860       646
34.870       680
34.880       580
34.890       580
34.900       653
34.910       593
34.920       686
34.930       586
34.940       560
34.950       720
34.960       513
34.970       620
34.980       566
34.990       620
35.000       586
35.010       566
35.020       686
35.030       713
35.040       813
35.050       580
35.060       600
35.070       620
35.080       680
35.090       700
35.100       660
35.110       700
35.120       640
35.130       760
35.140       713
35.150       773
35.160       873
35.170       700
35.180       753
35.190       780
35.200       800
35.210       866
35.220       913
35.230       946
35.240       946
35.250       840
35.260       913
35.270       980
35.280      1060
35.290      1120
35.300      1306
35.310      1499
35.320      1533
35.330      1886
35.340      1986
35.350      2346
35.360      2719
35.370      3419
35.380      3459
35.390      4112
35.400      4958
35.410      5271
35.420      6304
35.430      7264
35.440      7670
35.450      8457
35.460      9989
35.470     10669
35.480     10936
35.490     11489
35.500     11975
35.510     12308
35.520     12528
35.530     13161
35.540     13668
35.550     15234
35.560     16767
35.570     22045
35.580     32973
35.590     56611
35.600     91410
35.610    124997
35.620    152552
35.630    165994
35.640    173231
35.650    174910
35.660    164894
35.670    143922
35.680    117240
35.690     93676
35.700     89131
35.710     95009
35.720     99480
35.730    101619
35.740    102332
35.750     96661
35.760     81867
35.770     59576
35.780     36419
35.790     20392
35.800     11495
35.810      8283
35.820      5924
35.830      4965
35.840      4032
35.850      3459
35.860      2892
35.870      2699
35.880      2232
35.890      2179
35.900      2119
35.910      1806
35.920      1633
35.930      1559
35.940      1666
35.950      1493
35.960      1386
35.970      1153
35.980      1246
35.990      1353
36.000      1140
36.010      1086
36.020       966
36.030      1080
36.040       973
36.050       973
36.060       900
36.070      1080
36.080       980
36.090       966
36.100       820
36.110       813
36.120       906
36.130       746
36.140       653
36.150       973
36.160       773
36.170       766
36.180       820
36.190       806
36.200       746
36.210       720
36.220       766
36.230       620
36.240       673
36.250       786
36.260       740
36.270       720
36.280       793
36.290       760
36.300       680
36.310       680
36.320       520
36.330       693
36.340       613
36.350       593
36.360       653
36.370       680
36.380       606
36.390       520
36.400       660
36.410       520
36.420       553
36.430       520
36.440       540
36.450       426
36.460       540
36.470       460
36.480       506
36.490       593
36.500       633
36.510       480
36.520       520
36.530       533
36.540       580
36.550       460
36.560       546
36.570       540
36.580       560
36.590       493
36.600       573
36.610       453
36.620       486
36.630       493
36.640       413
36.650       526
36.660       493
36.670       506
36.680       606
36.690       566
36.700       473
36.710       387
36.720       387
36.730       520
36.740       486
36.750       407
36.760       513
36.770       453
36.780       387
36.790       533
36.800       307
36.810       360
36.820       453
36.830       433
36.840       400
36.850       500
36.860       367
36.870       393
36.880       506
36.890       440
36.900       407
36.910       433
36.920       367
36.930       480
36.940       413
36.950       340
36.960       500
36.970       433
36.980       393
36.990       433
37.000       466
37.010       480
37.020       313
37.030       393
37.040       400
37.050       453
37.060       340
37.070       400
37.080       413
37.090       453
37.100       480
37.110       453
37.120       347
37.130       453
37.140       320
37.150       287
37.160       340
37.170       340
37.180       407
37.190       500
37.200       380
37.210       446
37.220       626
37.230       307
37.240       446
37.250       373
37.260       367
37.270       433
37.280       347
37.290       440
37.300       367
37.310       293
37.320       380
37.330       453
37.340       393
37.350       466
37.360       393
37.370       393
37.380       433
37.390       327
37.400       320
37.410       340
37.420       353
37.430       313
37.440       393
37.450       307
37.460       367
37.470       347
37.480       320
37.490       333
37.500       287
37.510       387
37.520       280
37.530       420
37.540       353
37.550       280
37.560       400
37.570       387
37.580       300
37.590       340
37.600       353
37.610       393
37.620       307
37.630       320
37.640       347
37.650       333
37.660       407
37.670       333
37.680       313
37.690       213
37.700       380
37.710       446
37.720       387
37.730       287
37.740       413
37.750       300
37.760       353
37.770       367
37.780       313
37.790       373
37.800       400
37.810       373
37.820       440
37.830       313
37.840       273
37.850       320
37.860       360
37.870       227
37.880       333
37.890       387
37.900       380
37.910       273
37.920       347
37.930       313
37.940       260
37.950       300
37.960       353
37.970       347
37.980       293
37.990       347
38.000       340
38.010       307
38.020       307
38.030       320
38.040       267
38.050       380
38.060       387
38.070       367
38.080       253
38.090       340
38.100       313
38.110       300
38.120       273
38.130       327
38.140       313
38.150       340
38.160       247
38.170       373
38.180       327
38.190       367
38.200       327
38.210       327
38.220       267
38.230       340
38.240       267
38.250       280
38.260       313
38.270       373
38.280       367
38.290       313
38.300       233
38.310       313
38.320       307
38.330       267
38.340       233
38.350       267
38.360       253
38.370       353
38.380       273
38.390       293
38.400       247
38.410       360
38.420       340
38.430       300
38.440       287
38.450       407
38.460       300
38.470       267
38.480       293
38.490       273
38.500       353
38.510       353
38.520       220
38.530       253
38.540       380
38.550       287
38.560       253
38.570       253
38.580       293
38.590       293
38.600       313
38.610       267
38.620       313
38.630       260
38.640       273
38.650       267
38.660       233
38.670       300
38.680       387
38.690       287
38.700       360
38.710       320
38.720       293
38.730       320
38.740       340
38.750       253
38.760       240
38.770       293
38.780       353
38.790       280
38.800       260
38.810       347
38.820       247
38.830       340
38.840       287
38.850       300
38.860       180
38.870       253
38.880       327
38.890       267
38.900       220
38.910       233
38.920       240
38.930       287
38.940       280
38.950       193
38.960       253
38.970       287
38.980       240
38.990       247
39.000       233
39.010       253
39.020       267
39.030       347
39.040       247
39.050       227
39.060       227
39.070       240
39.080       220
39.090       300
39.100       300
39.110       193
39.120       207
39.130       293
39.140       227
39.150       260
39.160       227
39.170       253
39.180       247
39.190       240
39.200       280
39.210       300
39.220       227
39.230       227
39.240       253
39.250       247
39.260       247
39.270       260
39.280       233
39.290       227
39.300       200
39.310       220
39.320       207
39.330       260
39.340       287
39.350       320
39.360       240
39.370       220
39.380       240
39.390       207
39.400       333
39.410       180
39.420       240
39.430       213
39.440       193
39.450       280
39.460       147
39.470       213
39.480       240
39.490       247
39.500       333
39.510       180
39.520       240
39.530       240
39.540       260
39.550       293
39.560       280
39.570       233
39.580       213
39.590       287
39.600       247
39.610       313
39.620       273
39.630       253
39.640       240
39.650       260
39.660       213
39.670       313
39.680       167
39.690       287
39.700       280
39.710       227
39.720       187
39.730       227
39.740       267
39.750       240
39.760       240
39.770       240
39.780       293
39.790       193
39.800       233
39.810       207
39.820       233
39.830       240
39.840       240
39.850       187
39.860       227
39.870       273
39.880       293
39.890       180
39.900       207
39.910       227
39.920       273
39.930       200
39.940       247
39.950       227
39.960       233
39.970       180
39.980       193
39.990       247
40.000       300
40.010       207
40.020       220
40.030       207
40.040       260
40.050       287
40.060       193
40.070       240
40.080       273
40.090       213
40.100       187
40.110       220
40.120       220
40.130       253
40.140       247
40.150       273
40.160       220
40.170       167
40.180       233
40.190       260
40.200       267
40.210       240
40.220       213
40.230       207
40.240       180
40.250       333
40.260       200
40.270       173
40.280       267
40.290       260
40.300       153
40.310       213
40.320       173
40.330       140
40.340       213
40.350       247
40.360       193
40.370       147
40.380       253
40.390       193
40.400       200
40.410       273
40.420       253
40.430       220
40.440       260
40.450       227
40.460       193
40.470       240
40.480       220
40.490       233
40.500       173
40.510       160
40.520       207
40.530       187
40.540       220
40.550       240
40.560       173
40.570       173
40.580       227
40.590       227
40.600       193
40.610       260
40.620       187
40.630       140
40.640       260
40.650       180
40.660       240
40.670       213
40.680       220
40.690       193
40.700       180
40.710       167
40.720       187
40.730       233
40.740       187
40.750       220
40.760       220
40.770       207
40.780       187
40.790       220
40.800       267
40.810       220
40.820       227
40.830       213
40.840       253
40.850       207
40.860       200
40.870       233
40.880       260
40.890       220
40.900       220
40.910       160
40.920       200
40.930       280
40.940       293
40.950       207
40.960       247
40.970       240
40.980       180
40.990       227
41.000       273
41.010       207
41.020       253
41.030       200
41.040       227
41.050       247
41.060       207
41.070       167
41.080       167
41.090       273
41.100       127
41.110       220
41.120       140
41.130       193
41.140       213
41.150       207
41.160       180
41.170       187
41.180       253
41.190       213
41.200       227
41.210       187
41.220       173
41.230       247
41.240       233
41.250       167
41.260       273
41.270       167
41.280       240
41.290       173
41.300       140
41.310       207
41.320       193
41.330       173
41.340       180
41.350       167
41.360       233
41.370       200
41.380       213
41.390       167
41.400       140
41.410       220
41.420       167
41.430       173
41.440       253
41.450       173
41.460       307
41.470       180
41.480       160
41.490       240
41.500       253
41.510       140
41.520       180
41.530       213
41.540       180
41.550       173
41.560       207
41.570       153
41.580       247
41.590       200
41.600       140
41.610       180
41.620       120
41.630       233
41.640       200
41.650       167
41.660       173
41.670       193
41.680       140
41.690       167
41.700       153
41.710       313
41.720       193
41.730       167
41.740       180
41.750       247
41.760       187
41.770       240
41.780       200
41.790       207
41.800       193
41.810       147
41.820       173
41.830       147
41.840       147
41.850       200
41.860       227
41.870       267
41.880       173
41.890       193
41.900       220
41.910       233
41.920       173
41.930       173
41.940       167
41.950       153
41.960       160
41.970       267
41.980       180
41.990       153
42.000       147
42.010       180
42.020       247
42.030       227
42.040       260
42.050       147
42.060       167
42.070       147
42.080       173
42.090       167
42.100       160
42.110       187
42.120       227
42.130       187
42.140       147
42.150       180
42.160       153
42.170       153
42.180       193
42.190       207
42.200       220
42.210       153
42.220       113
42.230       233
42.240       147
42.250       187
42.260       193
42.270       153
42.280       113
42.290       140
42.300       180
42.310       227
42.320       233
42.330       213
42.340       147
42.350       260
42.360       167
42.370       147
42.380       173
42.390       167
42.400       133
42.410       200
42.420       167
42.430       207
42.440       167
42.450       120
42.460       180
42.470       207
42.480       167
42.490       200
42.500       173
42.510       133
42.520       133
42.530       140
42.540       180
42.550       153
42.560       173
42.570       333
42.580       160
42.590       213
42.600       133
42.610       180
42.620       167
42.630        93
42.640       120
42.650       153
42.660       180
42.670       147
42.680       153
42.690       127
42.700       207
42.710       167
42.720       173
42.730       200
42.740       180
42.750       180
42.760       160
42.770       180
42.780       193
42.790       167
42.800       160
42.810       187
42.820       167
42.830       140
42.840       147
42.850       140
42.860       127
42.870       113
42.880       127
42.890       180
42.900       193
42.910       160
42.920       160
42.930       153
42.940       160
42.950       213
42.960       160
42.970       113
42.980       160
42.990       153
43.000       173
43.010       233
43.020       120
43.030       193
43.040       153
43.050       187
43.060       147
43.070       173
43.080       207
43.090       173
43.100       153
43.110       160
43.120       147
43.130       160
43.140       180
43.150       167
43.160       127
43.170       140
43.180       180
43.190       193
43.200        67
43.210       173
43.220       140
43.230       133
43.240       133
43.250       133
43.260       133
43.270       120
43.280       107
43.290       153
43.300       120
43.310       153
43.320       147
43.330       127
43.340       167
43.350       193
43.360       173
43.370       233
43.380       160
43.390       173
43.400       140
43.410       107
43.420       107
43.430       120
43.440       153
43.450       187
43.460       147
43.470       167
43.480       160
43.490       140
43.500       147
43.510       100
43.520       100
43.530       113
43.540       133
43.550       193
43.560       140
43.570       127
43.580       180
43.590       133
43.600       173
43.610       113
43.620       147
43.630       140
43.640       107
43.650       113
43.660       113
43.670       140
43.680       180
43.690       173
43.700       147
43.710       153
43.720       100
43.730       120
43.740       160
43.750       140
43.760       153
43.770       160
43.780       147
43.790        60
43.800       200
43.810       140
43.820       133
43.830       107
43.840       167
43.850       160
43.860       167
43.870       113
43.880       153
43.890       207
43.900       153
43.910       160
43.920       113
43.930       107
43.940       127
43.950       187
43.960       113
43.970       200
43.980       200
43.990       127
44.000       167
44.010       153
44.020       167
44.030       147
44.040       160
44.050       120
44.060       140
44.070       160
44.080        67
44.090       100
44.100       113
44.110       147
44.120       173
44.130       113
44.140       113
44.150       133
44.160       113
44.170       160
44.180       127
44.190       147
44.200       120
44.210       113
44.220       107
44.230       113
44.240       160
44.250       147
44.260       160
44.270       120
44.280       107
44.290       120
44.300       140
44.310       140
44.320        87
44.330       127
44.340       140
44.350       167
44.360       133
44.370       107
44.380       153
44.390       167
44.400       127
44.410       153
44.420        73
44.430        87
44.440       140
44.450       160
44.460       160
44.470        93
44.480       127
44.490       127
44.500       107
44.510       113
44.520        80
44.530       120
44.540        93
44.550       120
44.560       140
44.570       160
44.580       100
44.590       120
44.600       133
44.610       160
44.620       147
44.630       127
44.640        73
44.650       133
44.660       100
44.670       133
44.680       153
44.690       147
44.700       133
44.710       133
44.720       187
44.730       107
44.740       120
44.750       113
44.760       127
44.770       140
44.780       113
44.790       193
44.800       180
44.810       127
44.820       107
44.830       113
44.840       100
44.850        73
44.860       100
44.870       107
44.880       113
44.890       133
44.900       113
44.910        80
44.920       120
44.930       127
44.940       153
44.950       160
44.960       107
44.970       147
44.980       140
44.990       160
45.000       180
45.010       113
45.020       140
45.030       133
45.040       140
45.050       133
45.060       140
45.070       133
45.080        80
45.090       127
45.100       100
45.110       107
45.120       133
45.130       140
45.140       133
45.150       147
45.160       147
45.170       133
45.180       133
45.190       147
45.200        93
45.210       100
45.220       173
45.230        93
45.240       100
45.250        93
45.260       113
45.270       120
45.280       173
45.290       100
45.300       147
45.310       113
45.320       113
45.330        87
45.340       100
45.350       140
45.360       127
45.370       133
45.380       167
45.390        67
45.400       107
45.410       173
45.420       120
45.430       107
45.440       127
45.450       127
45.460        87
45.470       107
45.480        80
45.490       140
45.500       160
45.510        60
45.520       127
45.530       160
45.540        67
45.550       133
45.560       120
45.570       100
45.580       107
45.590       147
45.600       107
45.610       127
45.620        80
45.630       113
45.640        67
45.650        67
45.660       100
45.670       133
45.680        80
45.690       133
45.700        67
45.710       113
45.720       120
45.730       120
45.740       160
45.750        80
45.760       133
45.770        73
45.780        87
45.790        80
45.800        67
45.810       167
45.820        87
45.830        67
45.840        67
45.850       100
45.860        87
45.870       167
45.880        60
45.890       120
45.900       113
45.910       100
45.920       120
45.930        93
45.940       100
45.950       120
45.960       120
45.970        73
45.980       133
45.990       127
46.000       100
46.010       133
46.020       107
46.030       120
46.040       140
46.050       113
46.060       113
46.070       107
46.080        93
46.090        87
46.100       100
46.110        87
46.120       120
46.130       173
46.140       120
46.150       120
46.160        93
46.170       100
46.180       107
46.190        60
46.200       100
46.210       153
46.220       147
46.230        93
46.240       113
46.250        80
46.260       127
46.270       120
46.280       120
46.290       113
46.300       113
46.310        80
46.320        73
46.330        93
46.340       127
46.350       113
46.360        73
46.370       127
46.380        73
46.390        93
46.400       100
46.410       147
46.420       113
46.430       107
46.440       133
46.450        80
46.460       113
46.470       133
46.480        87
46.490        93
46.500       100
46.510       100
46.520       167
46.530        93
46.540        93
46.550       147
46.560       120
46.570        93
46.580       113
46.590        60
46.600        87
46.610       113
46.620        93
46.630       100
46.640        87
46.650       113
46.660       107
46.670       133
46.680       100
46.690        80
46.700        87
46.710        67
46.720       107
46.730        53
46.740        60
46.750       140
46.760       147
46.770       153
46.780       113
46.790        87
46.800       107
46.810       133
46.820       120
46.830       120
46.840       140
46.850        73
46.860        93
46.870       107
46.880       113
46.890        87
46.900       167
46.910        80
46.920        60
46.930       107
46.940        93
46.950        93
46.960       113
46.970        67
46.980        80
46.990        73
47.000       113
47.010        73
47.020       113
47.030       127
47.040        53
47.050       127
47.060       133
47.070       100
47.080       100
47.090       140
47.100       100
47.110       107
47.120        80
47.130        60
47.140       100
47.150        80
47.160        73
47.170        93
47.180        93
47.190       120
47.200        93
47.210       113
47.220       107
47.230        93
47.240        47
47.250       120
47.260        87
47.270        87
47.280        80
47.290        93
47.300       107
47.310       127
47.320        93
47.330       107
47.340       153
47.350        80
47.360       107
47.370       107
47.380       113
47.390        53
47.400        93
47.410        67
47.420        80
47.430       107
47.440        60
47.450        87
47.460       113
47.470       100
47.480        87
47.490       133
47.500        53
47.510       120
47.520        73
47.530        80
47.540        80
47.550        73
47.560        67
47.570        60
47.580        60
47.590       153
47.600       113
47.610        80
47.620        60
47.630        93
47.640       113
47.650        93
47.660        33
47.670        73
47.680        67
47.690        73
47.700       140
47.710       113
47.720       113
47.730       100
47.740        93
47.750       120
47.760        87
47.770        93
47.780        80
47.790        80
47.800        93
47.810       120
47.820        40
47.830        60
47.840        93
47.850        60
47.860        60
47.870        47
47.880        60
47.890        73
47.900        53
47.910        87
47.920        93
47.930        53
47.940        80
47.950        87
47.960        40
47.970        73
47.980       107
47.990       113
48.000       120
48.010        53
48.020        53
48.030        67
48.040        73
48.050        80
48.060        73
48.070       127
48.080        93
48.090        67
48.100        87
48.110        87
48.120        93
48.130       100
48.140       100
48.150       147
48.160       120
48.170       127
48.180       107
48.190       100
48.200       133
48.210       107
48.220        73
48.230        47
48.240        73
48.250        67
48.260        47
48.270        67
48.280       120
48.290       100
48.300       120
48.310       160
48.320        60
48.330        67
48.340        60
48.350       100
48.360       133
48.370       140
48.380       133
48.390       107
48.400       113
48.410       107
48.420        87
48.430       100
48.440       107
48.450        87
48.460        87
48.470        73
48.480       100
48.490       120
48.500        67
48.510        53
48.520       107
48.530        80
48.540        80
48.550       173
48.560       107
48.570       120
48.580        80
48.590        67
48.600        67
48.610        67
48.620       127
48.630        67
48.640        93
48.650        67
48.660       133
48.670       107
48.680        60
48.690        53
48.700        80
48.710        60
48.720        73
48.730        53
48.740        47
48.750        80
48.760        87
48.770        53
48.780        73
48.790       127
48.800        47
48.810       100
48.820        67
48.830        67
48.840       100
48.850        80
48.860        53
48.870        80
48.880        80
48.890        80
48.900       100
48.910        73
48.920        67
48.930        67
48.940        73
48.950       140
48.960        40
48.970       100
48.980        60
48.990        60
49.000        60
49.010        53
49.020        53
49.030        53
49.040        53
49.050        87
49.060        73
49.070       100
49.080       100
49.090       100
49.100        80
49.110       107
49.120       100
49.130        80
49.140        73
49.150        53
49.160        60
49.170        80
49.180        93
49.190        67
49.200        67
49.210        47
49.220        60
49.230       100
49.240        93
49.250        87
49.260        87
49.270        93
49.280        53
49.290       127
49.300        60
49.310        60
49.320        47
49.330        80
49.340        20
49.350        60
49.360        87
49.370        87
49.380        60
49.390        67
49.400        93
49.410        80
49.420        87
49.430        40
49.440        60
49.450        40
49.460        67
49.470        60
49.480        53
49.490        60
49.500        80
49.510        93
49.520        93
49.530       120
49.540       107
49.550        73
49.560        87
49.570       120
49.580        60
49.590        53
49.600       100
49.610        73
49.620        87
49.630        87
49.640        67
49.650        60
49.660        67
49.670        73
49.680        93
49.690        73
49.700        73
49.710        73
49.720        80
49.730        87
49.740        53
49.750        73
49.760        53
49.770       100
49.780       107
49.790        47
49.800       100
49.810        60
49.820       100
49.830        93
49.840        87
49.850       107
49.860        87
49.870        60
49.880        80
49.890        53
49.900        67
49.910        60
49.920        60
49.930        60
49.940        67
49.950       133
49.960        93
49.970        33
49.980        60
49.990        87
50.000       100
50.010        67
50.020        80
50.030        67
50.040        53
50.050        47
50.060       107
50.070        67
50.080       107
50.090       100
50.100        67
50.110        47
50.120        33
50.130        47
50.140        40
50.150        60
50.160        73
50.170        93
50.180        87
50.190       107
50.200        67
50.210        53
50.220        47
50.230        67
50.240        40
50.250        40
50.260        93
50.270        27
50.280        80
50.290        47
50.300        80
50.310        60
50.320        60
50.330        87
50.340        93
50.350       120
50.360        60
50.370       107
50.380        67
50.390        80
50.400        67
50.410       113
50.420       133
50.430        80
50.440       120
50.450        53
50.460       100
50.470        87
50.480        60
50.490       113
50.500        87
50.510        87
50.520        60
50.530        80
50.540        60
50.550        53
50.560        80
50.570        87
50.580       100
50.590        53
50.600        87
50.610        73
50.620        80
50.630        67
50.640        93
50.650       100
50.660        93
50.670        87
50.680        60
50.690        73
50.700        53
50.710       100
50.720        60
50.730       100
50.740       107
50.750        73
50.760        93
50.770        80
50.780        53
50.790        80
50.800        67
50.810        53
50.820        93
50.830        67
50.840        93
50.850        67
50.860        60
50.870        53
50.880        53
50.890        20
50.900       107
50.910        87
50.920        60
50.930        87
50.940       120
50.950        73
50.960        87
50.970        40
50.980        67
50.990        60
51.000        67
51.010        33
51.020        60
51.030       107
51.040        87
51.050        60
51.060        67
51.070        80
51.080       120
51.090        80
51.100        47
51.110        80
51.120        73
51.130       120
51.140        47
51.150        67
51.160        47
51.170        60
51.180        60
51.190        33
51.200        47
51.210        47
51.220        67
51.230        93
51.240        73
51.250        73
51.260        73
51.270       100
51.280        93
51.290        67
51.300        87
51.310        93
51.320        67
51.330        53
51.340        60
51.350        33
51.360        93
51.370        73
51.380        67
51.390        67
51.400        60
51.410        73
51.420        53
51.430        80
51.440        73
51.450        73
51.460       160
51.470        40
51.480        47
51.490        47
51.500        87
51.510        47
51.520        60
51.530        93
51.540        47
51.550        67
51.560        93
51.570        53
51.580        80
51.590        60
51.600        60
51.610        40
51.620       120
51.630        27
51.640        60
51.650        73
51.660        80
51.670        80
51.680        47
51.690        73
51.700        93
51.710        60
51.720        73
51.730        73
51.740        67
51.750        67
51.760        67
51.770        47
51.780        73
51.790        87
51.800        33
51.810        67
51.820        27
51.830        53
51.840        53
51.850       113
51.860       100
51.870        20
51.880        60
51.890        47
51.900        93
51.910       107
51.920        20
51.930        93
51.940        67
51.950        53
51.960        33
51.970        53
51.980        80
51.990        60
52.000        87
52.010        60
52.020       113
52.030        73
52.040        67
52.050        47
52.060       107
52.070        67
52.080        73
52.090        73
52.100        53
52.110        40
52.120        40
52.130        53
52.140        67
52.150        27
52.160        60
52.170        67
52.180        47
52.190        87
52.200       100
52.210       107
52.220        53
52.230        60
52.240        67
52.250        60
52.260        73
52.270        73
52.280        73
52.290        80
52.300        53
52.310        60
52.320        80
52.330        73
52.340        67
52.350        27
52.360        40
52.370        73
52.380        67
52.390       113
52.400        60
52.410        73
52.420        53
52.430        87
52.440        40
52.450        87
52.460        87
52.470        40
52.480        60
52.490        67
52.500        33
52.510        93
52.520        73
52.530        93
52.540        60
52.550       113
52.560        73
52.570        67
52.580        73
52.590        47
52.600        67
52.610        67
52.620        47
52.630        67
52.640        53
52.650        53
52.660        53
52.670        87
52.680        53
52.690        33
52.700        80
52.710        47
52.720        33
52.730        80
52.740        40
52.750        47
52.760        67
52.770        53
52.780        67
52.790       100
52.800        73
52.810        73
52.820        53
52.830        53
52.840        33
52.850        60
52.860        40
52.870        60
52.880        73
52.890        67
52.900        60
52.910        67
52.920        73
52.930        40
52.940        60
52.950        20
52.960        60
52.970        67
52.980        40
52.990        60
53.000        60
53.010        20
53.020        93
53.030        67
53.040        47
53.050        60
53.060        60
53.070        93
53.080        47
53.090        87
53.100        33
53.110        87
53.120        47
53.130        80
53.140         7
53.150        67
53.160        80
53.170       100
53.180        53
53.190        20
53.200        87
53.210        80
53.220       100
53.230        53
53.240        67
53.250        80
53.260        60
53.270        80
53.280        80
53.290        53
53.300        60
53.310        60
53.320        87
53.330       100
53.340       107
53.350        73
53.360        73
53.370        33
53.380        60
53.390        47
53.400        40
53.410        47
53.420        33
53.430        93
53.440        47
53.450        80
53.460        40
53.470        33
53.480        60
53.490        93
53.500        53
53.510        93
53.520        80
53.530        67
53.540        40
53.550        67
53.560        73
53.570        67
53.580       127
53.590        53
53.600        33
53.610        67
53.620        53
53.630        60
53.640        67
53.650        87
53.660        47
53.670        27
53.680        67
53.690       100
53.700        33
53.710        40
53.720        40
53.730        87
53.740        40
53.750        73
53.760        60
53.770        93
53.780        40
53.790        60
53.800        80
53.810        67
53.820        40
53.830        47
53.840        80
53.850        40
53.860        60
53.870        80
53.880        80
53.890        87
53.900        87
53.910        33
53.920        67
53.930        67
53.940        60
53.950        47
53.960        40
53.970        67
53.980        47
53.990        47
54.000        40
54.010        40
54.020        47
54.030        33
54.040        80
54.050        87
54.060        53
54.070        47
54.080        53
54.090        47
54.100        47
54.110        73
54.120        47
54.130        53
54.140        47
54.150        87
54.160        60
54.170        47
54.180        80
54.190        67
54.200        53
54.210        60
54.220        67
54.230       100
54.240        73
54.250        33
54.260        73
54.270        40
54.280        67
54.290        53
54.300        73
54.310        67
54.320        60
54.330        80
54.340        53
54.350        87
54.360        80
54.370        87
54.380        60
54.390       107
54.400        60
54.410        67
54.420        87
54.430        40
54.440        60
54.450        73
54.460        60
54.470        73
54.480       100
54.490        27
54.500        40
54.510        40
54.520        60
54.530        53
54.540        67
54.550        60
54.560       107
54.570        80
54.580        47
54.590        67
54.600       120
54.610        87
54.620        80
54.630        73
54.640       120
54.650        53
54.660       113
54.670        80
54.680       140
54.690       100
54.700        67
54.710        40
54.720       100
54.730       100
54.740        73
54.750        60
54.760        33
54.770        87
54.780        40
54.790        47
54.800       127
54.810        93
54.820        67
54.830        40
54.840        53
54.850        73
54.860        87
54.870        60
54.880        60
54.890        73
54.900        40
54.910        87
54.920        73
54.930        27
54.940        87
54.950        67
54.960        47
54.970        73
54.980        53
54.990        87
55.000        60
55.010        60
55.020        40
55.030        33
55.040        80
55.050        60
55.060        40
55.070        47
55.080        67
55.090        67
55.100        67
55.110        33
55.120        60
55.130        60
55.140        93
55.150        80
55.160        40
55.170        47
55.180        73
55.190        40
55.200        40
55.210        53
55.220        53
55.230        53
55.240        60
55.250        53
55.260        53
55.270        80
55.280        87
55.290       107
55.300        53
55.310        87
55.320        53
55.330        73
55.340        40
55.350        93
55.360        60
55.370        87
55.380        53
55.390        67
55.400        87
55.410        40
55.420        33
55.430        67
55.440        60
55.450        80
55.460        53
55.470        47
55.480        27
55.490        80
55.500        73
55.510        40
55.520        47
55.530        53
55.540        60
55.550        47
55.560        87
55.570        67
55.580        93
55.590        47
55.600        40
55.610        53
55.620        87
55.630        73
55.640        47
55.650        60
55.660        40
55.670        27
55.680        87
55.690        33
55.700        60
55.710        67
55.720        87
55.730        60
55.740        53
55.750        60
55.760        40
55.770        53
55.780        60
55.790        73
55.800        80
55.810        67
55.820        27
55.830        40
55.840        60
55.850        60
55.860        60
55.870       107
55.880        40
55.890        60
55.900        67
55.910        80
55.920        67
55.930        80
55.940        60
55.950        60
55.960        47
55.970        80
55.980        67
55.990        47
56.000        47
56.010        40
56.020        40
56.030        60
56.040        73
56.050        53
56.060       100
56.070        60
56.080        67
56.090       120
56.100        40
56.110        53
56.120        60
56.130        47
56.140        60
56.150        53
56.160        60
56.170        73
56.180        53
56.190        40
56.200        60
56.210        47
56.220        67
56.230        73
56.240        80
56.250        60
56.260        47
56.270        40
56.280        13
56.290        60
56.300        33
56.310        80
56.320        67
56.330        20
56.340        40
56.350        60
56.360        60
56.370        67
56.380        40
56.390        87
56.400        73
56.410        80
56.420        47
56.430        87
56.440        80
56.450        67
56.460        93
56.470        67
56.480        33
56.490        53
56.500        73
56.510        93
56.520        33
56.530        53
56.540        47
56.550        40
56.560        73
56.570        60
56.580        60
56.590        40
56.600        80
56.610        60
56.620         7
56.630        80
56.640        47
56.650        60
56.660        67
56.670        53
56.680        47
56.690        80
56.700        33
56.710        47
56.720        53
56.730        40
56.740       113
56.750        80
56.760        47
56.770        67
56.780        67
56.790        47
56.800        47
56.810        33
56.820        60
56.830        60
56.840        80
56.850        60
56.860        53
56.870        40
56.880        40
56.890        67
56.900        47
56.910        73
56.920        60
56.930        33
56.940        40
56.950       100
56.960        47
56.970        53
56.980        53
56.990        20
57.000        67
57.010        67
57.020        60
57.030        67
57.040        67
57.050        60
57.060        53
57.070        53
57.080        53
57.090        80
57.100        60
57.110        33
57.120        53
57.130        80
57.140        20
57.150        73
57.160        67
57.170        33
57.180        40
57.190        73
57.200        67
57.210        53
57.220        47
57.230        60
57.240        67
57.250        33
57.260        60
57.270        60
57.280        93
57.290        67
57.300        47
57.310        73
57.320        53
57.330        80
57.340        67
57.350        67
57.360        47
57.370        67
57.380        60
57.390        40
57.400        87
57.410        60
57.420        67
57.430        67
57.440        93
57.450       120
57.460        87
57.470        47
57.480         7
57.490        33
57.500        73
57.510        47
57.520        80
57.530        27
57.540        47
57.550        60
57.560        47
57.570        40
57.580        47
57.590        27
57.600        67
57.610        33
57.620        67
57.630        53
57.640        87
57.650        53
57.660        40
57.670        40
57.680        80
57.690        53
57.700        60
57.710        80
57.720        53
57.730        40
57.740        53
57.750        87
57.760        60
57.770        53
57.780        60
57.790        53
57.800        33
57.810        60
57.820        67
57.830        40
57.840        60
57.850        60
57.860        47
57.870        53
57.880        40
57.890        60
57.900        73
57.910        60
57.920        73
57.930        73
57.940        47
57.950        67
57.960        33
57.970        33
57.980        47
57.990        53
58.000        33
58.010        47
58.020        67
58.030        67
58.040        60
58.050        53
58.060        33
58.070        53
58.080        60
58.090        53
58.100        73
58.110        53
58.120        53
58.130        47
58.140        47
58.150        47
58.160        80
58.170        27
58.180        53
58.190       100
58.200        73
58.210        67
58.220        67
58.230        60
58.240        40
58.250       100
58.260        67
58.270        33
58.280        53
58.290        67
58.300        53
58.310        40
58.320        20
58.330        73
58.340        60
58.350        73
58.360        60
58.370        33
58.380        47
58.390        67
58.400        33
58.410        53
58.420        53
58.430        67
58.440        87
58.450        47
58.460        60
58.470        47
58.480        47
58.490        73
58.500        53
58.510        47
58.520        20
58.530        60
58.540       100
58.550        80
58.560       107
58.570        67
58.580        40
58.590        67
58.600        40
58.610        60
58.620        80
58.630        47
58.640        40
58.650        53
58.660        87
58.670        67
58.680        73
58.690        40
58.700        73
58.710        40
58.720        67
58.730        67
58.740        33
58.750        73
58.760        27
58.770        53
58.780        53
58.790        27
58.800        47
58.810        80
58.820        60
58.830        60
58.840        73
58.850        53
58.860        40
58.870       100
58.880        60
58.890        60
58.900        60
58.910        60
58.920        53
58.930        80
58.940       120
58.950        40
58.960        67
58.970        53
58.980        33
58.990        73
59.000        40
59.010        33
59.020        20
59.030        40
59.040        47
59.050        60
59.060        60
59.070        40
59.080        40
59.090        67
59.100        47
59.110        53
59.120        53
59.130        60
59.140       107
59.150        67
59.160        53
59.170        47
59.180        53
59.190        47
59.200        53
59.210        93
59.220        40
59.230        40
59.240        27
59.250        67
59.260        47
59.270        67
59.280        47
59.290        67
59.300        67
59.310        33
59.320        20
59.330        40
59.340        67
59.350        33
59.360        73
59.370        87
59.380        40
59.390        40
59.400        33
59.410        60
59.420        27
59.430        73
59.440        80
59.450        67
59.460        60
59.470        40
59.480        67
59.490        53
59.500        53
59.510        53
59.520        60
59.530        47
59.540       100
59.550        47
59.560        53
59.570        53
59.580        33
59.590        33
59.600        40
59.610        47
59.620        40
59.630        60
59.640        73
59.650        87
59.660        73
59.670        47
59.680        73
59.690        33
59.700        33
59.710        40
59.720        73
59.730        73
59.740        53
59.750        67
59.760        40
59.770        73
59.780        40
59.790        47
59.800        60
59.810        40
59.820        73
59.830        73
59.840        47
59.850        40
59.860        20
59.870        27
59.880        87
59.890        40
59.900        47
59.910        53
59.920        33
59.930        60
59.940        67
59.950        60
59.960        33
59.970        87
59.980        73
59.990        20
60.000        20
