20.000        27
20.010        40
20.020        27
20.030        40
20.040        60
20.050        33
20.060        53
20.070        40
20.080        27
20.090        53
20.100         7
20.110        73
20.120        67
20.130       120
20.140        67
20.150        47
20.160        13
20.170        40
20.180        33
20.190        47
20.200        40
20.210        47
20.220        33
20.230        33
20.240        53
20.250        13
20.260        20
20.270        60
20.280        53
20.290        33
20.300        60
20.310        53
20.320        27
20.330        33
20.340        60
20.350        20
20.360        33
20.370        27
20.380        67
20.390        47
20.400        40
20.410        80
20.420        33
20.430        73
20.440        67
20.450        27
20.460        67
20.470        47
20.480        67
20.490        93
20.500        60
20.510        40
20.520        40
20.530        27
20.540        80
20.550        33
20.560        47
20.570        47
20.580        33
20.590        47
20.600        27
20.610        40
20.620        53
20.630        47
20.640        40
20.650        33
20.660        53
20.670        40
20.680        33
20.690        27
20.700        67
20.710        40
20.720        40
20.730        60
20.740        40
20.750        40
20.760        20
20.770        33
20.780        13
20.790        47
20.800        40
20.810        40
20.820        27
20.830        47
20.840        60
20.850        33
20.860        40
20.870        60
20.880        27
20.890        27
20.900        47
20.910        13
20.920        53
20.930        53
20.940        40
20.950        27
20.960        13
20.970        27
20.980        33
20.990        47
21.000        40
21.010        47
21.020        40
21.030        47
21.040        40
21.050        47
21.060        47
21.070        53
21.080        53
21.090        47
21.100        47
21.110        33
21.120        33
21.130        40
21.140        60
21.150        33
21.160        60
21.170        60
21.180        27
21.190        53
21.200        40
21.210        20
21.220        27
21.230        53
21.240        40
21.250        40
21.260        40
21.270        47
21.280        40
21.290        53
21.300        33
21.310        47
21.320        33
21.330        53
21.340        60
21.350        40
21.360        40
21.370        33
21.380        27
21.390        47
21.400        20
21.410        20
21.420        67
21.430        33
21.440        47
21.450        33
21.460        73
21.470        20
21.480        40
21.490        60
21.500        33
21.510        60
21.520        47
21.530        20
21.540        53
21.550        47
21.560        47
21.570        40
21.580        40
21.590        33
21.600        47
21.610         7
21.620        40
21.630        53
21.640        40
21.650        53
21.660        53
21.670        80
21.680        53
21.690        40
21.700        33
21.710        20
21.720        27
21.730        47
21.740        40
21.750        47
21.760        33
21.770        53
21.780       100
21.790        47
21.800        40
21.810        40
21.820        27
21.830        27
21.840        47
21.850        47
21.860        13
21.870        20
21.880        40
21.890        33
21.900        27
21.910        47
21.920        40
21.930        27
21.940        27
21.950        13
21.960        80
21.970        73
21.980        60
21.990        33
22.000        33
22.010        60
22.020        60
22.030        53
22.040        27
22.050        40
22.060        60
22.070        60
22.080        40
22.090        40
22.100        27
22.110        53
22.120        60
22.130        33
22.140        53
22.150        47
22.160        53
22.170        20
22.180        40
22.190        67
22.200        60
22.210        67
22.220        40
22.230        33
22.240        60
22.250        87
22.260        27
22.270        60
22.280        47
22.290        13
22.300        60
22.310        60
22.320        40
22.330        87
22.340        60
22.350       100
22.360        40
22.370        47
22.380        53
22.390        67
22.400        53
22.410        73
22.420        67
22.430        93
22.440        80
22.450        87
22.460       133
22.470       133
22.480       167
22.490       153
22.500       127
22.510       133
22.520       153
22.530       187
22.540       187
22.550       227
22.560       167
22.570       313
22.580       233
22.590       293
22.600       253
22.610       267
22.620       293
22.630       307
22.640       320
22.650       380
22.660       347
22.670       367
22.680       360
22.690       446
22.700       260
22.710       320
22.720       466
22.730       367
22.740       347
22.750       353
22.760       300
22.770       200
22.780       247
22.790       253
22.800       307
22.810       200
22.820       220
22.830       207
22.840       233
22.850       180
22.860       240
22.870       107
22.880       240
22.890       187
22.900       140
22.910       113
22.920       133
22.930       147
22.940        60
22.950        80
22.960        87
22.970       147
22.980        87
22.990        87
23.000       107
23.010       100
23.020        47
23.030        87
23.040        80
23.050        47
23.060        67
23.070       100
23.080        60
23.090        67
23.100        73
23.110       127
23.120        80
23.130        73
23.140       120
23.150        53
23.160        53
23.170        53
23.180        33
23.190        47
23.200        47
23.210        53
23.220        27
23.230        67
23.240        60
23.250        80
23.260        27
23.270        67
23.280        73
23.290        60
23.300        33
23.310        80
23.320        40
23.330        53
23.340        13
23.350        53
23.360        47
23.370        27
23.380        40
23.390        40
23.400        33
23.410        33
23.420        33
23.430        53
23.440        60
23.450        33
23.460        27
23.470        53
23.480        60
23.490        53
23.500        40
23.510        33
23.520        47
23.530        13
23.540        13
23.550        67
23.560        40
23.570        27
23.580        33
23.590        27
23.600        33
23.610        27
23.620        40
23.630        33
23.640        67
23.650        40
23.660        53
23.670        40
23.680        27
23.690        40
23.700        53
23.710        33
23.720        27
23.730        20
23.740        20
23.750        60
23.760        60
23.770        20
23.780        40
23.790        20
23.800        40
23.810        53
23.820        40
23.830        40
23.840        27
23.850        47
23.860        33
23.870        33
23.880        60
23.890        60
23.900        27
23.910        20
23.920        20
23.930        20
23.940        40
23.950        27
23.960        33
23.970        20
23.980        27
23.990        40
24.000        27
24.010        40
24.020        60
24.030        53
24.040        73
24.050        40
24.060        67
24.070        20
24.080        33
24.090        53
24.100        67
24.110        67
24.120        53
24.130        33
24.140         7
24.150        53
24.160        20
24.170        40
24.180        40
24.190        20
24.200        53
24.210        53
24.220        53
24.230        67
24.240        40
24.250        40
24.260        60
24.270        33
24.280        13
24.290         7
24.300        53
24.310        40
24.320        33
24.330        27
24.340        27
24.350        47
24.360        53
24.370        47
24.380        53
24.390        33
24.400        47
24.410        13
24.420        73
24.430        27
24.440        40
24.450        40
24.460        47
24.470        40
24.480        47
24.490        13
24.500        40
24.510        20
24.520        67
24.530        33
24.540        47
24.550        20
24.560        47
24.570        33
24.580        40
24.590        40
24.600        33
24.610        40
24.620        27
24.630        53
24.640        27
24.650        53
24.660        47
24.670        27
24.680        53
24.690        20
24.700        40
24.710        47
24.720        27
24.730        33
24.740        33
24.750        53
24.760        20
24.770        27
24.780        27
24.790        27
24.800        27
24.810        53
24.820        40
24.830        13
24.840        40
24.850        60
24.860        33
24.870        27
24.880        20
24.890         7
24.900        53
24.910        53
24.920        33
24.930        40
24.940        33
24.950        27
24.960        13
24.970        40
24.980        33
24.990        53
25.000        47
25.010        60
25.020        33
25.030        33
25.040        20
25.050        20
25.060        40
25.070        40
25.080        27
25.090        33
25.100        67
25.110        40
25.120        20
25.130        27
25.140        73
25.150        27
25.160        53
25.170        40
25.180        47
25.190        53
25.200        33
25.210        40
25.220        33
25.230        47
25.240        47
25.250        60
25.260        27
25.270        53
25.280        27
25.290        13
25.300        20
25.310        33
25.320        60
25.330        40
25.340         7
25.350        20
25.360        40
25.370        33
25.380        27
25.390        33
25.400        13
25.410        33
25.420        60
25.430        53
25.440        40
25.450        13
25.460        53
25.470        53
25.480        27
25.490        47
25.500        60
25.510        47
25.520        33
25.530        53
25.540        60
25.550        40
25.560        60
25.570        47
25.580        27
25.590        33
25.600        47
25.610        60
25.620        47
25.630        47
25.640        60
25.650        80
25.660        40
25.670        27
25.680        53
25.690        33
25.700        33
25.710        27
25.720        67
25.730        47
25.740       100
25.750        53
25.760        47
25.770        33
25.780        40
25.790        47
25.800         7
25.810        20
25.820        67
25.830         7
25.840        53
25.850        27
25.860        20
25.870        20
25.880        40
25.890        40
25.900        27
25.910        33
25.920        53
25.930        33
25.940        47
25.950        27
25.960        60
25.970         7
25.980        33
25.990        67
26.000        47
26.010        60
26.020        47
26.030        47
26.040        53
26.050        27
26.060        13
26.070        33
26.080        60
26.090        27
26.100        20
26.110        33
26.120        27
26.130        60
26.140        20
26.150        33
26.160        53
26.170        27
26.180        40
26.190        20
26.200        27
26.210        33
26.220        33
26.230        33
26.240        40
26.250        33
26.260        20
26.270        40
26.280        20
26.290        27
26.300        33
26.310        73
26.320        40
26.330        27
26.340         7
26.350        33
26.360        67
26.370         7
26.380        20
26.390        40
26.400        60
26.410        33
26.420        53
26.430         7
26.440        40
26.450        13
26.460        13
26.470        20
26.480        20
26.490        27
26.500        80
26.510        73
26.520        33
26.530        53
26.540        53
26.550        33
26.560        47
26.570        40
26.580        27
26.590        60
26.600        27
26.610        53
26.620        73
26.630        53
26.640        27
26.650        33
26.660        53
26.670        33
26.680        40
26.690        40
26.700        47
26.710        33
26.720        33
26.730        53
26.740        33
26.750        20
26.760         7
26.770        40
26.780        47
26.790        27
26.800        33
26.810        27
26.820        27
26.830        33
26.840        47
26.850        40
26.860        47
26.870        40
26.880        20
26.890        40
26.900        27
26.910         7
26.920        27
26.930        53
26.940        20
26.950        33
26.960        33
26.970        20
26.980        13
26.990        47
27.000         7
27.010        47
27.020        27
27.030        33
27.040        60
27.050        53
27.060        13
27.070        47
27.080        13
27.090        53
27.100        20
27.110        27
27.120        27
27.130        33
27.140        33
27.150        13
27.160        33
27.170        33
27.180        20
27.190        73
27.200        20
27.210        40
27.220        27
27.230        47
27.240        53
27.250        13
27.260        13
27.270        13
27.280        40
27.290        27
27.300        33
27.310        40
27.320        27
27.330        27
27.340        27
27.350        33
27.360        20
27.370         7
27.380        40
27.390        40
27.400         7
27.410        27
27.420        47
27.430        40
27.440         7
27.450        20
27.460        20
27.470        27
27.480        13
27.490        20
27.500        53
27.510        40
27.520        67
27.530        33
27.540        13
27.550        40
27.560        27
27.570        27
27.580        27
27.590         7
27.600         7
27.610        27
27.620        47
27.630        47
27.640        20
27.650        20
27.660        47
27.670        20
27.680        33
27.690        47
27.700        13
27.710         7
27.720        27
27.730        47
27.740        20
27.750        40
27.760        13
27.770        27
27.780        40
27.790        27
27.800        20
27.810        47
27.820        53
27.830        33
27.840        53
27.850        20
27.860        20
27.870        13
27.880        33
27.890        40
27.900        13
27.910         7
27.920        27
27.930        33
27.940        27
27.950        40
27.960        47
27.970        13
27.980        13
27.990        13
28.000        60
28.010        47
28.020        33
28.030        13
28.040        20
28.050        20
28.060        20
28.070        47
28.080        47
28.090        20
28.100        40
28.110         7
28.120        27
28.130        33
28.140        60
28.150        60
28.160        40
28.170        40
28.180        60
28.190        20
28.200        20
28.210        27
28.220        67
28.230        40
28.240        40
28.250        33
28.260        33
28.270        13
28.280        47
28.290        13
28.300        20
28.310        13
28.320        33
28.330        27
28.340        13
28.350        20
28.360        20
28.370        33
28.380        13
28.390        40
28.400        47
28.410        40
28.420        27
28.430        47
28.440        27
28.450        53
28.460        40
28.470        27
28.480        13
28.490        20
28.500        27
28.510        27
28.520        47
28.530        27
28.540        53
28.550        20
28.560        13
28.570        27
28.580        20
28.590        20
28.600        27
28.610        27
28.620        47
28.630        33
28.640        33
28.650        27
28.660         7
28.670        13
28.680        33
28.690        20
28.700        47
28.710         0
28.720        33
28.730        20
28.740        13
28.750        27
28.760        40
28.770        40
28.780        33
28.790        20
28.800        27
28.810        33
28.820        40
28.830        20
28.840        20
28.850        33
28.860        33
28.870        33
28.880        67
28.890        13
28.900        33
28.910        27
28.920        33
28.930        40
28.940        20
28.950        40
28.960        53
28.970        40
28.980        27
28.990        20
29.000        13
29.010        53
29.020        27
29.030        20
29.040        20
29.050        33
29.060        27
29.070        20
29.080         7
29.090         7
29.100        20
29.110        27
29.120        33
29.130        40
29.140        20
29.150        40
29.160        13
29.170        47
29.180        27
29.190        13
29.200        40
29.210        27
29.220        27
29.230        60
29.240        20
29.250        47
29.260        40
29.270        67
29.280        73
29.290        40
29.300        20
29.310         7
29.320        47
29.330        67
29.340        53
29.350        33
29.360        20
29.370        40
29.380        27
29.390        33
29.400        33
29.410        33
29.420        60
29.430        47
29.440        40
29.450        47
29.460        60
29.470        20
29.480        53
29.490        33
29.500        53
29.510        33
29.520        33
29.530        33
29.540        60
29.550        40
29.560        60
29.570        20
29.580        20
29.590        13
29.600        27
29.610        53
29.620        13
29.630        33
29.640        27
29.650        47
29.660        33
29.670        33
29.680        27
29.690        60
29.700        20
29.710        20
29.720        20
29.730        60
29.740        27
29.750        20
29.760        60
29.770        20
29.780        40
29.790        27
29.800        20
29.810        53
29.820        33
29.830        13
29.840        33
29.850        13
29.860        13
29.870        40
29.880        27
29.890        53
29.900        13
29.910        13
29.920        27
29.930        13
29.940         7
29.950        33
29.960        73
29.970        27
29.980        13
29.990        33
30.000        33
30.010        27
30.020        47
30.030         7
30.040        27
30.050         7
30.060        33
30.070        40
30.080        20
30.090        20
30.100        40
30.110        13
30.120        13
30.130        27
30.140         7
30.150        13
30.160        53
30.170        47
30.180         7
30.190        27
30.200        20
30.210        20
30.220        47
30.230        20
30.240        33
30.250        27
30.260        33
30.270        27
30.280        33
30.290        27
30.300        20
30.310        13
30.320        13
30.330        13
30.340         7
30.350        33
30.360        13
30.370        13
30.380         7
30.390        13
30.400        27
30.410        13
30.420        13
30.430        40
30.440         7
30.450        27
30.460        53
30.470         7
30.480        40
30.490        60
30.500        27
30.510        13
30.520        33
30.530        27
30.540        20
30.550        20
30.560        13
30.570        27
30.580        27
30.590        13
30.600        13
30.610         7
30.620        40
30.630        40
30.640        40
30.650        27
30.660        33
30.670        33
30.680        47
30.690        20
30.700        13
30.710        20
30.720        27
30.730        27
30.740        67
30.750        20
30.760        27
30.770        20
30.780        20
30.790         0
30.800        33
30.810        13
30.820        27
30.830        33
30.840        67
30.850        33
30.860         7
30.870        20
30.880        13
30.890        33
30.900        27
30.910        20
30.920        20
30.930        27
30.940        20
30.950        40
30.960        20
30.970        33
30.980        33
30.990        13
31.000        33
31.010        13
31.020        20
31.030        27
31.040        20
31.050        47
31.060        27
31.070        33
31.080        27
31.090        40
31.100        27
31.110        20
31.120        13
31.130        47
31.140        20
31.150         7
31.160        20
31.170        27
31.180         7
31.190         7
31.200        40
31.210        20
31.220        27
31.230         7
31.240        47
31.250        20
31.260        13
31.270        20
31.280        20
31.290         7
31.300        27
31.310        27
31.320        27
31.330        40
31.340        33
31.350        27
31.360        13
31.370        13
31.380        13
31.390        27
31.400        13
31.410        27
31.420        27
31.430         7
31.440        27
31.450        40
31.460        27
31.470         0
31.480        27
31.490        27
31.500        40
31.510        33
31.520        40
31.530        53
31.540        53
31.550        33
31.560         7
31.570        13
31.580        13
31.590        27
31.600        20
31.610        33
31.620        47
31.630        40
31.640        53
31.650        53
31.660        27
31.670        13
31.680        20
31.690        27
31.700        20
31.710        13
31.720        67
31.730        40
31.740        33
31.750        53
31.760        40
31.770        33
31.780        13
31.790        20
31.800        20
31.810        27
31.820        60
31.830        20
31.840        27
31.850        47
31.860        20
31.870        53
31.880        33
31.890        40
31.900        20
31.910         7
31.920        33
31.930        47
31.940        33
31.950        40
31.960        47
31.970        27
31.980        40
31.990        33
32.000        13
32.010        40
32.020        40
32.030        40
32.040        20
32.050        20
32.060        20
32.070        60
32.080        33
32.090        40
32.100        33
32.110        33
32.120        67
32.130        40
32.140        27
32.150        93
32.160        53
32.170        53
32.180        67
32.190        47
32.200        87
32.210        53
32.220        80
32.230        73
32.240        73
32.250       100
32.260       160
32.270        87
32.280       133
32.290        93
32.300       133
32.310       193
32.320       187
32.330       127
32.340       127
32.350       173
32.360       207
32.370       180
32.380       213
32.390       200
32.400       127
32.410       153
32.420       273
32.430       273
32.440       227
32.450       180
32.460       140
32.470       153
32.480       167
32.490       153
32.500       133
32.510       147
32.520       187
32.530       113
32.540       173
32.550       147
32.560       153
32.570       160
32.580       140
32.590       120
32.600       107
32.610       107
32.620        73
32.630        80
32.640       120
32.650        73
32.660        87
32.670        53
32.680        60
32.690        27
32.700        60
32.710        73
32.720        67
32.730        47
32.740        67
32.750        47
32.760        47
32.770        67
32.780        33
32.790        80
32.800        13
32.810        20
32.820        33
32.830        47
32.840        13
32.850        47
32.860        40
32.870        40
32.880        40
32.890        33
32.900        27
32.910        20
32.920        33
32.930        27
32.940        20
32.950        20
32.960        47
32.970        67
32.980        53
32.990        33
33.000        40
33.010        33
33.020        27
33.030        27
33.040        13
33.050        20
33.060        27
33.070        33
33.080        27
33.090        13
33.100        33
33.110        20
33.120        53
33.130        13
33.140        13
33.150        40
33.160         7
33.170        20
33.180        20
33.190        33
33.200        47
33.210        33
33.220        40
33.230        13
33.240        53
33.250        20
33.260        20
33.270        20
33.280        33
33.290        33
33.300        47
33.310         7
33.320        20
33.330        27
33.340         7
33.350        47
33.360        13
33.370        27
33.380        20
33.390        33
33.400        47
33.410        13
33.420        13
33.430         7
33.440         7
33.450        33
33.460        60
33.470        33
33.480        47
33.490        27
33.500        40
33.510        20
33.520        20
33.530        67
33.540        33
33.550        40
33.560        60
33.570        13
33.580        33
33.590        13
33.600        47
33.610        27
33.620        33
33.630        27
33.640        53
33.650        27
33.660        27
33.670        27
33.680        27
33.690        20
33.700        40
33.710        33
33.720        40
33.730         7
33.740        33
33.750        27
33.760        20
33.770        27
33.780        13
33.790        20
33.800        20
33.810        20
33.820         0
33.830         0
33.840        27
33.850        13
33.860        33
33.870        27
33.880        27
33.890        33
33.900        27
33.910        40
33.920        13
33.930        27
33.940        27
33.950        27
33.960        27
33.970        13
33.980        13
33.990        27
34.000        20
34.010        27
34.020        33
34.030        27
34.040        20
34.050        40
34.060         7
34.070        13
34.080        13
34.090        13
34.100        33
34.110         7
34.120        27
34.130        13
34.140        47
34.150        20
34.160        20
34.170        20
34.180         7
34.190        33
34.200        13
34.210         7
34.220         7
34.230        33
34.240        27
34.250        20
34.260        20
34.270        27
34.280        33
34.290         0
34.300        27
34.310        20
34.320        13
34.330        20
34.340        20
34.350        40
34.360         7
34.370        33
34.380         7
34.390        20
34.400        33
34.410        27
34.420        13
34.430        53
34.440        20
34.450        20
34.460        13
34.470        20
34.480        33
34.490        20
34.500         7
34.510         7
34.520        13
34.530        40
34.540        13
34.550        20
34.560        20
34.570        27
34.580        40
34.590        33
34.600        27
34.610        13
34.620        20
34.630        20
34.640        20
34.650         0
34.660        20
34.670        20
34.680         0
34.690        20
34.700        13
34.710         0
34.720        40
34.730        20
34.740         7
34.750        27
34.760        27
34.770        13
34.780         7
34.790        13
34.800        27
34.810        47
34.820        33
34.830        20
34.840        13
34.850         7
34.860        33
34.870        27
34.880        27
34.890         7
34.900        13
34.910        20
34.920        27
34.930        13
34.940        13
34.950        33
34.960        40
34.970         7
34.980         7
34.990        20
35.000         7
35.010        20
35.020        27
35.030        27
35.040        13
35.050        20
35.060         7
35.070         7
35.080        13
35.090        40
35.100        47
35.110        20
35.120        33
35.130        13
35.140        13
35.150        53
35.160        27
35.170        33
35.180        33
35.190        20
35.200        27
35.210        40
35.220         7
35.230        33
35.240         7
35.250        13
35.260        13
35.270        20
35.280        47
35.290        47
35.300        20
35.310        20
35.320        13
35.330         7
35.340        40
35.350        33
35.360        13
35.370        20
35.380        27
35.390        13
35.400         7
35.410        40
35.420        40
35.430        20
35.440        20
35.450         7
35.460         0
35.470        27
35.480        20
35.490        20
35.500         7
35.510        20
35.520        13
35.530        20
35.540        20
35.550        20
35.560        13
35.570        20
35.580        40
35.590        40
35.600         7
35.610        20
35.620        20
35.630        40
35.640        13
35.650        13
35.660        13
35.670        33
35.680        13
35.690        20
35.700        20
35.710        13
35.720        13
35.730        40
35.740        20
35.750         7
35.760         7
35.770        20
35.780        20
35.790         0
35.800        20
35.810        33
35.820        20
35.830        20
35.840         0
35.850        27
35.860        33
35.870        40
35.880        40
35.890        20
35.900        20
35.910        27
35.920        33
35.930         7
35.940        47
35.950         7
35.960        27
35.970        20
35.980         7
35.990        33
36.000        27
36.010        33
36.020        20
36.030        13
36.040        20
36.050         7
36.060        13
36.070        13
36.080        13
36.090         7
36.100        13
36.110         0
36.120        13
36.130        27
36.140        20
36.150        20
36.160        13
36.170        13
36.180        20
36.190         0
36.200         0
36.210        13
36.220         0
36.230        13
36.240         7
36.250        20
36.260        20
36.270        27
36.280        13
36.290        20
36.300        53
36.310        40
36.320         0
36.330         0
36.340        33
36.350        47
36.360        20
36.370        13
36.380        20
36.390        27
36.400        20
36.410        27
36.420         7
36.430        13
36.440        27
36.450        13
36.460        13
36.470        27
36.480        13
36.490        33
36.500        13
36.510         0
36.520         7
36.530        13
36.540         0
36.550        40
36.560        13
36.570        20
36.580        20
36.590         7
36.600        20
36.610        13
36.620        33
36.630        47
36.640        27
36.650        20
36.660         7
36.670        33
36.680        27
36.690        20
36.700        27
36.710        13
36.720        20
36.730         7
36.740        20
36.750        40
36.760        13
36.770        27
36.780        27
36.790         7
36.800        13
36.810        20
36.820        27
36.830        20
36.840        13
36.850        27
36.860        20
36.870         0
36.880        13
36.890        27
36.900        20
36.910         7
36.920        27
36.930        20
36.940        13
36.950        33
36.960        20
36.970        40
36.980        20
36.990        13
37.000         0
37.010        20
37.020        27
37.030         7
37.040        20
37.050        20
37.060        13
37.070        20
37.080         7
37.090        40
37.100        13
37.110        13
37.120        13
37.130         7
37.140        13
37.150         7
37.160        13
37.170         7
37.180        20
37.190        13
37.200        13
37.210        20
37.220        20
37.230         7
37.240         7
37.250         7
37.260        13
37.270        27
37.280        27
37.290        20
37.300        33
37.310        20
37.320        20
37.330        27
37.340         0
37.350         7
37.360        20
37.370        27
37.380         7
37.390        33
37.400        13
37.410        33
37.420        27
37.430        27
37.440         7
37.450        13
37.460        13
37.470        13
37.480        20
37.490        20
37.500         0
37.510         0
37.520        20
37.530         7
37.540        40
37.550        20
37.560        20
37.570        33
37.580         7
37.590        13
37.600         0
37.610        20
37.620        13
37.630         7
37.640        33
37.650        27
37.660        40
37.670        20
37.680        27
37.690        33
37.700        33
37.710        40
37.720        33
37.730        20
37.740         7
37.750        20
37.760         0
37.770         7
37.780        27
37.790        33
37.800        20
37.810        20
37.820        13
37.830        13
37.840        40
37.850        27
37.860        27
37.870         7
37.880        20
37.890        20
37.900        20
37.910        13
37.920        20
37.930        20
37.940         7
37.950         0
37.960         7
37.970        13
37.980         7
37.990         7
38.000        20
38.010        13
38.020         7
38.030         7
38.040         7
38.050         7
38.060        20
38.070        20
38.080        20
38.090        27
38.100        20
38.110        20
38.120         7
38.130         7
38.140        27
38.150        33
38.160        27
38.170        13
38.180        13
38.190         7
38.200        20
38.210        13
38.220        27
38.230         0
38.240         7
38.250        27
38.260        27
38.270        13
38.280        13
38.290         7
38.300        40
38.310        40
38.320        13
38.330        27
38.340         7
38.350         7
38.360        13
38.370        27
38.380        20
38.390        20
38.400         7
38.410         7
38.420         7
38.430        13
38.440         7
38.450        40
38.460        27
38.470        13
38.480         7
38.490         0
38.500        13
38.510        33
38.520        33
38.530        20
38.540        20
38.550        20
38.560         7
38.570        20
38.580        27
38.590        13
38.600        20
38.610        33
38.620         0
38.630         0
38.640        27
38.650        40
38.660         0
38.670        13
38.680        13
38.690        27
38.700        20
38.710        20
38.720         7
38.730        13
38.740        20
38.750        47
38.760        20
38.770        20
38.780        13
38.790        27
38.800        13
38.810        27
38.820        27
38.830        13
38.840        13
38.850        53
38.860        13
38.870        27
38.880        13
38.890         7
38.900        27
38.910        13
38.920        13
38.930        13
38.940         7
38.950         7
38.960         7
38.970        20
38.980        33
38.990        20
39.000        27
39.010        27
39.020        33
39.030        13
39.040         7
39.050        33
39.060        20
39.070         0
39.080        20
39.090         7
39.100        33
39.110        53
39.120        13
39.130        33
39.140        20
39.150        27
39.160        33
39.170        13
39.180        33
39.190        33
39.200        13
39.210        20
39.220        33
39.230         7
39.240        40
39.250         7
39.260        20
39.270        33
39.280         7
39.290        27
39.300        13
39.310        47
39.320         0
39.330        20
39.340        33
39.350        13
39.360        20
39.370        27
39.380        13
39.390        13
39.400        47
39.410         7
39.420        13
39.430        13
39.440        40
39.450        33
39.460        13
39.470         7
39.480        13
39.490        20
39.500        13
39.510        53
39.520        33
39.530        13
39.540        27
39.550        27
39.560         0
39.570        13
39.580        13
39.590         7
39.600         7
39.610         7
39.620        47
39.630        27
39.640         7
39.650        20
39.660        20
39.670        13
39.680        20
39.690        27
39.700        13
39.710        27
39.720        13
39.730        20
39.740        13
39.750         7
39.760        13
39.770        13
39.780        33
39.790        13
39.800        20
39.810         7
39.820        20
39.830        20
39.840        13
39.850        20
39.860        33
39.870        27
39.880        13
39.890         7
39.900        13
39.910        33
39.920        20
39.930        20
39.940        27
39.950        27
39.960        20
39.970        27
39.980         7
39.990        20
40.000        27
40.010        33
40.020        13
40.030        27
40.040        13
40.050        20
40.060        20
40.070        40
40.080        20
40.090         0
40.100        47
40.110        27
40.120        13
40.130        40
40.140        53
40.150        40
40.160        40
40.170        13
40.180        60
40.190        13
40.200        67
40.210        20
40.220        33
40.230        33
40.240        40
40.250         0
40.260         7
40.270        20
40.280        40
40.290        20
40.300         7
40.310        33
40.320        20
40.330        20
40.340        20
40.350        20
40.360        53
40.370        27
40.380        13
40.390        27
40.400        27
40.410        13
40.420         7
40.430        13
40.440        20
40.450         0
40.460         7
40.470        20
40.480        13
40.490        13
40.500        13
40.510         7
40.520        20
40.530        13
40.540        13
40.550        13
40.560        20
40.570        27
40.580         7
40.590         7
40.600        27
40.610        33
40.620        20
40.630        20
40.640        27
40.650        13
40.660        13
40.670        20
40.680         7
40.690        40
40.700         7
40.710         7
40.720        20
40.730        27
40.740        27
40.750        13
40.760        27
40.770        27
40.780         7
40.790        20
40.800        20
40.810         0
40.820         0
40.830        33
40.840        13
40.850        13
40.860        20
40.870         7
40.880         7
40.890         0
40.900        27
40.910        33
40.920        20
40.930        20
40.940        13
40.950         7
40.960        27
40.970        13
40.980        27
40.990        20
41.000        20
41.010        13
41.020         7
41.030        33
41.040         7
41.050        13
41.060        20
41.070        27
41.080        20
41.090         7
41.100        33
41.110        33
41.120        47
41.130        20
41.140        13
41.150        20
41.160        13
41.170        27
41.180        20
41.190        27
41.200        40
41.210        27
41.220        40
41.230        33
41.240        13
41.250         7
41.260        27
41.270        27
41.280        20
41.290        40
41.300        27
41.310         7
41.320         7
41.330        20
41.340         7
41.350        33
41.360        60
41.370        13
41.380        13
41.390        27
41.400        20
41.410        53
41.420        27
41.430        13
41.440         0
41.450        73
41.460        20
41.470        20
41.480        53
41.490        13
41.500        53
41.510        20
41.520        20
41.530         7
41.540        40
41.550        27
41.560        20
41.570        47
41.580        40
41.590        33
41.600        27
41.610        27
41.620        40
41.630        20
41.640        20
41.650        33
41.660        33
41.670        27
41.680        53
41.690        27
41.700        20
41.710        27
41.720        40
41.730        20
41.740        27
41.750        73
41.760        40
41.770        47
41.780        13
41.790        20
41.800        13
41.810        40
41.820        33
41.830        20
41.840        33
41.850        33
41.860        33
41.870        47
41.880        20
41.890        27
41.900        27
41.910        47
41.920        33
41.930        27
41.940        27
41.950        13
41.960        27
41.970        27
41.980        27
41.990         7
42.000        33
42.010         7
42.020        20
42.030        13
42.040        13
42.050        20
42.060        13
42.070         7
42.080        13
42.090        33
42.100        27
42.110        13
42.120        13
42.130        20
42.140        13
42.150         7
42.160        13
42.170        33
42.180        40
42.190        47
42.200         7
42.210        27
42.220        13
42.230        13
42.240        33
42.250        13
42.260         7
42.270        13
42.280        20
42.290        20
42.300        13
42.310        47
42.320         7
42.330        13
42.340        27
42.350        13
42.360        13
42.370        33
42.380         7
42.390        40
42.400        33
42.410        20
42.420        13
42.430        13
42.440        33
42.450        33
42.460        27
42.470        27
42.480        20
42.490         7
42.500         0
42.510        33
42.520        33
42.530        27
42.540         7
42.550        13
42.560        20
42.570         7
42.580        13
42.590        20
42.600         7
42.610        33
42.620         7
42.630        13
42.640        27
42.650        20
42.660        27
42.670        20
42.680        13
42.690        33
42.700        27
42.710        33
42.720         7
42.730        27
42.740        33
42.750        20
42.760        27
42.770        27
42.780        27
42.790        47
42.800        20
42.810        13
42.820         7
42.830        13
42.840        20
42.850        13
42.860        20
42.870         7
42.880        20
42.890         7
42.900        40
42.910        13
42.920        27
42.930         0
42.940        27
42.950        33
42.960         7
42.970        27
42.980        13
42.990        47
43.000         0
43.010        33
43.020         7
43.030        27
43.040        13
43.050        20
43.060        40
43.070        20
43.080        33
43.090        27
43.100        27
43.110        40
43.120        20
43.130        33
43.140        60
43.150        13
43.160        33
43.170        27
43.180        27
43.190        60
43.200         7
43.210        27
43.220         0
43.230        20
43.240        47
43.250        33
43.260        27
43.270        27
43.280        33
43.290        40
43.300         7
43.310        13
43.320         0
43.330        13
43.340        20
43.350        20
43.360        20
43.370        20
43.380         7
43.390        13
43.400        33
43.410        33
43.420        47
43.430        20
43.440         0
43.450        13
43.460        40
43.470        47
43.480        13
43.490         7
43.500        20
43.510       160
43.520        47
43.530         7
43.540         7
43.550        13
43.560         7
43.570        20
43.580         7
43.590        20
43.600        20
43.610        20
43.620        33
43.630        20
43.640        13
43.650         0
43.660        13
43.670        27
43.680        20
43.690        27
43.700         7
43.710         7
43.720        20
43.730        13
43.740        33
43.750        27
43.760        40
43.770        27
43.780        33
43.790        13
43.800        13
43.810        20
43.820        40
43.830        33
43.840        27
43.850        47
43.860        13
43.870        33
43.880        27
43.890        47
43.900        33
43.910        13
43.920        13
43.930        27
43.940        53
43.950        27
43.960         7
43.970        33
43.980        33
43.990        13
44.000        20
44.010        13
44.020        13
44.030        13
44.040        13
44.050        20
44.060        40
44.070        27
44.080        13
44.090        53
44.100        27
44.110         7
44.120        27
44.130        47
44.140        20
44.150        33
44.160         0
44.170        47
44.180        27
44.190        60
44.200        13
44.210        27
44.220        13
44.230         7
44.240        13
44.250        27
44.260        27
44.270        53
44.280        33
44.290        20
44.300        20
44.310        40
44.320        27
44.330        33
44.340        13
44.350        27
44.360        40
44.370        33
44.380         0
44.390        27
44.400         7
44.410        47
44.420        33
44.430        40
44.440        40
44.450        20
44.460        47
44.470        27
44.480        27
44.490        27
44.500        47
44.510        33
44.520        40
44.530        60
44.540        47
44.550        33
44.560        53
44.570        60
44.580        60
44.590        33
44.600        47
44.610        53
44.620        67
44.630        40
44.640        73
44.650        40
44.660        87
44.670        47
44.680        47
44.690        40
44.700        53
44.710        40
44.720        40
44.730        53
44.740        40
44.750        53
44.760        73
44.770        47
44.780        60
44.790        60
44.800        53
44.810        33
44.820        93
44.830        73
44.840        13
44.850        40
44.860        20
44.870        60
44.880        60
44.890        80
44.900        87
44.910        67
44.920        87
44.930        67
44.940        47
44.950        73
44.960        60
44.970        40
44.980       100
44.990       100
45.000        80
45.010        67
45.020        93
45.030        87
45.040        47
45.050        53
45.060        67
45.070       100
45.080        60
45.090        67
45.100        87
45.110        87
45.120       100
45.130       100
45.140       100
45.150       100
45.160        93
45.170        60
45.180        73
45.190       140
45.200       120
45.210        80
45.220        73
45.230        93
45.240       113
45.250       133
45.260       127
45.270       100
45.280       120
45.290       167
45.300       140
45.310       120
45.320        60
45.330       100
45.340       120
45.350        73
45.360        73
45.370       147
45.380        87
45.390       173
45.400       180
45.410       133
45.420       160
45.430       167
45.440       153
45.450       133
45.460       173
45.470       193
45.480       213
45.490       193
45.500       127
45.510       180
45.520       200
45.530       247
45.540       240
45.550       180
45.560       213
45.570       207
45.580       213
45.590       233
45.600       293
45.610       220
45.620       273
45.630       373
45.640       313
45.650       307
45.660       233
45.670       313
45.680       280
45.690       307
45.700       347
45.710       400
45.720       453
45.730       453
45.740       426
45.750       387
45.760       413
45.770       486
45.780       573
45.790       506
45.800       533
45.810       580
45.820       720
45.830       733
45.840       673
45.850       853
45.860       740
45.870       820
45.880       820
45.890       893
45.900       820
45.910       906
45.920       933
45.930      1133
45.940      1020
45.950      1100
45.960      1120
45.970      1559
45.980      1353
45.990      1286
46.000      1506
46.010      1373
46.020      1459
46.030      1573
46.040      1706
46.050      1906
46.060      1853
46.070      1893
46.080      2159
46.090      2046
46.100      2066
46.110      2232
46.120      2312
46.130      2199
46.140      2619
46.150      2592
46.160      2526
46.170      2759
46.180      2712
46.190      2992
46.200      2932
46.210      3039
46.220      2792
46.230      3112
46.240      3072
46.250      3145
46.260      3092
46.270      3139
46.280      3012
46.290      3405
46.300      3159
46.310      3345
46.320      3525
46.330      3205
46.340      3252
46.350      3132
46.360      3092
46.370      3112
46.380      3132
46.390      3112
46.400      2952
46.410      2846
46.420      3185
46.430      2606
46.440      2572
46.450      2692
46.460      2626
46.470      2626
46.480      2646
46.490      2459
46.500      2346
46.510      2279
46.520      2299
46.530      2172
46.540      2046
46.550      2066
46.560      1819
46.570      1779
46.580      1713
46.590      1813
46.600      1706
46.610      1526
46.620      1433
46.630      1373
46.640      1473
46.650      1226
46.660      1226
46.670      1273
46.680      1246
46.690      1113
46.700      1106
46.710      1040
46.720      1146
46.730       960
46.740       893
46.750       846
46.760       766
46.770       793
46.780       693
46.790       680
46.800       720
46.810       653
46.820       700
46.830       553
46.840       620
46.850       526
46.860       553
46.870       520
46.880       400
46.890       407
46.900       460
46.910       493
46.920       413
46.930       440
46.940       340
46.950       407
46.960       393
46.970       287
46.980       440
46.990       453
47.000       253
47.010       440
47.020       287
47.030       260
47.040       267
47.050       260
47.060       287
47.070       287
47.080       313
47.090       287
47.100       260
47.110       220
47.120       200
47.130       300
47.140       187
47.150       287
47.160       273
47.170       187
47.180       267
47.190       213
47.200       153
47.210       213
47.220       107
47.230       153
47.240        67
47.250       113
47.260       140
47.270       133
47.280       120
47.290       160
47.300       153
47.310       153
47.320       160
47.330       113
47.340       120
47.350       140
47.360       107
47.370       133
47.380       153
47.390       113
47.400       127
47.410       113
47.420       113
47.430       100
47.440        87
47.450       147
47.460        67
47.470        93
47.480       153
47.490        80
47.500       113
47.510        80
47.520        80
47.530        53
47.540       140
47.550        80
47.560       120
47.570        53
47.580        87
47.590        73
47.600       100
47.610        80
47.620        67
47.630       113
47.640        87
47.650       107
47.660        80
47.670        73
47.680        93
47.690        80
47.700        67
47.710        33
47.720        73
47.730        67
47.740        27
47.750        87
47.760       127
47.770       100
47.780        80
47.790        80
47.800        67
47.810       107
47.820        53
47.830        87
47.840        67
47.850        47
47.860        47
47.870        67
47.880        27
47.890       113
47.900        47
47.910        87
47.920        67
47.930        53
47.940        53
47.950        60
47.960        60
47.970        80
47.980        67
47.990        47
48.000        33
48.010        47
48.020       113
48.030        53
48.040        47
48.050        40
48.060        73
48.070        47
48.080        53
48.090        73
48.100        53
48.110        47
48.120        40
48.130        53
48.140        47
48.150        73
48.160        87
48.170        73
48.180        67
48.190        53
48.200        33
48.210        47
48.220        40
48.230        20
48.240        73
48.250        40
48.260        60
48.270        60
48.280        47
48.290        40
48.300        53
48.310        40
48.320        47
48.330        53
48.340        33
48.350        60
48.360        60
48.370        53
48.380        53
48.390        73
48.400        27
48.410        67
48.420        53
48.430        73
48.440        53
48.450        33
48.460        60
48.470        53
48.480        93
48.490        80
48.500        47
48.510        67
48.520        60
48.530        33
48.540        47
48.550        67
48.560        87
48.570        40
48.580        60
48.590        53
48.600        60
48.610        53
48.620        53
48.630        47
48.640        47
48.650        33
48.660        33
48.670        60
48.680        27
48.690        27
48.700        40
48.710        47
48.720        40
48.730        47
48.740        27
48.750        33
48.760        60
48.770        53
48.780        27
48.790        47
48.800        27
48.810        47
48.820        47
48.830        47
48.840        60
48.850         7
48.860        27
48.870        67
48.880        60
48.890        27
48.900        73
48.910        40
48.920        13
48.930        33
48.940        67
48.950        47
48.960        13
48.970         7
48.980        40
48.990        47
49.000        47
49.010        20
49.020        47
49.030        33
49.040        33
49.050        27
49.060        13
49.070        33
49.080        27
49.090        40
49.100        20
49.110        47
49.120        33
49.130        27
49.140        40
49.150        73
49.160        20
49.170        13
49.180        40
49.190        40
49.200        53
49.210        40
49.220         7
49.230        20
49.240        13
49.250        27
49.260        47
49.270        60
49.280        33
49.290        27
49.300        40
49.310        47
49.320        40
49.330        20
49.340        33
49.350        27
49.360        40
49.370        33
49.380        13
49.390        33
49.400        27
49.410        40
49.420        47
49.430        40
49.440        20
49.450        33
49.460        20
49.470        33
49.480        53
49.490        60
49.500        27
49.510        13
49.520        47
49.530        27
49.540        47
49.550        27
49.560        27
49.570        47
49.580        33
49.590         0
49.600         7
49.610        20
49.620        27
49.630        53
49.640        33
49.650        67
49.660        13
49.670        33
49.680        47
49.690        40
49.700        27
49.710        27
49.720        47
49.730        13
49.740        20
49.750        40
49.760        53
49.770        47
49.780         7
49.790        33
49.800         7
49.810        27
49.820        20
49.830        27
49.840        60
49.850        33
49.860        40
49.870        47
49.880        27
49.890        53
49.900        33
49.910        20
49.920        53
49.930        33
49.940        27
49.950        47
49.960        40
49.970        33
49.980        40
49.990        33
50.000        33
50.010        47
50.020        27
50.030        47
50.040        27
50.050        13
50.060        40
50.070        13
50.080        53
50.090        27
50.100        27
50.110        27
50.120        33
50.130        47
50.140        53
50.150        27
50.160        53
50.170        20
50.180        27
50.190        20
50.200        47
50.210        53
50.220        27
50.230        20
50.240        53
50.250        40
50.260        53
50.270        47
50.280        40
50.290         7
50.300        33
50.310        47
50.320        47
50.330        33
50.340        40
50.350        27
50.360        33
50.370        20
50.380        27
50.390        13
50.400        53
50.410        53
50.420        40
50.430        47
50.440        20
50.450        33
50.460        13
50.470        20
50.480        67
50.490        47
50.500        20
50.510        40
50.520        33
50.530        60
50.540        27
50.550        47
50.560        47
50.570        47
50.580         7
50.590        33
50.600        60
50.610        20
50.620        47
50.630        40
50.640        13
50.650        13
50.660        27
50.670        20
50.680        27
50.690        33
50.700        53
50.710        40
50.720        20
50.730        33
50.740        33
50.750        53
50.760        53
50.770        33
50.780        40
50.790        33
50.800        13
50.810        40
50.820        40
50.830        47
50.840        80
50.850        47
50.860        33
50.870        20
50.880        40
50.890        33
50.900        60
50.910        60
50.920        13
50.930        27
50.940        40
50.950        33
50.960        20
50.970        40
50.980        20
50.990        33
51.000        27
51.010        47
51.020        20
51.030        80
51.040        33
51.050        27
51.060        20
51.070        33
51.080        33
51.090        40
51.100        27
51.110        27
51.120        33
51.130        13
51.140        47
51.150        87
51.160        53
51.170        13
51.180        47
51.190        47
51.200        33
51.210        47
51.220        13
51.230        27
51.240        53
51.250        13
51.260        27
51.270        33
51.280        20
51.290        27
51.300        33
51.310        27
51.320        53
51.330         7
51.340         7
51.350        47
51.360        13
51.370        40
51.380        60
51.390        33
51.400        33
51.410        40
51.420        40
51.430        33
51.440        47
51.450        53
51.460        40
51.470        33
51.480        67
51.490        20
51.500        20
51.510        53
51.520        47
51.530        60
51.540         7
51.550        87
51.560        67
51.570        47
51.580         7
51.590        20
51.600        33
51.610        27
51.620        93
51.630        60
51.640        33
51.650        60
51.660        13
51.670        40
51.680        73
51.690        47
51.700        27
51.710        27
51.720        60
51.730        80
51.740        33
51.750        33
51.760        60
51.770        47
51.780        67
51.790        40
51.800        20
51.810        53
51.820        27
51.830        73
51.840        40
51.850        40
51.860        47
51.870        67
51.880        13
51.890        33
51.900        47
51.910        93
51.920        67
51.930        33
51.940        40
51.950        33
51.960        73
51.970        13
51.980        33
51.990        60
52.000        93
52.010        67
52.020        87
52.030        33
52.040        53
52.050        60
52.060        93
52.070        73
52.080        40
52.090        60
52.100        67
52.110        33
52.120        60
52.130       113
52.140        80
52.150        80
52.160        73
52.170        73
52.180        73
52.190        87
52.200       100
52.210       120
52.220       153
52.230       100
52.240        80
52.250       160
52.260       193
52.270       227
52.280       300
52.290       307
52.300       446
52.310       480
52.320       606
52.330       586
52.340       720
52.350       846
52.360       940
52.370       886
52.380       940
52.390      1200
52.400      1086
52.410      1086
52.420      1126
52.430      1133
52.440       940
52.450       973
52.460       973
52.470       953
52.480       733
52.490       786
52.500       840
52.510       793
52.520       880
52.530       833
52.540       760
52.550       646
52.560       620
52.570       726
52.580       753
52.590       580
52.600       606
52.610       626
52.620       500
52.630       460
52.640       340
52.650       347
52.660       207
52.670       187
52.680       167
52.690       133
52.700       213
52.710       120
52.720       180
52.730       180
52.740       160
52.750       227
52.760       147
52.770       120
52.780       133
52.790       140
52.800        80
52.810       107
52.820        80
52.830        40
52.840        67
52.850        67
52.860        47
52.870        87
52.880        93
52.890        87
52.900        73
52.910        73
52.920        27
52.930        67
52.940        60
52.950       100
52.960        60
52.970        53
52.980        40
52.990        73
53.000        73
53.010        60
53.020        73
53.030        67
53.040        47
53.050        47
53.060        47
53.070        53
53.080        40
53.090        47
53.100        53
53.110        47
53.120        67
53.130        60
53.140        53
53.150        60
53.160        60
53.170        47
53.180        87
53.190        33
53.200        33
53.210        87
53.220        47
53.230        20
53.240        80
53.250        53
53.260        60
53.270        20
53.280        33
53.290        67
53.300        60
53.310        60
53.320        40
53.330        60
53.340        53
53.350        40
53.360        53
53.370        47
53.380        27
53.390        60
53.400        47
53.410        27
53.420        67
53.430        47
53.440        73
53.450        80
53.460        20
53.470        60
53.480        47
53.490        13
53.500        27
53.510        40
53.520        40
53.530        40
53.540        47
53.550        33
53.560        40
53.570        53
53.580        53
53.590        80
53.600        20
53.610        73
53.620        40
53.630        33
53.640        27
53.650        33
53.660        47
53.670        67
53.680        60
53.690        67
53.700        73
53.710        60
53.720        33
53.730        33
53.740        20
53.750        40
53.760        33
53.770        67
53.780        27
53.790        40
53.800        13
53.810        13
53.820        20
53.830        33
53.840        73
53.850        40
53.860        27
53.870        47
53.880        20
53.890         7
53.900        60
53.910        67
53.920        20
53.930        47
53.940        67
53.950        33
53.960        47
53.970        53
53.980        20
53.990        60
54.000        33
54.010        47
54.020        53
54.030        47
54.040        47
54.050        27
54.060        27
54.070        13
54.080        27
54.090        33
54.100        33
54.110        27
54.120        27
54.130        47
54.140        27
54.150        20
54.160        40
54.170        40
54.180        53
54.190        40
54.200        13
54.210        20
54.220        27
54.230        73
54.240        27
54.250        40
54.260        40
54.270        33
54.280        33
54.290        33
54.300        33
54.310        40
54.320        53
54.330        27
54.340        13
54.350        60
54.360        33
54.370        13
54.380        40
54.390        53
54.400        40
54.410        20
54.420        20
54.430        40
54.440        33
54.450        27
54.460        13
54.470        20
54.480        20
54.490        27
54.500        40
54.510        33
54.520        20
54.530        27
54.540        33
54.550       113
54.560        13
54.570        27
54.580        73
54.590        27
54.600        20
54.610        20
54.620        20
54.630        13
54.640        33
54.650        33
54.660        53
54.670        47
54.680        33
54.690         7
54.700        40
54.710        40
54.720        33
54.730        33
54.740        13
54.750        33
54.760        40
54.770         7
54.780        13
54.790         7
54.800        20
54.810        20
54.820        40
54.830        13
54.840        20
54.850        60
54.860        47
54.870        13
54.880        33
54.890        67
54.900        13
54.910        27
54.920        13
54.930        27
54.940        47
54.950        20
54.960        33
54.970        20
54.980        13
54.990        20
55.000        27
55.010        40
55.020        20
55.030        13
55.040        53
55.050        13
55.060        33
55.070        33
55.080        40
55.090        40
55.100        27
55.110         7
55.120        20
55.130        40
55.140        20
55.150        47
55.160        20
55.170        13
55.180        20
55.190         7
55.200        20
55.210        60
55.220        20
55.230        33
55.240        40
55.250        20
55.260        13
55.270        27
55.280         7
55.290         7
55.300        47
55.310        13
55.320         7
55.330        13
55.340        33
55.350        47
55.360        20
55.370        33
55.380        27
55.390        40
55.400        40
55.410        40
55.420        67
55.430        40
55.440        20
55.450        20
55.460        27
55.470        33
55.480        20
55.490        20
55.500        27
55.510         0
55.520        27
55.530        33
55.540        20
55.550         0
55.560        20
55.570        33
55.580        40
55.590        40
55.600        27
55.610        53
55.620        13
55.630        47
55.640        40
55.650         7
55.660         7
55.670        20
55.680         0
55.690         7
55.700         0
55.710        40
55.720        40
55.730        13
55.740        47
55.750        13
55.760        13
55.770        20
55.780         7
55.790        20
55.800        33
55.810        13
55.820        20
55.830        20
55.840        40
55.850        40
55.860        20
55.870        33
55.880        20
55.890        20
55.900        13
55.910        20
55.920        27
55.930        53
55.940        40
55.950        33
55.960        33
55.970         7
55.980        20
55.990        47
56.000        20
56.010        27
56.020        40
56.030        47
56.040        40
56.050        20
56.060        20
56.070        33
56.080        33
56.090        27
56.100        13
56.110        13
56.120        27
56.130        20
56.140        40
56.150         7
56.160        33
56.170         0
56.180        13
56.190        20
56.200        33
56.210        20
56.220        33
56.230        27
56.240        33
56.250        13
56.260        13
56.270        20
56.280        20
56.290        13
56.300        53
56.310        33
56.320        20
56.330         0
56.340        27
56.350        40
56.360        27
56.370        33
56.380        27
56.390        27
56.400         0
56.410        20
56.420        20
56.430        20
56.440        33
56.450        20
56.460        20
56.470        13
56.480        20
56.490        27
56.500        20
56.510        27
56.520        27
56.530        40
56.540        20
56.550        13
56.560         7
56.570        40
56.580        33
56.590        47
56.600        27
56.610         7
56.620        33
56.630        27
56.640        27
56.650        27
56.660        20
56.670        27
56.680        20
56.690        13
56.700        20
56.710        53
56.720        53
56.730        33
56.740        33
56.750         7
56.760        13
56.770         7
56.780        33
56.790        20
56.800         7
56.810         7
56.820        20
56.830        20
56.840        20
56.850        47
56.860        33
56.870         0
56.880        13
56.890        20
56.900        27
56.910        13
56.920         7
56.930        13
56.940        33
56.950         7
56.960        20
56.970        47
56.980        13
56.990        20
57.000        20
57.010        27
57.020         7
57.030        13
57.040        33
57.050        27
57.060        27
57.070        20
57.080         0
57.090        27
57.100        40
57.110         7
57.120        20
57.130        13
57.140         7
57.150        33
57.160         0
57.170        40
57.180        27
57.190        13
57.200         7
57.210        20
57.220        33
57.230        27
57.240        27
57.250        27
57.260        27
57.270         7
57.280        20
57.290        47
57.300        20
57.310        27
57.320        40
57.330        27
57.340        33
57.350        13
57.360        40
57.370         0
57.380        27
57.390        20
57.400        33
57.410        33
57.420        60
57.430        33
57.440        27
57.450        13
57.460        20
57.470        27
57.480        13
57.490        40
57.500        20
57.510        33
57.520        27
57.530        20
57.540        20
57.550        13
57.560        40
57.570         7
57.580        27
57.590        20
57.600        27
57.610        53
57.620        13
57.630        27
57.640        33
57.650        27
57.660         0
57.670         7
57.680        13
57.690         7
57.700        27
57.710         7
57.720        20
57.730        27
57.740        33
57.750        27
57.760        13
57.770        20
57.780        13
57.790        13
57.800        13
57.810        20
57.820        33
57.830        13
57.840         7
57.850        27
57.860        27
57.870        40
57.880        27
57.890        13
57.900        33
57.910        13
57.920        20
57.930        27
57.940        27
57.950        40
57.960        20
57.970        27
57.980        20
57.990        20
58.000         7
58.010        13
58.020        20
58.030        20
58.040        20
58.050        13
58.060        33
58.070        27
58.080        27
58.090        13
58.100        20
58.110        27
58.120        20
58.130        13
58.140        40
58.150        13
58.160        33
58.170        27
58.180        40
58.190         0
58.200        20
58.210        20
58.220        13
58.230        47
58.240         0
58.250        13
58.260        20
58.270        13
58.280        20
58.290        13
58.300        20
58.310        20
58.320        20
58.330         0
58.340        27
58.350        27
58.360        27
58.370        13
58.380        13
58.390        27
58.400        13
58.410        20
58.420        20
58.430        20
58.440         7
58.450        13
58.460        20
58.470        47
58.480         7
58.490        40
58.500         0
58.510        47
58.520        20
58.530         0
58.540         7
58.550        47
58.560        13
58.570         7
58.580        20
58.590         0
58.600        27
58.610        27
58.620        27
58.630        13
58.640         7
58.650        33
58.660         0
58.670        27
58.680        20
58.690        20
58.700        40
58.710        47
58.720        13
58.730         7
58.740         7
58.750         7
58.760        33
58.770        20
58.780        27
58.790         7
58.800        20
58.810        13
58.820        20
58.830        20
58.840        20
58.850         0
58.860        20
58.870        20
58.880        20
58.890        27
58.900        13
58.910        33
58.920         7
58.930        27
58.940         7
58.950         0
58.960         0
58.970        13
58.980        20
58.990        27
59.000        27
59.010        27
59.020         0
59.030         7
59.040        20
59.050        27
59.060        20
59.070        33
59.080        47
59.090         7
59.100        27
59.110        13
59.120        20
59.130        27
59.140        27
59.150        13
59.160        27
59.170        20
59.180         7
59.190        13
59.200        13
59.210         7
59.220         7
59.230        20
59.240         0
59.250         0
59.260        33
59.270         0
59.280        27
59.290        13
59.300        27
59.310         7
59.320        13
59.330         7
59.340        13
59.350        20
59.360        33
59.370         7
59.380        53
59.390         7
59.400        53
59.410        40
59.420        20
59.430        27
59.440        27
59.450         7
59.460        47
59.470        20
59.480         7
59.490        27
59.500         7
59.510        13
59.520        13
59.530        27
59.540        20
59.550        13
59.560        13
59.570         7
59.580         7
59.590         7
59.600        13
59.610        20
59.620         7
59.630         0
59.640         7
59.650        13
59.660        13
59.670        20
59.680        13
59.690        20
59.700        13
59.710         7
59.720        33
59.730        13
59.740        13
59.750        13
59.760        27
59.770        13
59.780         0
59.790         0
59.800        27
59.810        13
59.820        13
59.830        13
59.840        20
59.850         0
59.860        20
59.870        13
59.880        33
59.890        20
59.900        20
59.910        20
59.920        13
59.930        53
59.940         7
59.950        20
59.960        13
59.970        20
59.980        20
59.990        27
60.000        27
