20.000        60
20.010        53
20.020        20
20.030        40
20.040        33
20.050        73
20.060        73
20.070        73
20.080        47
20.090        40
20.100        53
20.110        40
20.120        47
20.130        53
20.140        40
20.150        53
20.160        27
20.170        60
20.180        33
20.190        27
20.200        40
20.210        67
20.220        27
20.230        40
20.240        47
20.250        13
20.260        20
20.270        60
20.280        27
20.290        87
20.300        60
20.310        33
20.320        27
20.330        33
20.340        47
20.350        40
20.360        33
20.370        20
20.380        13
20.390        60
20.400        27
20.410        60
20.420        53
20.430        33
20.440        73
20.450        53
20.460        60
20.470        40
20.480        40
20.490        53
20.500        20
20.510        53
20.520        53
20.530        33
20.540        40
20.550        47
20.560        47
20.570        20
20.580        33
20.590        20
20.600        60
20.610        47
20.620        73
20.630        67
20.640        33
20.650        47
20.660        33
20.670        73
20.680        47
20.690        27
20.700        53
20.710        33
20.720        60
20.730        27
20.740        47
20.750        33
20.760        87
20.770        20
20.780        53
20.790         7
20.800        33
20.810        40
20.820        47
20.830        47
20.840        33
20.850        47
20.860        53
20.870        47
20.880        20
20.890        33
20.900        20
20.910        33
20.920        27
20.930        67
20.940        47
20.950        27
20.960        67
20.970        40
20.980        47
20.990        33
21.000        47
21.010        40
21.020        20
21.030        33
21.040        27
21.050        53
21.060        33
21.070        47
21.080        13
21.090        20
21.100        47
21.110        47
21.120        40
21.130        47
21.140        40
21.150        47
21.160        27
21.170        47
21.180        47
21.190        53
21.200        73
21.210        40
21.220        67
21.230         7
21.240        53
21.250        20
21.260        67
21.270        67
21.280        60
21.290        40
21.300        33
21.310        53
21.320        60
21.330        40
21.340        47
21.350        47
21.360        47
21.370        27
21.380        20
21.390        40
21.400        60
21.410        60
21.420        20
21.430        47
21.440        40
21.450        27
21.460        53
21.470        33
21.480        27
21.490        33
21.500        47
21.510        80
21.520        27
21.530        53
21.540        27
21.550        40
21.560        53
21.570        40
21.580        40
21.590        40
21.600        60
21.610        67
21.620        40
21.630        40
21.640        27
21.650        20
21.660        47
21.670        60
21.680        40
21.690        47
21.700        27
21.710        20
21.720        73
21.730        73
21.740        73
21.750        40
21.760        33
21.770        33
21.780        40
21.790        27
21.800        60
21.810        33
21.820        27
21.830        40
21.840        47
21.850        47
21.860        47
21.870        33
21.880        53
21.890        33
21.900        20
21.910        47
21.920        27
21.930        53
21.940        33
21.950        20
21.960        47
21.970        33
21.980        27
21.990        73
22.000        33
22.010        53
22.020        67
22.030        47
22.040        33
22.050        20
22.060         7
22.070        40
22.080        47
22.090        47
22.100        87
22.110        73
22.120        40
22.130        33
22.140         0
22.150        73
22.160        33
22.170        87
22.180        47
22.190        27
22.200        20
22.210        53
22.220        33
22.230        27
22.240        60
22.250        40
22.260        40
22.270        60
22.280        13
22.290        47
22.300        27
22.310        67
22.320        47
22.330        33
22.340        93
22.350        67
22.360        73
22.370        73
22.380       113
22.390        47
22.400        93
22.410        93
22.420        87
22.430        93
22.440        93
22.450        80
22.460        73
22.470       113
22.480        93
22.490       160
22.500        80
22.510       207
22.520       167
22.530       233
22.540       160
22.550       213
22.560       193
22.570       193
22.580       260
22.590       180
22.600       280
22.610       273
22.620       327
22.630       367
22.640       307
22.650       433
22.660       420
22.670       273
22.680       260
22.690       340
22.700       273
22.710       333
22.720       360
22.730       347
22.740       327
22.750       273
22.760       280
22.770       287
22.780       187
22.790       260
22.800       227
22.810       260
22.820       213
22.830       180
22.840       180
22.850       200
22.860       153
22.870       120
22.880       167
22.890        73
22.900       113
22.910       107
22.920       160
22.930        80
22.940       100
22.950        40
22.960       113
22.970       253
22.980       127
22.990       120
23.000        93
23.010        87
23.020        73
23.030        73
23.040        93
23.050       107
23.060        73
23.070        53
23.080        80
23.090        53
23.100        67
23.110        93
23.120        87
23.130        80
23.140        33
23.150        27
23.160        40
23.170        60
23.180        33
23.190        53
23.200        40
23.210        60
23.220        40
23.230        13
23.240        67
23.250        53
23.260        40
23.270        60
23.280        47
23.290        87
23.300        33
23.310        73
23.320        33
23.330        40
23.340        40
23.350        33
23.360        47
23.370        80
23.380        40
23.390        40
23.400        53
23.410        33
23.420        60
23.430        33
23.440        67
23.450        33
23.460        67
23.470        53
23.480        33
23.490        53
23.500        67
23.510        40
23.520        40
23.530        73
23.540        47
23.550        40
23.560        47
23.570        53
23.580        27
23.590        47
23.600        87
23.610        53
23.620        40
23.630        40
23.640        33
23.650        60
23.660        53
23.670        60
23.680        67
23.690        60
23.700        40
23.710        40
23.720        60
23.730        33
23.740        60
23.750        27
23.760        13
23.770        47
23.780        40
23.790        13
23.800        53
23.810        13
23.820        27
23.830        27
23.840        27
23.850        20
23.860        73
23.870        67
23.880        47
23.890        53
23.900        73
23.910        40
23.920        33
23.930        67
23.940        27
23.950        13
23.960        33
23.970        27
23.980        33
23.990        33
24.000        33
24.010        27
24.020        60
24.030        47
24.040        60
24.050        33
24.060        40
24.070        60
24.080        47
24.090        33
24.100        27
24.110        13
24.120        53
24.130        27
24.140        13
24.150        20
24.160        47
24.170        27
24.180        33
24.190        20
24.200        47
24.210        20
24.220        33
24.230        33
24.240        53
24.250        53
24.260        20
24.270        40
24.280        67
24.290        40
24.300        33
24.310        40
24.320        27
24.330        20
24.340        33
24.350        40
24.360        20
24.370        33
24.380        33
24.390         7
24.400         7
24.410        40
24.420        40
24.430        53
24.440        27
24.450        73
24.460        20
24.470        47
24.480        40
24.490        20
24.500        27
24.510        47
24.520         7
24.530        27
24.540        20
24.550        47
24.560        33
24.570        40
24.580        20
24.590        27
24.600        27
24.610        47
24.620        40
24.630        47
24.640        40
24.650        47
24.660        27
24.670        33
24.680        60
24.690        40
24.700        33
24.710        60
24.720         7
24.730        33
24.740        47
24.750        67
24.760        67
24.770        27
24.780        60
24.790        60
24.800        33
24.810        33
24.820        40
24.830        27
24.840        33
24.850        40
24.860        40
24.870        40
24.880        67
24.890        33
24.900        20
24.910        40
24.920        33
24.930        20
24.940        40
24.950        60
24.960        33
24.970        40
24.980        33
24.990        47
25.000        40
25.010        20
25.020        40
25.030        53
25.040        20
25.050        40
25.060        40
25.070        60
25.080        33
25.090        40
25.100        20
25.110        47
25.120        33
25.130        47
25.140        33
25.150        53
25.160        73
25.170        53
25.180        53
25.190        40
25.200        40
25.210        53
25.220        20
25.230        27
25.240        27
25.250        20
25.260        27
25.270        47
25.280        27
25.290        47
25.300        33
25.310        27
25.320        33
25.330        40
25.340        27
25.350        27
25.360        40
25.370        20
25.380        27
25.390         7
25.400        33
25.410        40
25.420        27
25.430        40
25.440        33
25.450        27
25.460        27
25.470        33
25.480        47
25.490        33
25.500        67
25.510        67
25.520        13
25.530        33
25.540        27
25.550        47
25.560        73
25.570        40
25.580        47
25.590        27
25.600        20
25.610        40
25.620        60
25.630        67
25.640        47
25.650        33
25.660        13
25.670        53
25.680        67
25.690        53
25.700        20
25.710        47
25.720        53
25.730        40
25.740        73
25.750        27
25.760        53
25.770        53
25.780        27
25.790        20
25.800        60
25.810        53
25.820        60
25.830        40
25.840        53
25.850        53
25.860        47
25.870        13
25.880        47
25.890        73
25.900        20
25.910        67
25.920        33
25.930        20
25.940        47
25.950        40
25.960        87
25.970        47
25.980        33
25.990        20
26.000        27
26.010        27
26.020        27
26.030        47
26.040        27
26.050        53
26.060        20
26.070        40
26.080        27
26.090        33
26.100        40
26.110        13
26.120        33
26.130        27
26.140        20
26.150        33
26.160        27
26.170        73
26.180        27
26.190        40
26.200        33
26.210        27
26.220        27
26.230        47
26.240        53
26.250        33
26.260        13
26.270         7
26.280        27
26.290        47
26.300        47
26.310        53
26.320        60
26.330        27
26.340        20
26.350        20
26.360        33
26.370        27
26.380        40
26.390        27
26.400        33
26.410        67
26.420        40
26.430        60
26.440        20
26.450        40
26.460        40
26.470        47
26.480        47
26.490        40
26.500        27
26.510        53
26.520        40
26.530        33
26.540        20
26.550        40
26.560        33
26.570        27
26.580        13
26.590        27
26.600        27
26.610        33
26.620        13
26.630        33
26.640        47
26.650        20
26.660        20
26.670        40
26.680        20
26.690        27
26.700        53
26.710        20
26.720        20
26.730        27
26.740        33
26.750        40
26.760        47
26.770        40
26.780        13
26.790        33
26.800        27
26.810        27
26.820        33
26.830        33
26.840        13
26.850        20
26.860        53
26.870        67
26.880        40
26.890        53
26.900        33
26.910        13
26.920        80
26.930        20
26.940        40
26.950        20
26.960        40
26.970        27
26.980        47
26.990        47
27.000        40
27.010        13
27.020        20
27.030        40
27.040        13
27.050        20
27.060        27
27.070        20
27.080        27
27.090        27
27.100         7
27.110        40
27.120        33
27.130        47
27.140        33
27.150        47
27.160        13
27.170        20
27.180        33
27.190        20
27.200        60
27.210        60
27.220        13
27.230        47
27.240        47
27.250        33
27.260        33
27.270        27
27.280        47
27.290        13
27.300         7
27.310        27
27.320        13
27.330        47
27.340        20
27.350        47
27.360        33
27.370        13
27.380        40
27.390        27
27.400        40
27.410        33
27.420        47
27.430        47
27.440        20
27.450        33
27.460        27
27.470        40
27.480        47
27.490        47
27.500        27
27.510        40
27.520        33
27.530        20
27.540        47
27.550        27
27.560        33
27.570        13
27.580        13
27.590         7
27.600        60
27.610        27
27.620        40
27.630        33
27.640        13
27.650        20
27.660        40
27.670        20
27.680        47
27.690        60
27.700        33
27.710        33
27.720        27
27.730        13
27.740        27
27.750        40
27.760        40
27.770        27
27.780        27
27.790        53
27.800        13
27.810        20
27.820        53
27.830        33
27.840        27
27.850         7
27.860        33
27.870        33
27.880         7
27.890        60
27.900        20
27.910        13
27.920        33
27.930        27
27.940        27
27.950        60
27.960        33
27.970        27
27.980        47
27.990        27
28.000        47
28.010        47
28.020        47
28.030        47
28.040        20
28.050        40
28.060        33
28.070         7
28.080        27
28.090        33
28.100        27
28.110        20
28.120        40
28.130         7
28.140        40
28.150        60
28.160        20
28.170        27
28.180        33
28.190        13
28.200        13
28.210        27
28.220         0
28.230        33
28.240        27
28.250        13
28.260        33
28.270        53
28.280        27
28.290        47
28.300        33
28.310        20
28.320        27
28.330        33
28.340        40
28.350        27
28.360        27
28.370        13
28.380        27
28.390        33
28.400        40
28.410        60
28.420        20
28.430        20
28.440        27
28.450        20
28.460        13
28.470        20
28.480        20
28.490        33
28.500        60
28.510        33
28.520        20
28.530        33
28.540        20
28.550        40
28.560        27
28.570        53
28.580        20
28.590        20
28.600        27
28.610        27
28.620        40
28.630        13
28.640        20
28.650        20
28.660        40
28.670        40
28.680        27
28.690        47
28.700        40
28.710        20
28.720        13
28.730        13
28.740        60
28.750        20
28.760        33
28.770        20
28.780        27
28.790        60
28.800        20
28.810        20
28.820        27
28.830        20
28.840        20
28.850        13
28.860        20
28.870        20
28.880        40
28.890        27
28.900        53
28.910        13
28.920        60
28.930        47
28.940        33
28.950        53
28.960        40
28.970        33
28.980         7
28.990        20
29.000        20
29.010        13
29.020        40
29.030        47
29.040         7
29.050        27
29.060        13
29.070        33
29.080        33
29.090        60
29.100        27
29.110        47
29.120        20
29.130        40
29.140        13
29.150        40
29.160        53
29.170        33
29.180        53
29.190        47
29.200         7
29.210        40
29.220        47
29.230        40
29.240         7
29.250        13
29.260        47
29.270        13
29.280        20
29.290        13
29.300        47
29.310        33
29.320        27
29.330        13
29.340        40
29.350        20
29.360        13
29.370        27
29.380        47
29.390        27
29.400        47
29.410        40
29.420        40
29.430        13
29.440        20
29.450         7
29.460         7
29.470        33
29.480        33
29.490         0
29.500        13
29.510         7
29.520        60
29.530        40
29.540        13
29.550        27
29.560         7
29.570        40
29.580        27
29.590        20
29.600        47
29.610         7
29.620         0
29.630        40
29.640        53
29.650        27
29.660        47
29.670        27
29.680        40
29.690        33
29.700        20
29.710        40
29.720        47
29.730        13
29.740        40
29.750        33
29.760        13
29.770        47
29.780        20
29.790        40
29.800        27
29.810        27
29.820        47
29.830        40
29.840        13
29.850        20
29.860        27
29.870        27
29.880        20
29.890        40
29.900        53
29.910        47
29.920         7
29.930        27
29.940        20
29.950        47
29.960        33
29.970        27
29.980        40
29.990        27
30.000        27
30.010        33
30.020        33
30.030         0
30.040        27
30.050        27
30.060        40
30.070        27
30.080         7
30.090        40
30.100        40
30.110         7
30.120        20
30.130        40
30.140         7
30.150        20
30.160        33
30.170        27
30.180        40
30.190        20
30.200         7
30.210        13
30.220        33
30.230         0
30.240        47
30.250        27
30.260        13
30.270        53
30.280        47
30.290        33
30.300         7
30.310        27
30.320         7
30.330        27
30.340        27
30.350        13
30.360         7
30.370        40
30.380        33
30.390        13
30.400        20
30.410        47
30.420        27
30.430        47
30.440        13
30.450        47
30.460         0
30.470        27
30.480        40
30.490         7
30.500        20
30.510        40
30.520        33
30.530        13
30.540        53
30.550        27
30.560        60
30.570        27
30.580        33
30.590         7
30.600         7
30.610        13
30.620        20
30.630         7
30.640        27
30.650        13
30.660         7
30.670        20
30.680        27
30.690        33
30.700        33
30.710        20
30.720        13
30.730        20
30.740        13
30.750         0
30.760        20
30.770        27
30.780        33
30.790        33
30.800        47
30.810        27
30.820        20
30.830        33
30.840        20
30.850        47
30.860        53
30.870        13
30.880        13
30.890        40
30.900        27
30.910        33
30.920        67
30.930        20
30.940         7
30.950        27
30.960        53
30.970        13
30.980        33
30.990         7
31.000        33
31.010        20
31.020        47
31.030        33
31.040        27
31.050        13
31.060         7
31.070        33
31.080        53
31.090        40
31.100        20
31.110        40
31.120        27
31.130        33
31.140        33
31.150        40
31.160        33
31.170        27
31.180         7
31.190        27
31.200         7
31.210        13
31.220        27
31.230        33
31.240        27
31.250        20
31.260        20
31.270        33
31.280        27
31.290        40
31.300        20
31.310        13
31.320        27
31.330        27
31.340         0
31.350        33
31.360        13
31.370         7
31.380        13
31.390        20
31.400        13
31.410        40
31.420        27
31.430        33
31.440        53
31.450        40
31.460        20
31.470        13
31.480        27
31.490        33
31.500        20
31.510        47
31.520        40
31.530        40
31.540        27
31.550        40
31.560        47
31.570        27
31.580        40
31.590        47
31.600        73
31.610        47
31.620        47
31.630        27
31.640        33
31.650        33
31.660        40
31.670         7
31.680        47
31.690        40
31.700        20
31.710        27
31.720        47
31.730        40
31.740        33
31.750        13
31.760        20
31.770        13
31.780        27
31.790        33
31.800        40
31.810        33
31.820        47
31.830        27
31.840        13
31.850        40
31.860        13
31.870        33
31.880        33
31.890        53
31.900        20
31.910        33
31.920        47
31.930        47
31.940        60
31.950        53
31.960        20
31.970        53
31.980        20
31.990        33
32.000        67
32.010        40
32.020        60
32.030        73
32.040        27
32.050        47
32.060       107
32.070        60
32.080       133
32.090        60
32.100        73
32.110        60
32.120       107
32.130       107
32.140        67
32.150        87
32.160       107
32.170       127
32.180       140
32.190       153
32.200       160
32.210       127
32.220       200
32.230       200
32.240       240
32.250       253
32.260       193
32.270       293
32.280       293
32.290       393
32.300       220
32.310       307
32.320       260
32.330       287
32.340       413
32.350       387
32.360       400
32.370       353
32.380       320
32.390       420
32.400       347
32.410       320
32.420       347
32.430       413
32.440       413
32.450       387
32.460       393
32.470       280
32.480       353
32.490       287
32.500       313
32.510       287
32.520       273
32.530       333
32.540       340
32.550       200
32.560       253
32.570       193
32.580       287
32.590       200
32.600       240
32.610       187
32.620       160
32.630       187
32.640       107
32.650       113
32.660       140
32.670       120
32.680       147
32.690       173
32.700        87
32.710       127
32.720        87
32.730        60
32.740        80
32.750        80
32.760        87
32.770        53
32.780        60
32.790        87
32.800        80
32.810        67
32.820        93
32.830        47
32.840        40
32.850        67
32.860        47
32.870        47
32.880        67
32.890        40
32.900        40
32.910        40
32.920        47
32.930        40
32.940        27
32.950        40
32.960        33
32.970        40
32.980        20
32.990        53
33.000        33
33.010        67
33.020        27
33.030        53
33.040        27
33.050        20
33.060        33
33.070        40
33.080        60
33.090        33
33.100        20
33.110        27
33.120        40
33.130         7
33.140        27
33.150        47
33.160        20
33.170        33
33.180        47
33.190        13
33.200        13
33.210        20
33.220        20
33.230        47
33.240        27
33.250        13
33.260        47
33.270        27
33.280        13
33.290        13
33.300         7
33.310        27
33.320        13
33.330        13
33.340        20
33.350        27
33.360        33
33.370        13
33.380        27
33.390        20
33.400        13
33.410        27
33.420        13
33.430         7
33.440        20
33.450        20
33.460        13
33.470        27
33.480         7
33.490        33
33.500        27
33.510        53
33.520        20
33.530        27
33.540        13
33.550        33
33.560        20
33.570        13
33.580        27
33.590        27
33.600        13
33.610        27
33.620        67
33.630        20
33.640        20
33.650        20
33.660        47
33.670        13
33.680        33
33.690        13
33.700        20
33.710        47
33.720        20
33.730        27
33.740        33
33.750        33
33.760        33
33.770        20
33.780         7
33.790        20
33.800        33
33.810        20
33.820         0
33.830        13
33.840        13
33.850        27
33.860        40
33.870        27
33.880        47
33.890         7
33.900        27
33.910        40
33.920        13
33.930        40
33.940        20
33.950        13
33.960        27
33.970        20
33.980         7
33.990        33
34.000        40
34.010        20
34.020        20
34.030         7
34.040        27
34.050        20
34.060         0
34.070        20
34.080        13
34.090        20
34.100        13
34.110        13
34.120        33
34.130        13
34.140        20
34.150        60
34.160        20
34.170        40
34.180         0
34.190        40
34.200         7
34.210        13
34.220        53
34.230        20
34.240         7
34.250         0
34.260        13
34.270        20
34.280        20
34.290        27
34.300        33
34.310         7
34.320         7
34.330        40
34.340        13
34.350        27
34.360        27
34.370        33
34.380        27
34.390        53
34.400        20
34.410         7
34.420        27
34.430        20
34.440        20
34.450        40
34.460         7
34.470        13
34.480        47
34.490        20
34.500        33
34.510        27
34.520        13
34.530        27
34.540        47
34.550         7
34.560        27
34.570        13
34.580        40
34.590        13
34.600         7
34.610        40
34.620        20
34.630        13
34.640        27
34.650        20
34.660        20
34.670         7
34.680        13
34.690        27
34.700        13
34.710        47
34.720        27
34.730         7
34.740        20
34.750        13
34.760         7
34.770        27
34.780        20
34.790        13
34.800        20
34.810        27
34.820        20
34.830        13
34.840         0
34.850         7
34.860        13
34.870        13
34.880        27
34.890        20
34.900        20
34.910        20
34.920         7
34.930        20
34.940        20
34.950        13
34.960        20
34.970        27
34.980        20
34.990         0
35.000        33
35.010        13
35.020        13
35.030        40
35.040        20
35.050         7
35.060        13
35.070         0
35.080        20
35.090         7
35.100         7
35.110        20
35.120        27
35.130        40
35.140        13
35.150        40
35.160        33
35.170        47
35.180        20
35.190        27
35.200        27
35.210        33
35.220        20
35.230         7
35.240        13
35.250        20
35.260        40
35.270        13
35.280        40
35.290         7
35.300        20
35.310        20
35.320        20
35.330        27
35.340        27
35.350        27
35.360         7
35.370        13
35.380        40
35.390        20
35.400         7
35.410        27
35.420        13
35.430        20
35.440        47
35.450         7
35.460        20
35.470        20
35.480        20
35.490        27
35.500        13
35.510        20
35.520         7
35.530         7
35.540        13
35.550        33
35.560        13
35.570        27
35.580        20
35.590        13
35.600         7
35.610        20
35.620        20
35.630        13
35.640        20
35.650        20
35.660        13
35.670         7
35.680        20
35.690        27
35.700        27
35.710        47
35.720        33
35.730        13
35.740        20
35.750        13
35.760        20
35.770        13
35.780        27
35.790        20
35.800        40
35.810        33
35.820         7
35.830        53
35.840        13
35.850         7
35.860        33
35.870        13
35.880        20
35.890         7
35.900        33
35.910        27
35.920        13
35.930        20
35.940        47
35.950        20
35.960        27
35.970        47
35.980        20
35.990        13
36.000        20
36.010         7
36.020        27
36.030        13
36.040        27
36.050        20
36.060        13
36.070        20
36.080        20
36.090        40
36.100         7
36.110        20
36.120        47
36.130        33
36.140        13
36.150        33
36.160         7
36.170        13
36.180        33
36.190        13
36.200        20
36.210        40
36.220         7
36.230        20
36.240        13
36.250        27
36.260        20
36.270        20
36.280        13
36.290        27
36.300        13
36.310         7
36.320        33
36.330         7
36.340        20
36.350        33
36.360        20
36.370         7
36.380        13
36.390         7
36.400        40
36.410        27
36.420        47
36.430        33
36.440        27
36.450        13
36.460         0
36.470        20
36.480        20
36.490        40
36.500         7
36.510        20
36.520         0
36.530        13
36.540        20
36.550        20
36.560        33
36.570        33
36.580        40
36.590        20
36.600         0
36.610        33
36.620        20
36.630        13
36.640        20
36.650        20
36.660        40
36.670        33
36.680         0
36.690        20
36.700        20
36.710        27
36.720        13
36.730        27
36.740        20
36.750        20
36.760         7
36.770        33
36.780        13
36.790        20
36.800        13
36.810        27
36.820        20
36.830        27
36.840        20
36.850        27
36.860        20
36.870        13
36.880         0
36.890        27
36.900        47
36.910        20
36.920        27
36.930        33
36.940        27
36.950         7
36.960        20
36.970        20
36.980        27
36.990        20
37.000        40
37.010        13
37.020        27
37.030        13
37.040        40
37.050        13
37.060         0
37.070        40
37.080         7
37.090        20
37.100        33
37.110        13
37.120        20
37.130        27
37.140        27
37.150        40
37.160         7
37.170        40
37.180        20
37.190        20
37.200        27
37.210        20
37.220         7
37.230         7
37.240        13
37.250        27
37.260        13
37.270        33
37.280        13
37.290         0
37.300        13
37.310        13
37.320        33
37.330        27
37.340        13
37.350         7
37.360        13
37.370        20
37.380         7
37.390        20
37.400        27
37.410        20
37.420        27
37.430         7
37.440        27
37.450        20
37.460        20
37.470        33
37.480        33
37.490         0
37.500        33
37.510        27
37.520        27
37.530        27
37.540        27
37.550        13
37.560        27
37.570        13
37.580        13
37.590        13
37.600        20
37.610        27
37.620        40
37.630        13
37.640        40
37.650        13
37.660         7
37.670        27
37.680        40
37.690        40
37.700         7
37.710         7
37.720        13
37.730        33
37.740        20
37.750        20
37.760        27
37.770        27
37.780        13
37.790        13
37.800        33
37.810         7
37.820        20
37.830        27
37.840         7
37.850         0
37.860        13
37.870        20
37.880         7
37.890        40
37.900        20
37.910        27
37.920        27
37.930         7
37.940        13
37.950        27
37.960         7
37.970        20
37.980        13
37.990        13
38.000         0
38.010         7
38.020        20
38.030        27
38.040        27
38.050        13
38.060        67
38.070        20
38.080        27
38.090        13
38.100        33
38.110        13
38.120        40
38.130        13
38.140        20
38.150         0
38.160        20
38.170        20
38.180        40
38.190        20
38.200         0
38.210        20
38.220        27
38.230         7
38.240        53
38.250        20
38.260        13
38.270        27
38.280        27
38.290        20
38.300        40
38.310        20
38.320         7
38.330        33
38.340         0
38.350         7
38.360         0
38.370        27
38.380         7
38.390        13
38.400        47
38.410        53
38.420        13
38.430        33
38.440        13
38.450        40
38.460        13
38.470        13
38.480        13
38.490         7
38.500        20
38.510        20
38.520        13
38.530        13
38.540        13
38.550        33
38.560         7
38.570        20
38.580        13
38.590        20
38.600        27
38.610        20
38.620         0
38.630        13
38.640        33
38.650        20
38.660        53
38.670         0
38.680        13
38.690        20
38.700        13
38.710        20
38.720         0
38.730        20
38.740         0
38.750        20
38.760        13
38.770        27
38.780         7
38.790        20
38.800        13
38.810        20
38.820        33
38.830        13
38.840        33
38.850        13
38.860        40
38.870        27
38.880        33
38.890        13
38.900        27
38.910         7
38.920         7
38.930         7
38.940        20
38.950        13
38.960         7
38.970         7
38.980         7
38.990        40
39.000        33
39.010        13
39.020        13
39.030        47
39.040         7
39.050        20
39.060        27
39.070         7
39.080        27
39.090        13
39.100         0
39.110        20
39.120        33
39.130        20
39.140        13
39.150         7
39.160        13
39.170        20
39.180        13
39.190         7
39.200        40
39.210        20
39.220        27
39.230        13
39.240        27
39.250        33
39.260        13
39.270         7
39.280        27
39.290         7
39.300        20
39.310        13
39.320        27
39.330        20
39.340        33
39.350        47
39.360         7
39.370        13
39.380        33
39.390        13
39.400        40
39.410        40
39.420        13
39.430        20
39.440        27
39.450         7
39.460        27
39.470         7
39.480        40
39.490        13
39.500        20
39.510        33
39.520        33
39.530        13
39.540        13
39.550         7
39.560        20
39.570        13
39.580        33
39.590        33
39.600        20
39.610        20
39.620        20
39.630        13
39.640        20
39.650        27
39.660        20
39.670         7
39.680        13
39.690        33
39.700        40
39.710        33
39.720        13
39.730        13
39.740        27
39.750         7
39.760        20
39.770        20
39.780        13
39.790        13
39.800        13
39.810        20
39.820        33
39.830        20
39.840         7
39.850        33
39.860        27
39.870         0
39.880        40
39.890        27
39.900         0
39.910        20
39.920        33
39.930        33
39.940         7
39.950        33
39.960        13
39.970        33
39.980        20
39.990        27
40.000        20
40.010         0
40.020        40
40.030        27
40.040        67
40.050        33
40.060        33
40.070        20
40.080        33
40.090        27
40.100        13
40.110        13
40.120        53
40.130        33
40.140        40
40.150        40
40.160        27
40.170        33
40.180        33
40.190        13
40.200        27
40.210        27
40.220        20
40.230        13
40.240        40
40.250        20
40.260        20
40.270         0
40.280        13
40.290        20
40.300        20
40.310         7
40.320        33
40.330        20
40.340        13
40.350        20
40.360        27
40.370        13
40.380        20
40.390        13
40.400         0
40.410        13
40.420        20
40.430        33
40.440         7
40.450         0
40.460         0
40.470        13
40.480         7
40.490         7
40.500        13
40.510         7
40.520         7
40.530        20
40.540        27
40.550        20
40.560        27
40.570         7
40.580        40
40.590        20
40.600        20
40.610        13
40.620        40
40.630         7
40.640        13
40.650        20
40.660        33
40.670        33
40.680         7
40.690        27
40.700        27
40.710        20
40.720        33
40.730        13
40.740        13
40.750        27
40.760        13
40.770        13
40.780        33
40.790        33
40.800        27
40.810        13
40.820        13
40.830        33
40.840        13
40.850        13
40.860        13
40.870        27
40.880        60
40.890        27
40.900         7
40.910         7
40.920        13
40.930        13
40.940        27
40.950        33
40.960        27
40.970        13
40.980        20
40.990         7
41.000        40
41.010        40
41.020        13
41.030        27
41.040        27
41.050         7
41.060         7
41.070        53
41.080        33
41.090        13
41.100        13
41.110        33
41.120        20
41.130        13
41.140        13
41.150        20
41.160        20
41.170        20
41.180        33
41.190         7
41.200        20
41.210        13
41.220         0
41.230        13
41.240        40
41.250        13
41.260        33
41.270        40
41.280        40
41.290        13
41.300        53
41.310         7
41.320        27
41.330        33
41.340        20
41.350        33
41.360        53
41.370        40
41.380        33
41.390        33
41.400        47
41.410        40
41.420        27
41.430        40
41.440        47
41.450         7
41.460        20
41.470        40
41.480        53
41.490        40
41.500        13
41.510        53
41.520        47
41.530        20
41.540        33
41.550        40
41.560        33
41.570        20
41.580        40
41.590        40
41.600        13
41.610        33
41.620        27
41.630        20
41.640        53
41.650         7
41.660        40
41.670        33
41.680        47
41.690        53
41.700        20
41.710        20
41.720        33
41.730         0
41.740        53
41.750        20
41.760        40
41.770        33
41.780        47
41.790        27
41.800        20
41.810        40
41.820        33
41.830        33
41.840        40
41.850        53
41.860        33
41.870        20
41.880        20
41.890        33
41.900        60
41.910        33
41.920        13
41.930        40
41.940        20
41.950        20
41.960         0
41.970        53
41.980        20
41.990        27
42.000        13
42.010        40
42.020        20
42.030        20
42.040        13
42.050        20
42.060        27
42.070        13
42.080         0
42.090         7
42.100        13
42.110        20
42.120        20
42.130        20
42.140         0
42.150        13
42.160        13
42.170        13
42.180        20
42.190        20
42.200        33
42.210        13
42.220        13
42.230        13
42.240        33
42.250        20
42.260        20
42.270         7
42.280         0
42.290        20
42.300        20
42.310        13
42.320        27
42.330        27
42.340        53
42.350        20
42.360        40
42.370        33
42.380        13
42.390        13
42.400        20
42.410        40
42.420        20
42.430        20
42.440         7
42.450        27
42.460         7
42.470         7
42.480        27
42.490        20
42.500        27
42.510        13
42.520         7
42.530         0
42.540        27
42.550        33
42.560         7
42.570        13
42.580        27
42.590        40
42.600        20
42.610        27
42.620        20
42.630        13
42.640        13
42.650        20
42.660        13
42.670         7
42.680        20
42.690        13
42.700        13
42.710        27
42.720        40
42.730        20
42.740        27
42.750         7
42.760        27
42.770        40
42.780        20
42.790        27
42.800         7
42.810        27
42.820        13
42.830        20
42.840        20
42.850        33
42.860        33
42.870        40
42.880        20
42.890        20
42.900         0
42.910         7
42.920        20
42.930        33
42.940         7
42.950        27
42.960         0
42.970        20
42.980        13
42.990        33
43.000        20
43.010        33
43.020         7
43.030        33
43.040        27
43.050        20
43.060        40
43.070        33
43.080        47
43.090        13
43.100        13
43.110        33
43.120         7
43.130        53
43.140        20
43.150         7
43.160         7
43.170        20
43.180        13
43.190        40
43.200        27
43.210        13
43.220         7
43.230         0
43.240        13
43.250        60
43.260        27
43.270        20
43.280        20
43.290         0
43.300        40
43.310        40
43.320        27
43.330        40
43.340        13
43.350        13
43.360         7
43.370         0
43.380        33
43.390        13
43.400         7
43.410        13
43.420         7
43.430        27
43.440        27
43.450        13
43.460         7
43.470        27
43.480        27
43.490        27
43.500        20
43.510        33
43.520        27
43.530        33
43.540        20
43.550        13
43.560        27
43.570        27
43.580         7
43.590        20
43.600         0
43.610        20
43.620        27
43.630        33
43.640        13
43.650         7
43.660        20
43.670        20
43.680        47
43.690        27
43.700        27
43.710        13
43.720        20
43.730        20
43.740         0
43.750         7
43.760        27
43.770        53
43.780        13
43.790        20
43.800        13
43.810        27
43.820         7
43.830         7
43.840        33
43.850        47
43.860         0
43.870        33
43.880        33
43.890        13
43.900        27
43.910        27
43.920        13
43.930        27
43.940        13
43.950        47
43.960        27
43.970        20
43.980         7
43.990         7
44.000        40
44.010        13
44.020        20
44.030        13
44.040        33
44.050        33
44.060        40
44.070         7
44.080        27
44.090         7
44.100        40
44.110        40
44.120        33
44.130        27
44.140         7
44.150        27
44.160        27
44.170        33
44.180        13
44.190        53
44.200        13
44.210        13
44.220         0
44.230        67
44.240        27
44.250        33
44.260        13
44.270         7
44.280        60
44.290        20
44.300        27
44.310        20
44.320        33
44.330        53
44.340        40
44.350        33
44.360        40
44.370        20
44.380        60
44.390        53
44.400        20
44.410        27
44.420        53
44.430        47
44.440        27
44.450        13
44.460        13
44.470        40
44.480        40
44.490        13
44.500        73
44.510        47
44.520        27
44.530        60
44.540        20
44.550        60
44.560        40
44.570        53
44.580        33
44.590        27
44.600        27
44.610        27
44.620        40
44.630        33
44.640        33
44.650        60
44.660        27
44.670        33
44.680        53
44.690        33
44.700        87
44.710        53
44.720        33
44.730        47
44.740        93
44.750        80
44.760        53
44.770        87
44.780        40
44.790        53
44.800        73
44.810        20
44.820        60
44.830        73
44.840        60
44.850        60
44.860        67
44.870        40
44.880        87
44.890        73
44.900        47
44.910        53
44.920        53
44.930        60
44.940        60
44.950        73
44.960        67
44.970        73
44.980        73
44.990        93
45.000        93
45.010        40
45.020        67
45.030        40
45.040        60
45.050        80
45.060        47
45.070       107
45.080        67
45.090        93
45.100       100
45.110        67
45.120        67
45.130        87
45.140        93
45.150        53
45.160       100
45.170        60
45.180        93
45.190        60
45.200        87
45.210       100
45.220        67
45.230       100
45.240       120
45.250        73
45.260       107
45.270       140
45.280        93
45.290       120
45.300       153
45.310       120
45.320       107
45.330       127
45.340       133
45.350       147
45.360       113
45.370        93
45.380        80
45.390       187
45.400       113
45.410       213
45.420       140
45.430       160
45.440       147
45.450       133
45.460       153
45.470       193
45.480       120
45.490       160
45.500       160
45.510       213
45.520       167
45.530       167
45.540       207
45.550       207
45.560       220
45.570       167
45.580       273
45.590       267
45.600       247
45.610       207
45.620       280
45.630       253
45.640       273
45.650       320
45.660       260
45.670       320
45.680       360
45.690       300
45.700       353
45.710       413
45.720       387
45.730       387
45.740       373
45.750       513
45.760       500
45.770       520
45.780       473
45.790       500
45.800       566
45.810       646
45.820       586
45.830       693
45.840       626
45.850       660
45.860       746
45.870       800
45.880       866
45.890       793
45.900       826
45.910      1020
45.920       840
45.930       973
45.940      1186
45.950      1006
45.960      1106
45.970      1226
45.980      1293
45.990      1279
46.000      1339
46.010      1439
46.020      1220
46.030      1493
46.040      1573
46.050      1786
46.060      1713
46.070      1846
46.080      2026
46.090      2092
46.100      1966
46.110      2212
46.120      2046
46.130      2139
46.140      2192
46.150      2266
46.160      2486
46.170      2599
46.180      2632
46.190      2572
46.200      2699
46.210      2846
46.220      2652
46.230      3052
46.240      2819
46.250      2739
46.260      2692
46.270      2906
46.280      2999
46.290      2839
46.300      2892
46.310      3059
46.320      2906
46.330      2819
46.340      2692
46.350      2706
46.360      2932
46.370      3059
46.380      2839
46.390      2432
46.400      2639
46.410      2792
46.420      2432
46.430      2666
46.440      2346
46.450      2212
46.460      2332
46.470      2239
46.480      2246
46.490      2286
46.500      2239
46.510      2272
46.520      1919
46.530      2013
46.540      1759
46.550      1753
46.560      1606
46.570      1719
46.580      1646
46.590      1486
46.600      1519
46.610      1399
46.620      1353
46.630      1506
46.640      1233
46.650      1133
46.660      1259
46.670      1160
46.680      1053
46.690       966
46.700      1026
46.710      1006
46.720       906
46.730       813
46.740       673
46.750       720
46.760       793
46.770       740
46.780       700
46.790       540
46.800       613
46.810       493
46.820       626
46.830       626
46.840       426
46.850       420
46.860       540
46.870       573
46.880       420
46.890       446
46.900       453
46.910       393
46.920       426
46.930       493
46.940       440
46.950       333
46.960       333
46.970       273
46.980       307
46.990       273
47.000       327
47.010       353
47.020       253
47.030       207
47.040       273
47.050       193
47.060       240
47.070       267
47.080       280
47.090       253
47.100       160
47.110       293
47.120       200
47.130       153
47.140       193
47.150       200
47.160       147
47.170       213
47.180       187
47.190       173
47.200       207
47.210       193
47.220       200
47.230       167
47.240       127
47.250       160
47.260       140
47.270       167
47.280       133
47.290       160
47.300       113
47.310       133
47.320       147
47.330       180
47.340       113
47.350        93
47.360       120
47.370       113
47.380       153
47.390        67
47.400        87
47.410       120
47.420        93
47.430        87
47.440       140
47.450       120
47.460       160
47.470        40
47.480        80
47.490        80
47.500        60
47.510       113
47.520       127
47.530        73
47.540        60
47.550       127
47.560       100
47.570        60
47.580       100
47.590        47
47.600        73
47.610       100
47.620        47
47.630        53
47.640        93
47.650       107
47.660       127
47.670        60
47.680        80
47.690        67
47.700        87
47.710       100
47.720        47
47.730        73
47.740        47
47.750       113
47.760        53
47.770        60
47.780        73
47.790        47
47.800        73
47.810        67
47.820        47
47.830        73
47.840        73
47.850        33
47.860        60
47.870        40
47.880       113
47.890        60
47.900        33
47.910        33
47.920        53
47.930        40
47.940        47
47.950        87
47.960        47
47.970        60
47.980       100
47.990        53
48.000        67
48.010        40
48.020        40
48.030        33
48.040        60
48.050         7
48.060        60
48.070        73
48.080        47
48.090        47
48.100        80
48.110        67
48.120        60
48.130        60
48.140        20
48.150        33
48.160        73
48.170        40
48.180        53
48.190        67
48.200        60
48.210        60
48.220        53
48.230        47
48.240        40
48.250        67
48.260        40
48.270        53
48.280        60
48.290        53
48.300        47
48.310        27
48.320        33
48.330        47
48.340        33
48.350        47
48.360        73
48.370        47
48.380        40
48.390        33
48.400        40
48.410        47
48.420        80
48.430        33
48.440        40
48.450        47
48.460        80
48.470        40
48.480        33
48.490        53
48.500        27
48.510        93
48.520        33
48.530        93
48.540        40
48.550        13
48.560        40
48.570        33
48.580        60
48.590        40
48.600        53
48.610        13
48.620        33
48.630        40
48.640        53
48.650        53
48.660        33
48.670        27
48.680        47
48.690        53
48.700        40
48.710        47
48.720        40
48.730        20
48.740        60
48.750        33
48.760        27
48.770        47
48.780        33
48.790        27
48.800        27
48.810        40
48.820        40
48.830        33
48.840        40
48.850        20
48.860        47
48.870        53
48.880        27
48.890        47
48.900        53
48.910        27
48.920        53
48.930        33
48.940        47
48.950        20
48.960        20
48.970        27
48.980        40
48.990        33
49.000        53
49.010        40
49.020        40
49.030        33
49.040        13
49.050        13
49.060        47
49.070        33
49.080        13
49.090        40
49.100        13
49.110        47
49.120        40
49.130        40
49.140        33
49.150         7
49.160        40
49.170        80
49.180        13
49.190        60
49.200        13
49.210        20
49.220        47
49.230        20
49.240        20
49.250        40
49.260         0
49.270        20
49.280        47
49.290         7
49.300        40
49.310        33
49.320        27
49.330        27
49.340        53
49.350        33
49.360        40
49.370        53
49.380        40
49.390        60
49.400         7
49.410        20
49.420        27
49.430        47
49.440        47
49.450        13
49.460        47
49.470        40
49.480        13
49.490        33
49.500        53
49.510        53
49.520        33
49.530        53
49.540        13
49.550        27
49.560        27
49.570        27
49.580         7
49.590        53
49.600        13
49.610        47
49.620        33
49.630        27
49.640        33
49.650        20
49.660        13
49.670        27
49.680        40
49.690        20
49.700        27
49.710        13
49.720        47
49.730        40
49.740        40
49.750        53
49.760        33
49.770        47
49.780        20
49.790        47
49.800        47
49.810        33
49.820        53
49.830        33
49.840        27
49.850        20
49.860        20
49.870        27
49.880        13
49.890        13
49.900        20
49.910        40
49.920        33
49.930        47
49.940        40
49.950        33
49.960        53
49.970        13
49.980        27
49.990         0
50.000        27
50.010        47
50.020        33
50.030        33
50.040        47
50.050        27
50.060        27
50.070        13
50.080        40
50.090        13
50.100        27
50.110        40
50.120        53
50.130        47
50.140         7
50.150        67
50.160        40
50.170        27
50.180        33
50.190        20
50.200        40
50.210        33
50.220        20
50.230        47
50.240        20
50.250        20
50.260        27
50.270         0
50.280        20
50.290        20
50.300        53
50.310        47
50.320        40
50.330        20
50.340        20
50.350        33
50.360        20
50.370         0
50.380        40
50.390        47
50.400        27
50.410        13
50.420        20
50.430        27
50.440        27
50.450         7
50.460        33
50.470        27
50.480        40
50.490        27
50.500        33
50.510        47
50.520        13
50.530        53
50.540        33
50.550         7
50.560        13
50.570        47
50.580        40
50.590        27
50.600        27
50.610        27
50.620        53
50.630        27
50.640        27
50.650        20
50.660        53
50.670        40
50.680        47
50.690        27
50.700        40
50.710        60
50.720        33
50.730        27
50.740        33
50.750        40
50.760        33
50.770        13
50.780        47
50.790        27
50.800        33
50.810        20
50.820        27
50.830        40
50.840        40
50.850        13
50.860        27
50.870        33
50.880        47
50.890        53
50.900        13
50.910         7
50.920        73
50.930        20
50.940        20
50.950        40
50.960        40
50.970        60
50.980        47
50.990        20
51.000        60
51.010        27
51.020        33
51.030        27
51.040        27
51.050        27
51.060        60
51.070         0
51.080        47
51.090        53
51.100        40
51.110        33
51.120        47
51.130         7
51.140        33
51.150        27
51.160        33
51.170        27
51.180        27
51.190        20
51.200        27
51.210        33
51.220        40
51.230        40
51.240        40
51.250        27
51.260        40
51.270        67
51.280        40
51.290        27
51.300        33
51.310        40
51.320        20
51.330        20
51.340        33
51.350        40
51.360        40
51.370        27
51.380        40
51.390        20
51.400        53
51.410        33
51.420        53
51.430        53
51.440        40
51.450        27
51.460        27
51.470        27
51.480        20
51.490        33
51.500        53
51.510        27
51.520        47
51.530        20
51.540        20
51.550        13
51.560        47
51.570        47
51.580        20
51.590        13
51.600        53
51.610        27
51.620        27
51.630        33
51.640         7
51.650        47
51.660        47
51.670        40
51.680        33
51.690        40
51.700        33
51.710        47
51.720        53
51.730        40
51.740        40
51.750        27
51.760        33
51.770        47
51.780        20
51.790        40
51.800        33
51.810        47
51.820        27
51.830        27
51.840        40
51.850        33
51.860        20
51.870        33
51.880        47
51.890        60
51.900        73
51.910        40
51.920        33
51.930        47
51.940        47
51.950        20
51.960        53
51.970        80
51.980        27
51.990        33
52.000        27
52.010        67
52.020        60
52.030        27
52.040        13
52.050         7
52.060        47
52.070        20
52.080        33
52.090        47
52.100        20
52.110        33
52.120        27
52.130        40
52.140        80
52.150        47
52.160        47
52.170        53
52.180        40
52.190        47
52.200        53
52.210        27
52.220        13
52.230        40
52.240        60
52.250        40
52.260        33
52.270        53
52.280        40
52.290        40
52.300        60
52.310        27
52.320        33
52.330        80
52.340        40
52.350        40
52.360        27
52.370        53
52.380        13
52.390        20
52.400        53
52.410        40
52.420        27
52.430        80
52.440        60
52.450        40
52.460        53
52.470        60
52.480        53
52.490        47
52.500        60
52.510        67
52.520        73
52.530        53
52.540        67
52.550        60
52.560        53
52.570        40
52.580        60
52.590        53
52.600        73
52.610        47
52.620        20
52.630        53
52.640        60
52.650        47
52.660        67
52.670        33
52.680        20
52.690        87
52.700        53
52.710        67
52.720        73
52.730        47
52.740        67
52.750        53
52.760        20
52.770        27
52.780        67
52.790        33
52.800        53
52.810        40
52.820        40
52.830        27
52.840        20
52.850        27
52.860        40
52.870        33
52.880        73
52.890        40
52.900        87
52.910        27
52.920        33
52.930        33
52.940        40
52.950        40
52.960        53
52.970        47
52.980        47
52.990        13
53.000        47
53.010        47
53.020        27
53.030        47
53.040        33
53.050        67
53.060        40
53.070        33
53.080        20
53.090        33
53.100        27
53.110        47
53.120        47
53.130        33
53.140        40
53.150        20
53.160        60
53.170        93
53.180        53
53.190        67
53.200        53
53.210        53
53.220        80
53.230        33
53.240        60
53.250        27
53.260        47
53.270        47
53.280        27
53.290        33
53.300        40
53.310        27
53.320        20
53.330        33
53.340        40
53.350        33
53.360        47
53.370        27
53.380        20
53.390        27
53.400        27
53.410        27
53.420        27
53.430        20
53.440        47
53.450        40
53.460        60
53.470         7
53.480        27
53.490        13
53.500        20
53.510        20
53.520        27
53.530        33
53.540        27
53.550        80
53.560        53
53.570        67
53.580        13
53.590        33
53.600        53
53.610        27
53.620        47
53.630        20
53.640        27
53.650        20
53.660        27
53.670        33
53.680        40
53.690        13
53.700        40
53.710        33
53.720        40
53.730        47
53.740        53
53.750        53
53.760        27
53.770        13
53.780        40
53.790        27
53.800         7
53.810        40
53.820        47
53.830        20
53.840        33
53.850        40
53.860        20
53.870        13
53.880        33
53.890        33
53.900        47
53.910        40
53.920        40
53.930        20
53.940        40
53.950        20
53.960        20
53.970        20
53.980        33
53.990        27
54.000        13
54.010        27
54.020        33
54.030        47
54.040        40
54.050        33
54.060        27
54.070        67
54.080        27
54.090        27
54.100        33
54.110        27
54.120        40
54.130         7
54.140        27
54.150        20
54.160        33
54.170        27
54.180        13
54.190         0
54.200        20
54.210        33
54.220        40
54.230        27
54.240        13
54.250        27
54.260         7
54.270        27
54.280        40
54.290        33
54.300         7
54.310        40
54.320        27
54.330        33
54.340        13
54.350        53
54.360        20
54.370        67
54.380        13
54.390        20
54.400        20
54.410        27
54.420        33
54.430        27
54.440        27
54.450        13
54.460         0
54.470         0
54.480        20
54.490        20
54.500        27
54.510        33
54.520        13
54.530        27
54.540        33
54.550        13
54.560        20
54.570        27
54.580        13
54.590        20
54.600        33
54.610        20
54.620        20
54.630        27
54.640        20
54.650        33
54.660        47
54.670        20
54.680        13
54.690        20
54.700        20
54.710        53
54.720        33
54.730        20
54.740        20
54.750        13
54.760        13
54.770        13
54.780        27
54.790        20
54.800        27
54.810        13
54.820        27
54.830        53
54.840        40
54.850         7
54.860        27
54.870        40
54.880        13
54.890        33
54.900        13
54.910         7
54.920        20
54.930         7
54.940         7
54.950         0
54.960        60
54.970         7
54.980        27
54.990        13
55.000        13
55.010        33
55.020         7
55.030        13
55.040        13
55.050        20
55.060        27
55.070        27
55.080        33
55.090        33
55.100        20
55.110        13
55.120        13
55.130        20
55.140        20
55.150        20
55.160        33
55.170        27
55.180        33
55.190        73
55.200        13
55.210        27
55.220        27
55.230         7
55.240        33
55.250        27
55.260        40
55.270        20
55.280        20
55.290        27
55.300        20
55.310        13
55.320         0
55.330        13
55.340        20
55.350        20
55.360        20
55.370         7
55.380        13
55.390        20
55.400        20
55.410        13
55.420        27
55.430        13
55.440        20
55.450        60
55.460        33
55.470        20
55.480         7
55.490         7
55.500        20
55.510        20
55.520        20
55.530        20
55.540        40
55.550        27
55.560         7
55.570        13
55.580        13
55.590        27
55.600        33
55.610        33
55.620         0
55.630         0
55.640        13
55.650        27
55.660        20
55.670        27
55.680         7
55.690         0
55.700        20
55.710        13
55.720        40
55.730        27
55.740        13
55.750        13
55.760        13
55.770        13
55.780        20
55.790        20
55.800        27
55.810        13
55.820        13
55.830        13
55.840        27
55.850        53
55.860         7
55.870        20
55.880        27
55.890        13
55.900        20
55.910        33
55.920         7
55.930        13
55.940         7
55.950        20
55.960        27
55.970        20
55.980        27
55.990        20
56.000        40
56.010        40
56.020        13
56.030        27
56.040        13
56.050        20
56.060        13
56.070         7
56.080        33
56.090        47
56.100        47
56.110        33
56.120         7
56.130         7
56.140        33
56.150        20
56.160        20
56.170        40
56.180        13
56.190         0
56.200        20
56.210        33
56.220        33
56.230         7
56.240        20
56.250         7
56.260        27
56.270        13
56.280        20
56.290        27
56.300        20
56.310         0
56.320        13
56.330        13
56.340         7
56.350        13
56.360        33
56.370         7
56.380         7
56.390        20
56.400         0
56.410        13
56.420        20
56.430         7
56.440        13
56.450        20
56.460        20
56.470        20
56.480         7
56.490        13
56.500        13
56.510        13
56.520        33
56.530        27
56.540        20
56.550        27
56.560        13
56.570        40
56.580        40
56.590        13
56.600        27
56.610        27
56.620        13
56.630        27
56.640        13
56.650        33
56.660        13
56.670        20
56.680        33
56.690        13
56.700         0
56.710        40
56.720        20
56.730        13
56.740        20
56.750        20
56.760        20
56.770         7
56.780        13
56.790        20
56.800        27
56.810        13
56.820         0
56.830        40
56.840         7
56.850        27
56.860        27
56.870         7
56.880        20
56.890        20
56.900        13
56.910        27
56.920        13
56.930         0
56.940        40
56.950        13
56.960        27
56.970        27
56.980        20
56.990        20
57.000        33
57.010        27
57.020        20
57.030        33
57.040        13
57.050        27
57.060        20
57.070         7
57.080        27
57.090        13
57.100        33
57.110        33
57.120        13
57.130        53
57.140        27
57.150        27
57.160        13
57.170        27
57.180         7
57.190        13
57.200        27
57.210        20
57.220        20
57.230         7
57.240        13
57.250        40
57.260        20
57.270        13
57.280        40
57.290        33
57.300         0
57.310        13
57.320        33
57.330         0
57.340        13
57.350        33
57.360        13
57.370        27
57.380         7
57.390        13
57.400        13
57.410         0
57.420        27
57.430        27
57.440        13
57.450        40
57.460         7
57.470        40
57.480        13
57.490        27
57.500         7
57.510        27
57.520        20
57.530        20
57.540        33
57.550         0
57.560        13
57.570        20
57.580        20
57.590        13
57.600        20
57.610        20
57.620        13
57.630         7
57.640        33
57.650         7
57.660        20
57.670        13
57.680        13
57.690        47
57.700        20
57.710         7
57.720        13
57.730        20
57.740        20
57.750        33
57.760        20
57.770        40
57.780        33
57.790        27
57.800        20
57.810        27
57.820        27
57.830        13
57.840        13
57.850         7
57.860         7
57.870         7
57.880        20
57.890         7
57.900        13
57.910         0
57.920         7
57.930         7
57.940        13
57.950        13
57.960         0
57.970        13
57.980        20
57.990        20
58.000        13
58.010        27
58.020         7
58.030        27
58.040        13
58.050         0
58.060        33
58.070        47
58.080        47
58.090        27
58.100        27
58.110        13
58.120         0
58.130        13
58.140        13
58.150        27
58.160         0
58.170        33
58.180        13
58.190        20
58.200         7
58.210         0
58.220        20
58.230        13
58.240        40
58.250         0
58.260        20
58.270         7
58.280        47
58.290        20
58.300        13
58.310         0
58.320        27
58.330         7
58.340        13
58.350        13
58.360         0
58.370        13
58.380         7
58.390        20
58.400        13
58.410        33
58.420        33
58.430         0
58.440        20
58.450        13
58.460        13
58.470        13
58.480        33
58.490        27
58.500        33
58.510        13
58.520        13
58.530         0
58.540        13
58.550        33
58.560        13
58.570        13
58.580        27
58.590        13
58.600         0
58.610         7
58.620        13
58.630        20
58.640         7
58.650        20
58.660        27
58.670         0
58.680         0
58.690         7
58.700         7
58.710         7
58.720        33
58.730        20
58.740        20
58.750         0
58.760        13
58.770         0
58.780        27
58.790        27
58.800        20
58.810        13
58.820        20
58.830        20
58.840         7
58.850        27
58.860         7
58.870        20
58.880        20
58.890        13
58.900         7
58.910         7
58.920        27
58.930        13
58.940        20
58.950        13
58.960        20
58.970        27
58.980         7
58.990        13
59.000        13
59.010        27
59.020         7
59.030         7
59.040        20
59.050         7
59.060        20
59.070         7
59.080        13
59.090        13
59.100        20
59.110        13
59.120        20
59.130        20
59.140        13
59.150        13
59.160        13
59.170        20
59.180        27
59.190        20
59.200        13
59.210         7
59.220        27
59.230        20
59.240        13
59.250        13
59.260        27
59.270        33
59.280        20
59.290        27
59.300        13
59.310         7
59.320        20
59.330         7
59.340         7
59.350         0
59.360        13
59.370         7
59.380        40
59.390        40
59.400         7
59.410        13
59.420         7
59.430        40
59.440        13
59.450        13
59.460         7
59.470         7
59.480        27
59.490        13
59.500         7
59.510        20
59.520        20
59.530        27
59.540        27
59.550         7
59.560         0
59.570        13
59.580         7
59.590         7
59.600        20
59.610         0
59.620         7
59.630         7
59.640        13
59.650        27
59.660        13
59.670        33
59.680        33
59.690         0
59.700        33
59.710        20
59.720         0
59.730         0
59.740        20
59.750        20
59.760        27
59.770         7
59.780        13
59.790         7
59.800        13
59.810        13
59.820         7
59.830        20
59.840        13
59.850        20
59.860        27
59.870         7
59.880         7
59.890         7
59.900         0
59.910         0
59.920        20
59.930         7
59.940        53
59.950         0
59.960        20
59.970         7
59.980        27
59.990         7
60.000         7
