20.000         7
20.010         7
20.020        40
20.030        33
20.040        47
20.050        47
20.060        27
20.070        33
20.080        53
20.090        27
20.100        40
20.110        60
20.120        27
20.130        27
20.140        53
20.150        53
20.160        53
20.170        67
20.180        33
20.190        40
20.200        47
20.210        47
20.220        53
20.230        53
20.240        33
20.250        47
20.260        40
20.270        40
20.280        47
20.290        40
20.300        33
20.310        53
20.320        20
20.330        80
20.340        20
20.350        40
20.360         7
20.370        73
20.380        53
20.390        47
20.400        40
20.410         7
20.420        13
20.430        53
20.440        47
20.450        60
20.460        13
20.470        53
20.480        27
20.490        47
20.500        47
20.510        33
20.520        33
20.530        33
20.540        27
20.550        13
20.560        20
20.570        40
20.580        27
20.590        20
20.600        33
20.610        53
20.620        60
20.630        47
20.640        47
20.650        40
20.660        33
20.670        33
20.680        47
20.690        33
20.700        40
20.710        87
20.720        20
20.730         7
20.740        53
20.750         7
20.760        53
20.770        60
20.780        67
20.790        40
20.800        33
20.810        33
20.820        33
20.830        40
20.840        27
20.850        47
20.860        67
20.870        47
20.880        53
20.890        47
20.900        40
20.910        33
20.920        60
20.930        27
20.940        33
20.950        20
20.960        27
20.970        33
20.980        73
20.990        67
21.000        47
21.010        67
21.020        33
21.030        47
21.040        60
21.050        47
21.060        40
21.070        27
21.080        60
21.090        60
21.100        67
21.110        27
21.120        67
21.130        87
21.140        53
21.150        47
21.160        27
21.170        67
21.180        40
21.190        20
21.200        27
21.210        60
21.220        53
21.230        47
21.240        47
21.250        33
21.260        47
21.270        27
21.280        40
21.290        40
21.300        33
21.310        27
21.320        33
21.330        47
21.340        80
21.350        67
21.360        67
21.370        27
21.380        40
21.390        60
21.400        40
21.410        60
21.420        33
21.430        53
21.440        33
21.450        40
21.460        33
21.470        47
21.480        60
21.490        20
21.500        73
21.510        33
21.520        33
21.530        33
21.540        53
21.550        53
21.560        47
21.570        33
21.580        27
21.590        40
21.600        40
21.610        20
21.620        40
21.630        40
21.640        53
21.650        53
21.660        33
21.670        33
21.680        27
21.690        20
21.700        33
21.710        47
21.720        47
21.730        60
21.740        47
21.750        20
21.760        27
21.770        47
21.780        47
21.790        27
21.800        33
21.810        20
21.820        40
21.830        60
21.840        67
21.850        27
21.860        27
21.870        20
21.880        47
21.890        47
21.900        27
21.910        27
21.920        33
21.930        20
21.940        40
21.950        27
21.960        67
21.970        73
21.980        20
21.990        27
22.000        80
22.010        60
22.020        40
22.030        53
22.040        27
22.050        47
22.060        20
22.070        27
22.080        27
22.090        33
22.100        27
22.110        27
22.120        40
22.130        33
22.140        40
22.150        53
22.160        27
22.170        53
22.180        47
22.190        40
22.200        33
22.210        27
22.220        27
22.230        27
22.240        53
22.250        33
22.260        53
22.270        27
22.280        53
22.290        33
22.300        60
22.310        27
22.320        47
22.330         7
22.340        40
22.350        53
22.360        67
22.370        40
22.380        73
22.390         7
22.400        67
22.410        73
22.420        47
22.430        47
22.440        73
22.450        67
22.460        40
22.470        40
22.480        47
22.490        40
22.500        53
22.510        60
22.520        80
22.530        40
22.540        47
22.550        47
22.560        67
22.570        67
22.580        93
22.590        73
22.600        33
22.610       127
22.620       107
22.630       127
22.640       113
22.650       140
22.660       127
22.670       167
22.680       167
22.690       193
22.700       207
22.710       260
22.720       260
22.730       466
22.740       320
22.750       453
22.760       460
22.770       586
22.780       440
22.790       593
22.800       606
22.810       693
22.820       573
22.830       540
22.840       526
22.850       446
22.860       426
22.870       393
22.880       360
22.890       340
22.900       227
22.910       240
22.920       180
22.930       220
22.940       127
22.950       160
22.960        93
22.970       127
22.980        93
22.990        93
23.000        80
23.010        80
23.020       100
23.030        80
23.040        73
23.050        40
23.060        40
23.070        73
23.080        40
23.090        20
23.100        47
23.110        73
23.120        60
23.130        40
23.140        40
23.150        33
23.160        60
23.170        60
23.180        27
23.190        13
23.200        47
23.210        47
23.220        53
23.230        27
23.240        27
23.250        67
23.260        27
23.270        60
23.280        13
23.290        47
23.300        40
23.310        40
23.320        33
23.330        40
23.340        33
23.350        33
23.360        33
23.370        47
23.380        53
23.390        47
23.400        60
23.410        47
23.420        20
23.430        13
23.440        47
23.450        27
23.460        67
23.470        60
23.480        40
23.490        20
23.500        40
23.510        47
23.520        80
23.530        33
23.540        53
23.550        40
23.560        27
23.570        33
23.580        60
23.590        53
23.600        60
23.610        53
23.620        60
23.630        67
23.640        40
23.650        53
23.660        27
23.670        73
23.680        20
23.690        20
23.700        13
23.710        33
23.720        67
23.730        20
23.740        20
23.750        27
23.760        60
23.770        27
23.780        47
23.790        47
23.800        40
23.810        27
23.820        53
23.830        20
23.840        47
23.850        67
23.860        47
23.870        40
23.880        47
23.890        47
23.900        40
23.910        40
23.920        47
23.930        33
23.940        20
23.950         7
23.960        20
23.970         7
23.980        53
23.990        53
24.000        33
24.010        40
24.020        33
24.030        20
24.040        33
24.050        33
24.060        27
24.070        47
24.080        47
24.090        33
24.100        27
24.110        27
24.120        40
24.130        27
24.140        27
24.150        47
24.160        53
24.170        80
24.180        53
24.190        20
24.200        13
24.210        33
24.220        73
24.230        53
24.240        13
24.250        40
24.260        53
24.270        27
24.280        40
24.290        27
24.300        27
24.310        33
24.320        47
24.330        33
24.340        20
24.350        27
24.360        13
24.370        53
24.380         7
24.390        27
24.400        33
24.410        13
24.420        33
24.430        20
24.440        33
24.450        27
24.460        40
24.470        53
24.480        13
24.490        40
24.500        40
24.510         7
24.520        40
24.530        13
24.540        27
24.550        53
24.560        40
24.570        47
24.580        47
24.590        60
24.600        33
24.610        33
24.620        27
24.630        53
24.640        33
24.650        13
24.660        53
24.670        53
24.680        47
24.690        27
24.700        80
24.710        27
24.720        60
24.730        20
24.740        47
24.750        27
24.760        60
24.770        27
24.780        47
24.790        33
24.800        47
24.810        53
24.820        40
24.830        47
24.840        53
24.850        33
24.860        53
24.870        27
24.880        47
24.890        47
24.900        20
24.910        33
24.920        40
24.930        27
24.940        27
24.950        33
24.960        47
24.970        33
24.980        47
24.990        27
25.000        33
25.010        20
25.020        33
25.030        20
25.040        40
25.050        67
25.060        40
25.070        60
25.080        40
25.090        47
25.100        33
25.110        60
25.120        27
25.130        20
25.140        20
25.150        33
25.160        27
25.170        20
25.180        53
25.190        47
25.200        40
25.210        27
25.220        53
25.230        33
25.240        60
25.250        27
25.260        47
25.270        73
25.280        40
25.290        47
25.300        73
25.310        33
25.320        47
25.330        20
25.340        33
25.350        40
25.360        33
25.370        60
25.380        33
25.390        47
25.400        13
25.410         7
25.420        33
25.430        40
25.440        40
25.450        67
25.460        13
25.470        27
25.480        47
25.490        27
25.500        20
25.510        13
25.520        40
25.530        53
25.540        47
25.550        40
25.560        20
25.570        67
25.580        40
25.590        67
25.600        60
25.610        87
25.620       113
25.630        73
25.640        53
25.650        80
25.660        53
25.670       100
25.680        80
25.690       120
25.700        73
25.710        67
25.720        53
25.730        93
25.740        60
25.750        73
25.760        20
25.770        20
25.780        53
25.790        60
25.800        20
25.810        60
25.820        33
25.830        20
25.840        33
25.850         7
25.860        40
25.870        20
25.880        20
25.890        67
25.900        20
25.910        33
25.920        27
25.930        13
25.940        27
25.950        20
25.960        13
25.970        60
25.980        13
25.990        40
26.000        13
26.010        27
26.020        67
26.030        27
26.040        73
26.050        40
26.060        20
26.070        53
26.080         7
26.090        40
26.100        67
26.110        60
26.120        20
26.130        33
26.140        20
26.150        20
26.160        40
26.170        33
26.180        33
26.190        53
26.200        27
26.210        20
26.220        33
26.230        67
26.240        33
26.250        40
26.260        20
26.270        27
26.280        40
26.290        73
26.300        27
26.310        47
26.320        33
26.330        27
26.340        13
26.350        47
26.360        47
26.370        47
26.380        27
26.390        27
26.400        27
26.410        33
26.420        40
26.430        47
26.440        40
26.450        27
26.460        27
26.470        80
26.480        27
26.490        27
26.500        33
26.510        20
26.520        13
26.530        27
26.540        20
26.550        20
26.560        13
26.570        27
26.580        20
26.590        47
26.600        53
26.610        13
26.620        27
26.630        33
26.640        27
26.650        60
26.660        20
26.670        27
26.680        27
26.690        33
26.700        20
26.710        27
26.720        40
26.730        20
26.740        40
26.750        33
26.760         7
26.770        60
26.780        33
26.790        53
26.800        47
26.810        47
26.820         7
26.830        20
26.840        27
26.850        53
26.860        13
26.870        60
26.880        53
26.890        13
26.900        13
26.910        33
26.920        20
26.930        20
26.940        20
26.950        13
26.960        20
26.970        33
26.980        20
26.990        33
27.000         7
27.010        47
27.020        60
27.030        33
27.040        40
27.050        67
27.060        20
27.070        53
27.080        60
27.090        27
27.100        27
27.110        20
27.120        60
27.130        33
27.140        33
27.150        47
27.160        33
27.170        20
27.180        33
27.190         7
27.200        53
27.210        27
27.220        27
27.230        20
27.240        40
27.250        40
27.260         0
27.270        27
27.280        47
27.290        47
27.300        27
27.310        40
27.320        27
27.330        27
27.340        53
27.350        20
27.360        47
27.370        20
27.380        13
27.390        40
27.400        53
27.410        53
27.420        40
27.430        33
27.440        33
27.450        40
27.460        20
27.470        33
27.480        20
27.490        13
27.500        33
27.510        33
27.520        33
27.530        33
27.540        40
27.550        40
27.560        33
27.570        27
27.580        47
27.590        47
27.600        40
27.610        40
27.620        53
27.630        27
27.640        13
27.650         7
27.660        33
27.670        40
27.680        33
27.690        20
27.700        33
27.710        33
27.720        27
27.730        60
27.740        33
27.750        13
27.760        27
27.770        53
27.780        13
27.790        33
27.800        20
27.810        20
27.820        47
27.830        27
27.840        27
27.850        40
27.860        20
27.870        27
27.880        33
27.890        47
27.900        40
27.910         7
27.920        13
27.930        13
27.940         7
27.950        13
27.960        27
27.970        67
27.980        53
27.990        47
28.000        40
28.010        13
28.020        40
28.030        53
28.040        33
28.050        40
28.060        47
28.070        40
28.080        27
28.090        40
28.100         7
28.110        27
28.120        40
28.130        20
28.140        13
28.150         7
28.160        13
28.170         7
28.180         7
28.190        20
28.200        40
28.210        27
28.220        47
28.230        27
28.240        27
28.250        53
28.260        27
28.270        40
28.280        20
28.290        20
28.300        40
28.310        27
28.320        13
28.330        33
28.340        20
28.350        27
28.360        13
28.370        13
28.380        20
28.390        47
28.400        60
28.410        33
28.420        27
28.430         7
28.440        33
28.450        27
28.460        27
28.470        20
28.480        47
28.490         7
28.500        47
28.510        33
28.520        33
28.530        13
28.540        33
28.550         7
28.560        13
28.570         0
28.580        20
28.590        33
28.600        33
28.610        40
28.620         7
28.630        13
28.640        13
28.650        33
28.660        53
28.670        47
28.680        13
28.690        13
28.700        27
28.710        40
28.720        40
28.730        33
28.740        33
28.750        20
28.760        20
28.770         0
28.780        33
28.790        13
28.800        53
28.810        47
28.820        27
28.830        33
28.840        53
28.850        13
28.860        13
28.870        20
28.880        27
28.890        40
28.900        33
28.910        20
28.920        53
28.930        27
28.940        47
28.950        33
28.960        33
28.970        27
28.980        13
28.990        40
29.000        27
29.010        13
29.020        33
29.030        27
29.040         0
29.050        33
29.060        47
29.070        13
29.080        60
29.090        20
29.100        13
29.110        60
29.120        40
29.130        47
29.140        40
29.150        40
29.160         7
29.170        53
29.180        33
29.190        27
29.200        47
29.210        67
29.220        40
29.230        27
29.240        40
29.250        20
29.260        33
29.270        27
29.280        40
29.290        47
29.300        67
29.310        27
29.320        47
29.330        60
29.340        47
29.350        40
29.360         7
29.370        33
29.380        40
29.390        47
29.400        60
29.410        47
29.420        60
29.430        47
29.440        40
29.450        33
29.460        33
29.470        40
29.480        40
29.490         7
29.500        53
29.510        33
29.520        13
29.530        27
29.540         7
29.550        20
29.560        20
29.570        27
29.580        27
29.590        27
29.600        20
29.610        20
29.620        33
29.630        27
29.640        20
29.650        47
29.660        20
29.670        27
29.680        27
29.690        40
29.700        13
29.710        47
29.720        40
29.730        20
29.740        33
29.750        27
29.760        27
29.770        20
29.780        40
29.790        13
29.800        40
29.810        27
29.820        20
29.830        20
29.840        13
29.850        27
29.860        27
29.870        13
29.880        33
29.890        53
29.900        40
29.910        33
29.920        20
29.930        27
29.940         0
29.950        27
29.960        33
29.970        20
29.980        13
29.990        47
30.000        20
30.010        27
30.020        40
30.030        40
30.040        40
30.050         7
30.060        20
30.070        27
30.080        27
30.090        33
30.100        13
30.110         0
30.120        20
30.130        13
30.140        47
30.150        13
30.160        20
30.170        27
30.180        53
30.190        20
30.200         7
30.210         7
30.220        33
30.230        40
30.240        13
30.250        53
30.260        27
30.270        13
30.280         7
30.290         7
30.300        13
30.310        33
30.320        27
30.330        27
30.340        40
30.350        40
30.360        40
30.370        27
30.380        53
30.390        40
30.400        47
30.410        40
30.420        20
30.430        13
30.440        13
30.450        13
30.460        40
30.470         7
30.480         7
30.490        20
30.500        20
30.510        13
30.520        13
30.530        13
30.540        27
30.550        33
30.560        20
30.570        20
30.580        33
30.590        33
30.600        13
30.610        20
30.620        20
30.630        27
30.640        47
30.650         7
30.660        13
30.670        20
30.680        27
30.690        33
30.700        33
30.710        27
30.720        13
30.730        27
30.740        13
30.750        20
30.760         0
30.770         7
30.780        27
30.790        33
30.800        20
30.810        27
30.820         0
30.830        13
30.840        27
30.850        47
30.860        33
30.870        20
30.880        27
30.890        53
30.900        27
30.910        33
30.920        40
30.930        27
30.940        20
30.950        33
30.960        13
30.970        13
30.980        40
30.990        33
31.000        13
31.010        33
31.020        53
31.030        33
31.040        20
31.050        40
31.060        33
31.070        33
31.080        53
31.090        13
31.100        33
31.110        20
31.120         7
31.130        20
31.140        47
31.150        73
31.160        33
31.170        20
31.180        33
31.190        33
31.200        27
31.210        33
31.220        33
31.230         7
31.240        47
31.250        33
31.260        27
31.270        33
31.280        33
31.290        13
31.300        47
31.310        27
31.320        27
31.330        33
31.340         0
31.350        60
31.360        40
31.370        20
31.380        20
31.390        47
31.400        20
31.410        13
31.420        20
31.430        47
31.440        13
31.450        33
31.460        27
31.470        20
31.480        40
31.490        33
31.500        80
31.510        33
31.520        27
31.530        60
31.540        20
31.550        27
31.560        27
31.570        40
31.580        47
31.590        20
31.600        40
31.610        27
31.620        73
31.630        40
31.640        33
31.650        27
31.660        33
31.670        60
31.680        33
31.690        40
31.700        47
31.710         7
31.720        47
31.730        47
31.740        53
31.750         7
31.760        33
31.770        27
31.780        20
31.790        47
31.800        20
31.810        27
31.820        47
31.830        40
31.840        33
31.850        40
31.860        20
31.870        73
31.880         7
31.890        27
31.900        27
31.910        40
31.920        33
31.930        47
31.940        40
31.950        53
31.960        73
31.970        33
31.980        27
31.990        60
32.000        47
32.010        60
32.020        53
32.030        40
32.040        27
32.050        73
32.060        53
32.070        67
32.080        60
32.090        87
32.100        87
32.110        53
32.120       107
32.130        93
32.140       127
32.150       127
32.160        87
32.170       107
32.180       107
32.190       133
32.200       120
32.210       180
32.220       160
32.230       127
32.240       100
32.250       240
32.260       213
32.270       280
32.280       280
32.290       360
32.300       393
32.310       360
32.320       533
32.330       686
32.340       566
32.350       786
32.360       933
32.370       780
32.380      1086
32.390      1146
32.400      1200
32.410      1399
32.420      1673
32.430      1846
32.440      1973
32.450      2266
32.460      2386
32.470      2192
32.480      2346
32.490      2426
32.500      2259
32.510      2532
32.520      2073
32.530      1926
32.540      1813
32.550      1893
32.560      1419
32.570      1646
32.580      1213
32.590      1193
32.600      1033
32.610       973
32.620       726
32.630       720
32.640       626
32.650       433
32.660       387
32.670       320
32.680       247
32.690       227
32.700       240
32.710       213
32.720       320
32.730       200
32.740       107
32.750       107
32.760       113
32.770       133
32.780        93
32.790       173
32.800       167
32.810        67
32.820       113
32.830        73
32.840        87
32.850        60
32.860        60
32.870        60
32.880        93
32.890        60
32.900        87
32.910        27
32.920        20
32.930        40
32.940        13
32.950        33
32.960        53
32.970        67
32.980        33
32.990         7
33.000        53
33.010        73
33.020        80
33.030        87
33.040        53
33.050        40
33.060        67
33.070        73
33.080        53
33.090        47
33.100        40
33.110        20
33.120        47
33.130        33
33.140        33
33.150        53
33.160        33
33.170        33
33.180        13
33.190        20
33.200        27
33.210        33
33.220        20
33.230        20
33.240        27
33.250        47
33.260        40
33.270        27
33.280        27
33.290        87
33.300        20
33.310        40
33.320        33
33.330        20
33.340        47
33.350        33
33.360        53
33.370        13
33.380        27
33.390        33
33.400        27
33.410        27
33.420        20
33.430        60
33.440        20
33.450        47
33.460        27
33.470        27
33.480        20
33.490        33
33.500        13
33.510        13
33.520        33
33.530        27
33.540        33
33.550        73
33.560        27
33.570        40
33.580        33
33.590        33
33.600        27
33.610        20
33.620        47
33.630        13
33.640        13
33.650        67
33.660         7
33.670        33
33.680        13
33.690        60
33.700        33
33.710        13
33.720        20
33.730        40
33.740        40
33.750        33
33.760        20
33.770        27
33.780        33
33.790        33
33.800        33
33.810         7
33.820        20
33.830        60
33.840        40
33.850         7
33.860        20
33.870        20
33.880        40
33.890        13
33.900        47
33.910        13
33.920        27
33.930        40
33.940        20
33.950        20
33.960        47
33.970        47
33.980        20
33.990        20
34.000        27
34.010        47
34.020        60
34.030        33
34.040         7
34.050        33
34.060        47
34.070        20
34.080        47
34.090        33
34.100         7
34.110        47
34.120        27
34.130        13
34.140         7
34.150        27
34.160        27
34.170        20
34.180        13
34.190         7
34.200        20
34.210         7
34.220        40
34.230        13
34.240        13
34.250        33
34.260        47
34.270        20
34.280        13
34.290        13
34.300        20
34.310        40
34.320        27
34.330        27
34.340        40
34.350        13
34.360        13
34.370        20
34.380        20
34.390        33
34.400        13
34.410         7
34.420         7
34.430        13
34.440        33
34.450        13
34.460        13
34.470        13
34.480        33
34.490        20
34.500        33
34.510        13
34.520        27
34.530        53
34.540        20
34.550        33
34.560         7
34.570        33
34.580        27
34.590        20
34.600        60
34.610        27
34.620        27
34.630        13
34.640        27
34.650        40
34.660        13
34.670        20
34.680        47
34.690        27
34.700        13
34.710        33
34.720         7
34.730        20
34.740        20
34.750         7
34.760        27
34.770        20
34.780        27
34.790        27
34.800        33
34.810        33
34.820        33
34.830        20
34.840        60
34.850         7
34.860        27
34.870        13
34.880        60
34.890        20
34.900        27
34.910        13
34.920        27
34.930        27
34.940        27
34.950        60
34.960        33
34.970         7
34.980         7
34.990        20
35.000         7
35.010        20
35.020         7
35.030        20
35.040        13
35.050        27
35.060        40
35.070        13
35.080        13
35.090        40
35.100        40
35.110        27
35.120        33
35.130        20
35.140        40
35.150        13
35.160        60
35.170        53
35.180        33
35.190        47
35.200        27
35.210        27
35.220        20
35.230        13
35.240        47
35.250         7
35.260        27
35.270        13
35.280        33
35.290         7
35.300        20
35.310        33
35.320        27
35.330        33
35.340        27
35.350        27
35.360        27
35.370        20
35.380        27
35.390        20
35.400        27
35.410        47
35.420        13
35.430        33
35.440        27
35.450        47
35.460        13
35.470        13
35.480        20
35.490        13
35.500        13
35.510        40
35.520        13
35.530        53
35.540        33
35.550        27
35.560        40
35.570        27
35.580        20
35.590        20
35.600         7
35.610        27
35.620        20
35.630         7
35.640        27
35.650        27
35.660        20
35.670        13
35.680        27
35.690        20
35.700        13
35.710        27
35.720        20
35.730        33
35.740        20
35.750        13
35.760        33
35.770        47
35.780        13
35.790        27
35.800        20
35.810         7
35.820        27
35.830        53
35.840        13
35.850        27
35.860        13
35.870         7
35.880        27
35.890        40
35.900        60
35.910         7
35.920        27
35.930         7
35.940         7
35.950        13
35.960        13
35.970        13
35.980        27
35.990        53
36.000        33
36.010        33
36.020        47
36.030        33
36.040        20
36.050        33
36.060        27
36.070        33
36.080        20
36.090        13
36.100        13
36.110         7
36.120        33
36.130         0
36.140        53
36.150        27
36.160        13
36.170         0
36.180        27
36.190        27
36.200        33
36.210        47
36.220        33
36.230        20
36.240        13
36.250        33
36.260         7
36.270        27
36.280        33
36.290         0
36.300        20
36.310        27
36.320        20
36.330        27
36.340        27
36.350         7
36.360        33
36.370        20
36.380        33
36.390        20
36.400        13
36.410        13
36.420        20
36.430        27
36.440        40
36.450         7
36.460        20
36.470         7
36.480        20
36.490         7
36.500        13
36.510        20
36.520        60
36.530         7
36.540        13
36.550        40
36.560        33
36.570        13
36.580        20
36.590         0
36.600         7
36.610        13
36.620         7
36.630        20
36.640        33
36.650        20
36.660        20
36.670        20
36.680         7
36.690         7
36.700        13
36.710        33
36.720         7
36.730        20
36.740        13
36.750        27
36.760        20
36.770        20
36.780        13
36.790         7
36.800        13
36.810        33
36.820        20
36.830        13
36.840        47
36.850        27
36.860        13
36.870         7
36.880        20
36.890        13
36.900        20
36.910         7
36.920        27
36.930        40
36.940        33
36.950        27
36.960        40
36.970        27
36.980         7
36.990        13
37.000        20
37.010        40
37.020        33
37.030        13
37.040        40
37.050        33
37.060        20
37.070        27
37.080        40
37.090        20
37.100        33
37.110        13
37.120        33
37.130        40
37.140        27
37.150        60
37.160         7
37.170        47
37.180        13
37.190        40
37.200        40
37.210        33
37.220        20
37.230        20
37.240         0
37.250        40
37.260        20
37.270        13
37.280        20
37.290        20
37.300        33
37.310         0
37.320        13
37.330        33
37.340        20
37.350        40
37.360        47
37.370         7
37.380        20
37.390        20
37.400        20
37.410        20
37.420        27
37.430         7
37.440         7
37.450        40
37.460        20
37.470        20
37.480         7
37.490        13
37.500        13
37.510        27
37.520        20
37.530        13
37.540         7
37.550        13
37.560        20
37.570        27
37.580        20
37.590         0
37.600        13
37.610         0
37.620        27
37.630        27
37.640        27
37.650        40
37.660        20
37.670         7
37.680         7
37.690        20
37.700         7
37.710        13
37.720        13
37.730        40
37.740        27
37.750        20
37.760        33
37.770        20
37.780        13
37.790        13
37.800         7
37.810        27
37.820        13
37.830        33
37.840        47
37.850        13
37.860        47
37.870        13
37.880        20
37.890        20
37.900         7
37.910        20
37.920        27
37.930        13
37.940         7
37.950        27
37.960        27
37.970         0
37.980        20
37.990        13
38.000        40
38.010        20
38.020        33
38.030        27
38.040        13
38.050         7
38.060        13
38.070         0
38.080        13
38.090         7
38.100        20
38.110        27
38.120        20
38.130        40
38.140        20
38.150        33
38.160        13
38.170         7
38.180        33
38.190        13
38.200        13
38.210        40
38.220        20
38.230        60
38.240        13
38.250         7
38.260        13
38.270         0
38.280         0
38.290         7
38.300        13
38.310        33
38.320        13
38.330         7
38.340         7
38.350        53
38.360        27
38.370        13
38.380        13
38.390        13
38.400        13
38.410        33
38.420        27
38.430        33
38.440        27
38.450        13
38.460         7
38.470        20
38.480        47
38.490        20
38.500        13
38.510        13
38.520        40
38.530        27
38.540        13
38.550        33
38.560        33
38.570        33
38.580        20
38.590        33
38.600        20
38.610        13
38.620        33
38.630         7
38.640        13
38.650        33
38.660        33
38.670        13
38.680         7
38.690        13
38.700        13
38.710        40
38.720        13
38.730        13
38.740        20
38.750        20
38.760         7
38.770        13
38.780        27
38.790        20
38.800        47
38.810        20
38.820        13
38.830         7
38.840         0
38.850        13
38.860        27
38.870        20
38.880         0
38.890        20
38.900        40
38.910        13
38.920         7
38.930         7
38.940         0
38.950         7
38.960        13
38.970        13
38.980        13
38.990        27
39.000         7
39.010        27
39.020        27
39.030        13
39.040        20
39.050        20
39.060        47
39.070        13
39.080        27
39.090        27
39.100        27
39.110         7
39.120         7
39.130         0
39.140         0
39.150        13
39.160         7
39.170        13
39.180        13
39.190        27
39.200        20
39.210        33
39.220        20
39.230        27
39.240        27
39.250        33
39.260         7
39.270         7
39.280        27
39.290        27
39.300        27
39.310        27
39.320        13
39.330         7
39.340        40
39.350         7
39.360         0
39.370        13
39.380        13
39.390        13
39.400        13
39.410        33
39.420        27
39.430        20
39.440        13
39.450        20
39.460         7
39.470        20
39.480        53
39.490        20
39.500        40
39.510         0
39.520        40
39.530        33
39.540        13
39.550         7
39.560        27
39.570        13
39.580         7
39.590        13
39.600         7
39.610        40
39.620        20
39.630         0
39.640         7
39.650        20
39.660         7
39.670        13
39.680         0
39.690        27
39.700        13
39.710        33
39.720        20
39.730        33
39.740        27
39.750        13
39.760        13
39.770         7
39.780        20
39.790        20
39.800        13
39.810         0
39.820        27
39.830        13
39.840        47
39.850        20
39.860        33
39.870        47
39.880        27
39.890        40
39.900        13
39.910        60
39.920        40
39.930        73
39.940        93
39.950        87
39.960       100
39.970        73
39.980        73
39.990        80
40.000       107
40.010        93
40.020       107
40.030       193
40.040       100
40.050       160
40.060        93
40.070       140
40.080        60
40.090        93
40.100       140
40.110       120
40.120       113
40.130        47
40.140        73
40.150       113
40.160        73
40.170        73
40.180        53
40.190        40
40.200        53
40.210        33
40.220        27
40.230        13
40.240        33
40.250         0
40.260        47
40.270        13
40.280        13
40.290        33
40.300        27
40.310        20
40.320        13
40.330        33
40.340        20
40.350        13
40.360        33
40.370        13
40.380        20
40.390        33
40.400        27
40.410        27
40.420        27
40.430        13
40.440        27
40.450        33
40.460        20
40.470         7
40.480        40
40.490        13
40.500        27
40.510        33
40.520        13
40.530        20
40.540         7
40.550        20
40.560        20
40.570        20
40.580        13
40.590        20
40.600        13
40.610        33
40.620         7
40.630         0
40.640        20
40.650        13
40.660        13
40.670        27
40.680        27
40.690        53
40.700        13
40.710        27
40.720        13
40.730         7
40.740         7
40.750        13
40.760        20
40.770        20
40.780        20
40.790        20
40.800        13
40.810        20
40.820        20
40.830        20
40.840         7
40.850        33
40.860        20
40.870         7
40.880        33
40.890        13
40.900        20
40.910        20
40.920        27
40.930        13
40.940        27
40.950         7
40.960         0
40.970        27
40.980        13
40.990         7
41.000        20
41.010        13
41.020        13
41.030        47
41.040        33
41.050        20
41.060        27
41.070        13
41.080        20
41.090        20
41.100        27
41.110        53
41.120        27
41.130         7
41.140        13
41.150        33
41.160        13
41.170        13
41.180        40
41.190        13
41.200        20
41.210        27
41.220        20
41.230        20
41.240        27
41.250        20
41.260        13
41.270        13
41.280         7
41.290         7
41.300        20
41.310        27
41.320        33
41.330        40
41.340        20
41.350        27
41.360        27
41.370        13
41.380        13
41.390        27
41.400        20
41.410        20
41.420        13
41.430        33
41.440        13
41.450         0
41.460        13
41.470         7
41.480        20
41.490        47
41.500        33
41.510        47
41.520        27
41.530        33
41.540         0
41.550        20
41.560        13
41.570        13
41.580        27
41.590        27
41.600        33
41.610        47
41.620         7
41.630        33
41.640        47
41.650        40
41.660        53
41.670        67
41.680       100
41.690        13
41.700        27
41.710        27
41.720        67
41.730        20
41.740        73
41.750        53
41.760        33
41.770        20
41.780        53
41.790        47
41.800        67
41.810        47
41.820        27
41.830        53
41.840        27
41.850        67
41.860        60
41.870        27
41.880        40
41.890        60
41.900        73
41.910        47
41.920        13
41.930        53
41.940        33
41.950        13
41.960         7
41.970         7
41.980        47
41.990        13
42.000        13
42.010        20
42.020         7
42.030        47
42.040        27
42.050        27
42.060        20
42.070         7
42.080        13
42.090        27
42.100        20
42.110        27
42.120        33
42.130        60
42.140        13
42.150         7
42.160        13
42.170        20
42.180        20
42.190        27
42.200        20
42.210        20
42.220         7
42.230        13
42.240        27
42.250        40
42.260         7
42.270        27
42.280        20
42.290        20
42.300        20
42.310        13
42.320        20
42.330        20
42.340        13
42.350        13
42.360        13
42.370        20
42.380        33
42.390        27
42.400        33
42.410        27
42.420        13
42.430         7
42.440        27
42.450        33
42.460        40
42.470        13
42.480        40
42.490        27
42.500         7
42.510        13
42.520        13
42.530         7
42.540        13
42.550        13
42.560         7
42.570        13
42.580         7
42.590        27
42.600        13
42.610        13
42.620        33
42.630        20
42.640         7
42.650        13
42.660         7
42.670        20
42.680        27
42.690         7
42.700         7
42.710        13
42.720        13
42.730        13
42.740         7
42.750         7
42.760        13
42.770        13
42.780        13
42.790        13
42.800        47
42.810        47
42.820         7
42.830         7
42.840         0
42.850        13
42.860        13
42.870         0
42.880         7
42.890        20
42.900        33
42.910        20
42.920        33
42.930        20
42.940        20
42.950        20
42.960        27
42.970         0
42.980        40
42.990        40
43.000        13
43.010        20
43.020        13
43.030        27
43.040         0
43.050         0
43.060        27
43.070         7
43.080         7
43.090        13
43.100         0
43.110        20
43.120        20
43.130         7
43.140        20
43.150        33
43.160         7
43.170        13
43.180        40
43.190        20
43.200        33
43.210        20
43.220        47
43.230        20
43.240        33
43.250        13
43.260        20
43.270        13
43.280        13
43.290         7
43.300         0
43.310        13
43.320        20
43.330        47
43.340         0
43.350        47
43.360        20
43.370        20
43.380         7
43.390        13
43.400        20
43.410        13
43.420        27
43.430        27
43.440        27
43.450        20
43.460        27
43.470        27
43.480        20
43.490        33
43.500         7
43.510        13
43.520        33
43.530         7
43.540        13
43.550        40
43.560        20
43.570        40
43.580        13
43.590        40
43.600        33
43.610        33
43.620        40
43.630        20
43.640         7
43.650        13
43.660        13
43.670        20
43.680        33
43.690        20
43.700         7
43.710        33
43.720        20
43.730        27
43.740         7
43.750        27
43.760         7
43.770        13
43.780         7
43.790        13
43.800         7
43.810        20
43.820        33
43.830        13
43.840        20
43.850        20
43.860        13
43.870        13
43.880        40
43.890        20
43.900        13
43.910        13
43.920         7
43.930        47
43.940         7
43.950        13
43.960        33
43.970        20
43.980        13
43.990        20
44.000        40
44.010        20
44.020        13
44.030        33
44.040        20
44.050        13
44.060         7
44.070        33
44.080        20
44.090        33
44.100        33
44.110         7
44.120        27
44.130        13
44.140        27
44.150         7
44.160         7
44.170         7
44.180        27
44.190        27
44.200        27
44.210        20
44.220        20
44.230        13
44.240        27
44.250        13
44.260         7
44.270        27
44.280        33
44.290        33
44.300        33
44.310        13
44.320        27
44.330        27
44.340         7
44.350         7
44.360        27
44.370        20
44.380        13
44.390        13
44.400        20
44.410        33
44.420        33
44.430        27
44.440        13
44.450        13
44.460        27
44.470        40
44.480        20
44.490        13
44.500        20
44.510        27
44.520        13
44.530        13
44.540        20
44.550        13
44.560        27
44.570        40
44.580        27
44.590        27
44.600        33
44.610        13
44.620        20
44.630        27
44.640        20
44.650        13
44.660        20
44.670        13
44.680        40
44.690        13
44.700        53
44.710        67
44.720        33
44.730        20
44.740        67
44.750        47
44.760        20
44.770        47
44.780        40
44.790        47
44.800        20
44.810        20
44.820        40
44.830         7
44.840        27
44.850        40
44.860        20
44.870        13
44.880        27
44.890        27
44.900        60
44.910        53
44.920        27
44.930        40
44.940        13
44.950        40
44.960        20
44.970        73
44.980        53
44.990        33
45.000        40
45.010        53
45.020        53
45.030        53
45.040        13
45.050        60
45.060        33
45.070        47
45.080        40
45.090        33
45.100        73
45.110        33
45.120        33
45.130        67
45.140        60
45.150        73
45.160        60
45.170        40
45.180        47
45.190        67
45.200        53
45.210        60
45.220        40
45.230        67
45.240        73
45.250        40
45.260        53
45.270        20
45.280        73
45.290        67
45.300        53
45.310        27
45.320        27
45.330        87
45.340        80
45.350        40
45.360        27
45.370        20
45.380        53
45.390        40
45.400        27
45.410        47
45.420       107
45.430        80
45.440        60
45.450        80
45.460        73
45.470        67
45.480        40
45.490        47
45.500        93
45.510        53
45.520        73
45.530        53
45.540        93
45.550        87
45.560       100
45.570        60
45.580        40
45.590        40
45.600        53
45.610        53
45.620        67
45.630        87
45.640        87
45.650        40
45.660       100
45.670        87
45.680        53
45.690        87
45.700        93
45.710        87
45.720        60
45.730        87
45.740       120
45.750        67
45.760       140
45.770        80
45.780        93
45.790       140
45.800       100
45.810       100
45.820       133
45.830       120
45.840       113
45.850       100
45.860       113
45.870        80
45.880       140
45.890       153
45.900       107
45.910       173
45.920       147
45.930       187
45.940       200
45.950       220
45.960       200
45.970       173
45.980       160
45.990       233
46.000       207
46.010       280
46.020       247
46.030       293
46.040       200
46.050       260
46.060       327
46.070       320
46.080       333
46.090       393
46.100       387
46.110       353
46.120       367
46.130       666
46.140       420
46.150       440
46.160       580
46.170       553
46.180       513
46.190       673
46.200       840
46.210       766
46.220       773
46.230       993
46.240      1113
46.250      1006
46.260      1106
46.270      1453
46.280      1393
46.290      1573
46.300      1566
46.310      1706
46.320      1993
46.330      2026
46.340      2172
46.350      2292
46.360      2572
46.370      2786
46.380      3065
46.390      3119
46.400      3632
46.410      3725
46.420      3852
46.430      3685
46.440      4132
46.450      4405
46.460      4532
46.470      4565
46.480      4565
46.490      4625
46.500      4565
46.510      4365
46.520      4905
46.530      4758
46.540      4685
46.550      4452
46.560      4285
46.570      4378
46.580      4512
46.590      4398
46.600      3972
46.610      3545
46.620      3772
46.630      3745
46.640      3312
46.650      3279
46.660      2759
46.670      2759
46.680      2639
46.690      2492
46.700      2139
46.710      2013
46.720      1933
46.730      1806
46.740      1533
46.750      1506
46.760      1433
46.770      1333
46.780      1140
46.790      1026
46.800      1086
46.810       880
46.820       873
46.830       873
46.840       740
46.850       746
46.860       620
46.870       640
46.880       580
46.890       526
46.900       513
46.910       480
46.920       320
46.930       420
46.940       333
46.950       367
46.960       313
46.970       313
46.980       300
46.990       213
47.000       267
47.010       247
47.020       320
47.030       293
47.040       133
47.050       207
47.060       207
47.070       253
47.080       247
47.090       253
47.100       220
47.110       227
47.120       200
47.130       187
47.140       120
47.150       153
47.160       207
47.170       187
47.180       120
47.190       247
47.200       147
47.210       167
47.220       200
47.230        93
47.240       173
47.250       127
47.260       107
47.270       187
47.280        87
47.290        93
47.300       153
47.310       107
47.320       133
47.330       193
47.340        80
47.350       113
47.360       107
47.370       100
47.380        80
47.390        87
47.400       113
47.410        80
47.420        93
47.430        87
47.440        53
47.450       107
47.460       113
47.470        67
47.480        80
47.490        47
47.500        87
47.510        33
47.520        93
47.530        53
47.540        73
47.550       107
47.560        80
47.570        27
47.580       113
47.590        47
47.600       120
47.610        73
47.620        27
47.630        40
47.640        20
47.650       100
47.660        93
47.670        93
47.680        53
47.690        40
47.700        87
47.710        40
47.720        47
47.730        73
47.740        60
47.750        60
47.760       100
47.770        27
47.780        93
47.790        40
47.800        60
47.810        53
47.820        80
47.830        60
47.840        53
47.850        20
47.860        53
47.870        47
47.880        20
47.890        60
47.900        67
47.910        20
47.920        67
47.930        53
47.940        60
47.950        27
47.960        60
47.970        80
47.980        40
47.990        27
48.000        67
48.010        27
48.020        60
48.030        33
48.040        47
48.050        33
48.060        40
48.070        53
48.080        40
48.090        27
48.100        20
48.110        53
48.120        60
48.130        27
48.140        33
48.150        47
48.160        67
48.170        60
48.180        27
48.190        33
48.200        33
48.210        33
48.220        20
48.230        33
48.240        53
48.250        47
48.260        27
48.270        33
48.280        20
48.290        27
48.300        27
48.310        20
48.320        73
48.330        27
48.340        47
48.350        33
48.360        60
48.370        13
48.380        33
48.390        20
48.400        33
48.410        33
48.420        67
48.430        60
48.440        47
48.450        40
48.460        33
48.470        20
48.480        33
48.490        13
48.500        27
48.510        47
48.520        47
48.530        27
48.540        13
48.550        27
48.560        20
48.570        40
48.580        60
48.590        47
48.600        40
48.610        13
48.620        47
48.630        33
48.640        53
48.650        53
48.660        13
48.670        47
48.680        40
48.690        33
48.700        40
48.710        47
48.720        33
48.730        40
48.740        33
48.750        27
48.760        20
48.770        33
48.780        40
48.790        73
48.800        27
48.810        20
48.820        27
48.830        27
48.840        40
48.850        27
48.860        33
48.870        20
48.880        27
48.890        53
48.900        47
48.910        27
48.920        20
48.930        13
48.940        67
48.950        20
48.960        40
48.970        33
48.980        27
48.990        67
49.000        27
49.010        33
49.020        20
49.030        47
49.040        40
49.050        27
49.060        13
49.070        47
49.080        20
49.090        27
49.100        60
49.110        60
49.120        40
49.130        20
49.140        33
49.150        13
49.160        53
49.170        47
49.180        47
49.190        27
49.200        20
49.210        40
49.220        40
49.230        27
49.240        27
49.250        47
49.260        73
49.270        20
49.280        47
49.290        27
49.300        27
49.310        13
49.320         7
49.330        53
49.340        27
49.350         7
49.360        53
49.370        33
49.380        20
49.390        40
49.400        40
49.410        20
49.420        40
49.430        33
49.440        13
49.450        27
49.460        47
49.470        13
49.480        60
49.490        27
49.500        47
49.510        53
49.520        47
49.530        13
49.540        20
49.550        20
49.560        20
49.570        33
49.580        33
49.590        53
49.600        33
49.610        13
49.620        27
49.630        53
49.640        53
49.650        33
49.660        27
49.670        27
49.680        20
49.690        27
49.700        47
49.710        13
49.720        40
49.730        40
49.740        33
49.750        33
49.760        33
49.770        33
49.780        47
49.790        27
49.800        27
49.810        40
49.820        20
49.830        33
49.840        47
49.850        40
49.860        20
49.870        67
49.880        33
49.890        27
49.900        53
49.910        40
49.920        33
49.930        40
49.940        40
49.950        27
49.960        60
49.970        33
49.980        20
49.990        27
50.000        47
50.010        47
50.020        27
50.030        13
50.040        47
50.050        13
50.060         0
50.070        27
50.080        40
50.090        27
50.100        33
50.110        20
50.120         7
50.130        13
50.140        33
50.150        40
50.160        27
50.170        33
50.180        33
50.190        47
50.200        13
50.210         7
50.220        27
50.230        13
50.240        60
50.250        27
50.260        53
50.270        47
50.280        33
50.290        27
50.300        40
50.310        33
50.320        13
50.330        20
50.340        40
50.350        33
50.360        33
50.370        33
50.380        20
50.390        27
50.400        33
50.410        40
50.420        27
50.430        20
50.440        40
50.450        53
50.460        13
50.470        47
50.480         7
50.490        20
50.500        13
50.510        33
50.520        40
50.530        40
50.540        20
50.550        20
50.560         7
50.570        40
50.580        40
50.590        33
50.600        60
50.610        13
50.620        33
50.630        20
50.640        33
50.650        60
50.660        40
50.670        33
50.680        47
50.690        13
50.700        53
50.710        40
50.720        20
50.730        40
50.740        40
50.750        40
50.760        13
50.770         0
50.780        40
50.790        33
50.800        33
50.810        33
50.820        53
50.830        60
50.840        40
50.850        20
50.860        27
50.870        47
50.880        33
50.890        53
50.900        60
50.910        27
50.920        47
50.930        40
50.940         7
50.950        27
50.960        47
50.970        67
50.980        40
50.990         7
51.000        20
51.010        53
51.020        20
51.030         7
51.040        73
51.050        20
51.060        13
51.070        67
51.080        33
51.090        40
51.100        20
51.110        40
51.120        60
51.130        53
51.140        20
51.150        13
51.160        20
51.170        40
51.180        33
51.190        60
51.200        33
51.210         0
51.220        13
51.230        73
51.240        67
51.250        33
51.260        20
51.270        40
51.280        33
51.290        87
51.300        47
51.310        27
51.320        40
51.330        33
51.340        20
51.350        20
51.360        47
51.370        53
51.380        47
51.390        40
51.400        33
51.410        13
51.420        47
51.430        73
51.440        67
51.450        33
51.460        53
51.470        53
51.480        73
51.490        27
51.500        67
51.510        40
51.520        27
51.530        40
51.540        13
51.550        20
51.560        33
51.570        40
51.580        33
51.590        33
51.600        47
51.610        53
51.620        33
51.630        33
51.640        40
51.650        47
51.660        33
51.670        33
51.680        67
51.690        67
51.700        27
51.710         7
51.720        67
51.730        27
51.740        47
51.750        33
51.760        60
51.770        47
51.780        27
51.790        60
51.800        47
51.810        73
51.820        47
51.830        60
51.840        53
51.850        60
51.860        67
51.870        73
51.880        60
51.890        47
51.900        13
51.910        67
51.920        67
51.930        13
51.940        40
51.950        53
51.960        33
51.970        47
51.980        33
51.990        53
52.000        67
52.010        53
52.020        40
52.030        60
52.040        47
52.050        73
52.060        47
52.070        40
52.080        27
52.090        87
52.100        60
52.110        53
52.120        53
52.130        67
52.140        53
52.150        53
52.160        53
52.170        60
52.180        93
52.190        87
52.200        93
52.210        53
52.220        27
52.230        47
52.240        67
52.250        47
52.260        53
52.270        47
52.280        53
52.290        47
52.300        73
52.310        40
52.320        73
52.330        80
52.340        47
52.350        40
52.360        93
52.370        73
52.380        53
52.390        60
52.400        80
52.410        67
52.420        60
52.430        80
52.440        60
52.450       107
52.460       120
52.470        73
52.480        33
52.490       100
52.500       120
52.510        87
52.520       167
52.530       127
52.540        87
52.550       127
52.560       173
52.570       213
52.580       187
52.590       200
52.600       287
52.610       353
52.620       413
52.630       380
52.640       566
52.650       640
52.660       666
52.670       860
52.680       973
52.690      1220
52.700      1086
52.710       973
52.720       833
52.730       746
52.740       540
52.750       493
52.760       433
52.770       340
52.780       360
52.790       387
52.800       460
52.810       700
52.820       440
52.830       560
52.840       540
52.850       586
52.860       606
52.870       473
52.880       393
52.890       247
52.900       147
52.910       120
52.920       133
52.930       120
52.940        80
52.950       113
52.960        80
52.970       107
52.980       100
52.990        93
53.000        73
53.010        93
53.020        40
53.030        87
53.040        27
53.050        40
53.060        60
53.070        47
53.080        27
53.090        47
53.100        53
53.110        60
53.120        40
53.130        67
53.140        93
53.150        60
53.160        67
53.170        60
53.180        40
53.190        53
53.200        73
53.210        73
53.220        20
53.230        93
53.240        67
53.250        80
53.260        47
53.270        33
53.280        73
53.290        47
53.300        33
53.310        27
53.320        27
53.330        27
53.340         7
53.350        60
53.360        40
53.370        53
53.380        47
53.390        13
53.400        33
53.410        47
53.420        40
53.430        47
53.440        40
53.450        33
53.460        47
53.470         7
53.480        27
53.490        40
53.500        33
53.510        53
53.520        53
53.530        73
53.540        53
53.550        27
53.560        33
53.570        40
53.580        60
53.590        27
53.600        60
53.610        67
53.620        47
53.630        33
53.640        73
53.650        67
53.660       100
53.670        40
53.680        33
53.690        47
53.700         7
53.710        47
53.720        27
53.730        40
53.740        53
53.750        27
53.760        47
53.770        73
53.780        27
53.790        33
53.800        33
53.810        20
53.820        40
53.830        13
53.840        60
53.850         7
53.860        33
53.870        33
53.880        47
53.890        47
53.900        40
53.910        13
53.920        20
53.930        27
53.940        27
53.950        33
53.960        13
53.970        53
53.980        27
53.990        33
54.000        53
54.010        53
54.020        33
54.030        27
54.040        13
54.050        20
54.060        27
54.070        33
54.080         7
54.090        33
54.100        40
54.110        20
54.120        53
54.130        27
54.140        33
54.150        20
54.160         7
54.170        20
54.180        47
54.190        33
54.200        20
54.210        20
54.220        27
54.230        60
54.240        60
54.250        13
54.260        40
54.270        40
54.280        20
54.290        33
54.300        47
54.310        13
54.320        13
54.330        13
54.340        53
54.350        33
54.360        20
54.370        20
54.380        47
54.390        27
54.400        27
54.410         7
54.420        40
54.430        13
54.440        27
54.450        40
54.460        33
54.470        40
54.480         7
54.490        27
54.500        47
54.510        13
54.520        40
54.530        27
54.540        13
54.550         0
54.560        20
54.570        27
54.580        47
54.590        40
54.600        40
54.610        27
54.620        27
54.630        67
54.640         7
54.650        33
54.660        27
54.670        20
54.680        33
54.690        53
54.700        40
54.710        47
54.720         0
54.730        27
54.740         0
54.750        20
54.760        33
54.770        13
54.780        33
54.790        33
54.800        27
54.810        27
54.820        47
54.830        40
54.840        33
54.850        33
54.860        13
54.870        13
54.880        13
54.890        13
54.900        20
54.910        20
54.920        60
54.930        33
54.940         7
54.950        40
54.960         7
54.970         7
54.980        33
54.990        40
55.000        33
55.010        20
55.020        40
55.030        20
55.040        40
55.050        13
55.060        20
55.070        27
55.080        33
55.090        47
55.100        13
55.110        20
55.120         7
55.130        33
55.140        67
55.150        13
55.160         7
55.170        47
55.180         7
55.190        47
55.200        13
55.210         0
55.220        13
55.230        13
55.240        20
55.250        20
55.260        13
55.270        13
55.280        27
55.290        27
55.300        33
55.310        20
55.320        53
55.330        33
55.340        20
55.350         7
55.360        47
55.370        13
55.380        40
55.390        40
55.400        27
55.410        20
55.420        13
55.430        33
55.440         7
55.450        47
55.460        13
55.470         7
55.480        40
55.490        27
55.500        13
55.510        27
55.520        13
55.530        13
55.540        13
55.550        40
55.560        27
55.570         7
55.580         7
55.590        13
55.600        20
55.610        13
55.620        20
55.630         0
55.640        20
55.650        27
55.660        13
55.670        13
55.680        40
55.690        20
55.700        13
55.710        13
55.720        33
55.730        40
55.740        27
55.750        13
55.760         7
55.770        40
55.780        20
55.790        27
55.800        33
55.810        20
55.820        13
55.830        20
55.840        40
55.850        20
55.860        20
55.870        33
55.880        27
55.890        40
55.900        27
55.910         7
55.920        27
55.930        20
55.940        27
55.950        33
55.960        13
55.970        33
55.980        20
55.990        13
56.000        13
56.010        20
56.020        13
56.030        27
56.040        27
56.050        13
56.060        20
56.070        13
56.080        20
56.090        13
56.100        13
56.110        13
56.120         0
56.130        20
56.140        27
56.150        20
56.160        27
56.170        13
56.180        13
56.190         7
56.200        20
56.210        47
56.220        33
56.230        27
56.240        27
56.250         0
56.260        27
56.270        13
56.280        20
56.290        40
56.300         7
56.310        33
56.320        40
56.330         7
56.340         7
56.350         7
56.360        33
56.370         0
56.380        13
56.390        13
56.400        27
56.410        20
56.420        20
56.430        13
56.440        13
56.450        20
56.460        20
56.470        27
56.480         7
56.490        20
56.500         0
56.510        27
56.520        33
56.530         7
56.540         7
56.550         7
56.560        20
56.570        33
56.580        13
56.590         7
56.600        27
56.610        13
56.620        13
56.630        33
56.640        33
56.650         7
56.660        20
56.670        27
56.680         7
56.690        13
56.700        47
56.710        20
56.720        40
56.730        33
56.740        13
56.750         0
56.760        27
56.770        20
56.780        33
56.790        40
56.800        13
56.810        13
56.820        27
56.830         7
56.840        13
56.850        27
56.860         0
56.870        20
56.880         7
56.890        13
56.900         0
56.910        27
56.920        13
56.930        13
56.940        33
56.950        20
56.960        53
56.970         0
56.980        27
56.990        27
57.000        47
57.010        20
57.020        27
57.030        27
57.040        13
57.050         0
57.060        27
57.070        13
57.080        13
57.090         7
57.100        20
57.110        40
57.120        20
57.130        13
57.140        20
57.150        20
57.160         7
57.170        20
57.180        40
57.190        47
57.200        20
57.210        13
57.220        20
57.230        20
57.240        27
57.250        20
57.260        20
57.270        13
57.280        13
57.290        13
57.300         7
57.310        13
57.320         7
57.330        13
57.340        13
57.350         7
57.360        13
57.370        47
57.380        40
57.390        20
57.400        20
57.410        20
57.420         7
57.430        13
57.440        20
57.450        33
57.460        13
57.470        33
57.480        20
57.490        20
57.500         0
57.510        27
57.520         7
57.530        33
57.540         7
57.550        20
57.560        13
57.570        27
57.580        20
57.590        13
57.600        20
57.610        47
57.620        20
57.630        33
57.640        13
57.650        27
57.660        27
57.670         7
57.680        67
57.690        33
57.700         7
57.710        53
57.720        20
57.730        13
57.740        73
57.750        13
57.760        33
57.770        33
57.780        47
57.790        40
57.800        47
57.810        33
57.820        20
57.830        53
57.840        67
57.850        27
57.860        40
57.870        60
57.880        33
57.890        20
57.900        60
57.910        13
57.920        80
57.930        40
57.940        47
57.950        33
57.960        33
57.970        73
57.980        27
57.990        53
58.000        47
58.010        47
58.020        40
58.030        53
58.040        47
58.050        60
58.060        27
58.070        47
58.080        20
58.090        27
58.100         0
58.110        40
58.120        47
58.130         0
58.140        13
58.150        33
58.160        27
58.170         7
58.180        20
58.190        27
58.200        27
58.210        27
58.220        27
58.230        13
58.240        13
58.250        13
58.260        27
58.270         7
58.280        13
58.290         7
58.300        27
58.310        13
58.320         7
58.330        27
58.340        13
58.350        20
58.360        20
58.370        13
58.380        13
58.390        27
58.400        27
58.410        33
58.420        40
58.430        13
58.440        33
58.450        20
58.460        27
58.470         7
58.480        13
58.490        40
58.500        13
58.510        20
58.520        13
58.530        13
58.540        13
58.550         7
58.560        33
58.570        13
58.580        47
58.590        27
58.600        33
58.610        13
58.620        20
58.630        13
58.640        27
58.650        20
58.660        13
58.670         7
58.680        33
58.690        13
58.700        20
58.710        33
58.720         7
58.730         7
58.740        13
58.750        27
58.760        27
58.770        33
58.780        13
58.790        20
58.800         7
58.810        33
58.820        27
58.830         7
58.840        20
58.850        13
58.860        33
58.870        20
58.880        13
58.890        20
58.900         7
58.910        27
58.920        13
58.930        20
58.940        27
58.950        13
58.960         7
58.970         0
58.980        20
58.990        27
59.000        20
59.010         7
59.020        27
59.030        27
59.040        27
59.050        20
59.060        13
59.070         0
59.080        13
59.090         7
59.100        27
59.110        20
59.120        20
59.130        13
59.140        27
59.150        40
59.160         7
59.170        27
59.180        13
59.190        20
59.200        27
59.210        27
59.220        33
59.230        20
59.240        20
59.250        33
59.260        27
59.270        33
59.280         7
59.290         0
59.300         7
59.310        47
59.320        20
59.330        13
59.340        13
59.350         0
59.360        20
59.370        33
59.380        40
59.390        40
59.400        13
59.410        13
59.420         7
59.430         7
59.440        20
59.450        27
59.460        13
59.470         7
59.480        27
59.490        33
59.500        33
59.510        13
59.520         7
59.530        13
59.540         7
59.550        20
59.560        20
59.570        27
59.580        20
59.590        27
59.600         7
59.610        20
59.620        33
59.630        13
59.640         7
59.650        33
59.660         7
59.670         0
59.680         7
59.690        20
59.700        27
59.710        13
59.720        40
59.730         7
59.740        20
59.750        13
59.760        20
59.770        27
59.780         0
59.790         7
59.800        20
59.810        27
59.820         7
59.830        27
59.840        13
59.850         7
59.860         7
59.870         7
59.880         0
59.890        33
59.900        13
59.910        20
59.920         7
59.930        20
59.940        20
59.950        13
59.960        20
59.970        20
59.980        20
59.990         7
60.000         7
