20.000        60
20.010        53
20.020        40
20.030        60
20.040        53
20.050        67
20.060        47
20.070        40
20.080        53
20.090        60
20.100        27
20.110        33
20.120        67
20.130        20
20.140        40
20.150        40
20.160        53
20.170        60
20.180        13
20.190        47
20.200        33
20.210        27
20.220        67
20.230        33
20.240        47
20.250        73
20.260        60
20.270        40
20.280        47
20.290        47
20.300        53
20.310        33
20.320        33
20.330        27
20.340        53
20.350        53
20.360        40
20.370        53
20.380        47
20.390        33
20.400        53
20.410        47
20.420        53
20.430        40
20.440        33
20.450        40
20.460        33
20.470         0
20.480        33
20.490        40
20.500        40
20.510        47
20.520        13
20.530        60
20.540        20
20.550        27
20.560        40
20.570        33
20.580        60
20.590        47
20.600        53
20.610        47
20.620        40
20.630        40
20.640        40
20.650        40
20.660        40
20.670        27
20.680        53
20.690        47
20.700        47
20.710        33
20.720        53
20.730        27
20.740        47
20.750        27
20.760        47
20.770        40
20.780        60
20.790        40
20.800        53
20.810        47
20.820        27
20.830        33
20.840        33
20.850        60
20.860        33
20.870        20
20.880        67
20.890        47
20.900        53
20.910        33
20.920        40
20.930        33
20.940        27
20.950        40
20.960        27
20.970        47
20.980        13
20.990        53
21.000        27
21.010        27
21.020        40
21.030        27
21.040        47
21.050        47
21.060        33
21.070        40
21.080        60
21.090        67
21.100        73
21.110        40
21.120        33
21.130        47
21.140        47
21.150        40
21.160        73
21.170        33
21.180        67
21.190        47
21.200        20
21.210        40
21.220        73
21.230        33
21.240        27
21.250        40
21.260        27
21.270        47
21.280        53
21.290        20
21.300        20
21.310        60
21.320        13
21.330        27
21.340        40
21.350        47
21.360        27
21.370        33
21.380        40
21.390        20
21.400        33
21.410        27
21.420        47
21.430        73
21.440        33
21.450        27
21.460        53
21.470        73
21.480        40
21.490        33
21.500        20
21.510        40
21.520        27
21.530        47
21.540        73
21.550        53
21.560        27
21.570        27
21.580        33
21.590        33
21.600        47
21.610        73
21.620        60
21.630        33
21.640        40
21.650        67
21.660        13
21.670        33
21.680        20
21.690        47
21.700        40
21.710        47
21.720        33
21.730        20
21.740        47
21.750        20
21.760        40
21.770        33
21.780        53
21.790        13
21.800        67
21.810        13
21.820        53
21.830        40
21.840        33
21.850        80
21.860        47
21.870        53
21.880        40
21.890        33
21.900        13
21.910        20
21.920        33
21.930        27
21.940        47
21.950        33
21.960        47
21.970        80
21.980        27
21.990        47
22.000        40
22.010        53
22.020        53
22.030        67
22.040        20
22.050        53
22.060        60
22.070        33
22.080        13
22.090        47
22.100         7
22.110        53
22.120        53
22.130        53
22.140        47
22.150        20
22.160        33
22.170        53
22.180        33
22.190        73
22.200        47
22.210        27
22.220        27
22.230        53
22.240        33
22.250        47
22.260        47
22.270        33
22.280        60
22.290        47
22.300        27
22.310        40
22.320        60
22.330        40
22.340        27
22.350        60
22.360        47
22.370        40
22.380        47
22.390        73
22.400        47
22.410        60
22.420        67
22.430        13
22.440        80
22.450        47
22.460        27
22.470        33
22.480        20
22.490        60
22.500        47
22.510        53
22.520        60
22.530        67
22.540        60
22.550        33
22.560        33
22.570        13
22.580        40
22.590        53
22.600        47
22.610        53
22.620        73
22.630        53
22.640        40
22.650        13
22.660        53
22.670        87
22.680        20
22.690        67
22.700        40
22.710        33
22.720        33
22.730        60
22.740        53
22.750        33
22.760        40
22.770        87
22.780        47
22.790        53
22.800        40
22.810        40
22.820        53
22.830        33
22.840        13
22.850        27
22.860        40
22.870        27
22.880        67
22.890        47
22.900        33
22.910        47
22.920        67
22.930        27
22.940        60
22.950        47
22.960        40
22.970        60
22.980        67
22.990        60
23.000        20
23.010        40
23.020        27
23.030         7
23.040        53
23.050        53
23.060        47
23.070        60
23.080        33
23.090        40
23.100        73
23.110        27
23.120        60
23.130        33
23.140        67
23.150        20
23.160        40
23.170        13
23.180        20
23.190        47
23.200        60
23.210        33
23.220        40
23.230        47
23.240        33
23.250        60
23.260        27
23.270        53
23.280        33
23.290        40
23.300        53
23.310        33
23.320        33
23.330        33
23.340        60
23.350        20
23.360        40
23.370        33
23.380        27
23.390        60
23.400        27
23.410        40
23.420        60
23.430        67
23.440        33
23.450        33
23.460        33
23.470        53
23.480        60
23.490        33
23.500        47
23.510        33
23.520        20
23.530        33
23.540        27
23.550        40
23.560        53
23.570        40
23.580        47
23.590        27
23.600        20
23.610        20
23.620        20
23.630        13
23.640        40
23.650        27
23.660        40
23.670        53
23.680        20
23.690        53
23.700        67
23.710        73
23.720        27
23.730        33
23.740        47
23.750        13
23.760        40
23.770        60
23.780        47
23.790        93
23.800        27
23.810        13
23.820        40
23.830        13
23.840        40
23.850        33
23.860        33
23.870        40
23.880        27
23.890        47
23.900        27
23.910        53
23.920         7
23.930        33
23.940        40
23.950        47
23.960        47
23.970        33
23.980         7
23.990        20
24.000        27
24.010        53
24.020        40
24.030        33
24.040         0
24.050        40
24.060        40
24.070        33
24.080        40
24.090        40
24.100        33
24.110        60
24.120        27
24.130        27
24.140        20
24.150        27
24.160        33
24.170        33
24.180        27
24.190        27
24.200        73
24.210        53
24.220        67
24.230        27
24.240        40
24.250        67
24.260        47
24.270        27
24.280        27
24.290        40
24.300        27
24.310        33
24.320        40
24.330        60
24.340        33
24.350        33
24.360        53
24.370        40
24.380        13
24.390        33
24.400        33
24.410        33
24.420        13
24.430        40
24.440        27
24.450        40
24.460        20
24.470        20
24.480        27
24.490        40
24.500        33
24.510        47
24.520        60
24.530        47
24.540        33
24.550        33
24.560        13
24.570        47
24.580        33
24.590        40
24.600        33
24.610        47
24.620        47
24.630        40
24.640        40
24.650        27
24.660        33
24.670        53
24.680        47
24.690        53
24.700        33
24.710        13
24.720        40
24.730        47
24.740        47
24.750        27
24.760        40
24.770        40
24.780        20
24.790        20
24.800        27
24.810        47
24.820        47
24.830        87
24.840        47
24.850         7
24.860        27
24.870        40
24.880        40
24.890        47
24.900        60
24.910        20
24.920       100
24.930        33
24.940        47
24.950        40
24.960        53
24.970        33
24.980        33
24.990        80
25.000        73
25.010        20
25.020        20
25.030        27
25.040        13
25.050        20
25.060        13
25.070        67
25.080        47
25.090        40
25.100        33
25.110        60
25.120        33
25.130        20
25.140        27
25.150        27
25.160        53
25.170        73
25.180        27
25.190        73
25.200        53
25.210        93
25.220        47
25.230       107
25.240        67
25.250        67
25.260        33
25.270        67
25.280        33
25.290        47
25.300        53
25.310        73
25.320        53
25.330        60
25.340        40
25.350        20
25.360        40
25.370        33
25.380        60
25.390        33
25.400       107
25.410        80
25.420        47
25.430        13
25.440        47
25.450        60
25.460        73
25.470        53
25.480        87
25.490        40
25.500        53
25.510       100
25.520        93
25.530        80
25.540       127
25.550        93
25.560       147
25.570       213
25.580       173
25.590       173
25.600        80
25.610       127
25.620        73
25.630       120
25.640        60
25.650        67
25.660        53
25.670        93
25.680        67
25.690        40
25.700        60
25.710        73
25.720        47
25.730        73
25.740        20
25.750        33
25.760        27
25.770        53
25.780        40
25.790        13
25.800        53
25.810        40
25.820        47
25.830        53
25.840        53
25.850        27
25.860         7
25.870        40
25.880        13
25.890        73
25.900        33
25.910        20
25.920        40
25.930        20
25.940        20
25.950        40
25.960        27
25.970        27
25.980        40
25.990        20
26.000        40
26.010        40
26.020        67
26.030         7
26.040        33
26.050        27
26.060        40
26.070        60
26.080        47
26.090        13
26.100        33
26.110        27
26.120        20
26.130        47
26.140        27
26.150        47
26.160        47
26.170        27
26.180        67
26.190        33
26.200        67
26.210        20
26.220        33
26.230        47
26.240        27
26.250        67
26.260        27
26.270        33
26.280        13
26.290        33
26.300        20
26.310        33
26.320        27
26.330        27
26.340        60
26.350        47
26.360        47
26.370        87
26.380        60
26.390        27
26.400        13
26.410        27
26.420        33
26.430        40
26.440        13
26.450        47
26.460        20
26.470        33
26.480        60
26.490        13
26.500        40
26.510        20
26.520         7
26.530        27
26.540        27
26.550        27
26.560        27
26.570        47
26.580        27
26.590        27
26.600        40
26.610        27
26.620        47
26.630        33
26.640        40
26.650        27
26.660        47
26.670        53
26.680        20
26.690        27
26.700        13
26.710        13
26.720        40
26.730        27
26.740        27
26.750        27
26.760        13
26.770        47
26.780        20
26.790        27
26.800        27
26.810        53
26.820        27
26.830        27
26.840        27
26.850        20
26.860        27
26.870        47
26.880        13
26.890        20
26.900        33
26.910        40
26.920        20
26.930        20
26.940        20
26.950        33
26.960        53
26.970         0
26.980        13
26.990        47
27.000        27
27.010        33
27.020        40
27.030        20
27.040        40
27.050        33
27.060        40
27.070        40
27.080        20
27.090        33
27.100        33
27.110        40
27.120        60
27.130        33
27.140        20
27.150        13
27.160        20
27.170        33
27.180        40
27.190        33
27.200        33
27.210        33
27.220        33
27.230        33
27.240        47
27.250        33
27.260        20
27.270        13
27.280        20
27.290        13
27.300        13
27.310        40
27.320         7
27.330        40
27.340        33
27.350        33
27.360        27
27.370        33
27.380        53
27.390        27
27.400        73
27.410        27
27.420        27
27.430        33
27.440        13
27.450        27
27.460        40
27.470        40
27.480        20
27.490        67
27.500        20
27.510        27
27.520        67
27.530        27
27.540        20
27.550        40
27.560        20
27.570        40
27.580        27
27.590        27
27.600        27
27.610        53
27.620        27
27.630        47
27.640        33
27.650        40
27.660        33
27.670        33
27.680        40
27.690        20
27.700        20
27.710        20
27.720        20
27.730         7
27.740        40
27.750        40
27.760         7
27.770        27
27.780        33
27.790        27
27.800        47
27.810        33
27.820        47
27.830        60
27.840        27
27.850        33
27.860        27
27.870        33
27.880        60
27.890        27
27.900         7
27.910        20
27.920        20
27.930        20
27.940        13
27.950        20
27.960        20
27.970        47
27.980        47
27.990        20
28.000        13
28.010        27
28.020        33
28.030         7
28.040        40
28.050        47
28.060        33
28.070        20
28.080        13
28.090         7
28.100        47
28.110        20
28.120        27
28.130        33
28.140        60
28.150        40
28.160        20
28.170        40
28.180         7
28.190        20
28.200        27
28.210        47
28.220        33
28.230        20
28.240        27
28.250        60
28.260        20
28.270        40
28.280        33
28.290        27
28.300        33
28.310        60
28.320        33
28.330        33
28.340        27
28.350        27
28.360        13
28.370        20
28.380        33
28.390        53
28.400        20
28.410        27
28.420        20
28.430        47
28.440        40
28.450        60
28.460        13
28.470        40
28.480        20
28.490        20
28.500        47
28.510        60
28.520        27
28.530        20
28.540        33
28.550        27
28.560        13
28.570        27
28.580        13
28.590        40
28.600        13
28.610        13
28.620        60
28.630        53
28.640        40
28.650        27
28.660        27
28.670        27
28.680        20
28.690        33
28.700        13
28.710        27
28.720        20
28.730        20
28.740        33
28.750        47
28.760         7
28.770        20
28.780        13
28.790        40
28.800        27
28.810        40
28.820         7
28.830        20
28.840        20
28.850         7
28.860        27
28.870         0
28.880        33
28.890        33
28.900        13
28.910        20
28.920        20
28.930        20
28.940        20
28.950        47
28.960        27
28.970        53
28.980        33
28.990        33
29.000        27
29.010        60
29.020        33
29.030        20
29.040        53
29.050        33
29.060        13
29.070        47
29.080        27
29.090        27
29.100        33
29.110        20
29.120        27
29.130        27
29.140        20
29.150        27
29.160        13
29.170        40
29.180        27
29.190        20
29.200        60
29.210        27
29.220        47
29.230        40
29.240        20
29.250        33
29.260        20
29.270        47
29.280        47
29.290        13
29.300         7
29.310        27
29.320        20
29.330        20
29.340         7
29.350        40
29.360        33
29.370        40
29.380        33
29.390        47
29.400        20
29.410        27
29.420        40
29.430        47
29.440         7
29.450        27
29.460        20
29.470        33
29.480        33
29.490        47
29.500        20
29.510        53
29.520        47
29.530        27
29.540        53
29.550        27
29.560        13
29.570        13
29.580        20
29.590        13
29.600        27
29.610        60
29.620        53
29.630        27
29.640         7
29.650        53
29.660        40
29.670        33
29.680        33
29.690        40
29.700        27
29.710        20
29.720        47
29.730         7
29.740        40
29.750        47
29.760         7
29.770        20
29.780        33
29.790        20
29.800        27
29.810        33
29.820        40
29.830        33
29.840        20
29.850        27
29.860        27
29.870        20
29.880        20
29.890        13
29.900        33
29.910        20
29.920        20
29.930        13
29.940        27
29.950        20
29.960        27
29.970        47
29.980         7
29.990        20
30.000        47
30.010        40
30.020        33
30.030         7
30.040        27
30.050        40
30.060        27
30.070        13
30.080        47
30.090        47
30.100        40
30.110        33
30.120        33
30.130        33
30.140        20
30.150        40
30.160        47
30.170         7
30.180        20
30.190        33
30.200        33
30.210        40
30.220        67
30.230        20
30.240        27
30.250         7
30.260        47
30.270        33
30.280        27
30.290        53
30.300         7
30.310        27
30.320         0
30.330        33
30.340        13
30.350        53
30.360        20
30.370        27
30.380        40
30.390         7
30.400        53
30.410        13
30.420        27
30.430        33
30.440        47
30.450         7
30.460        27
30.470        47
30.480        40
30.490        27
30.500        40
30.510        20
30.520        20
30.530        33
30.540        13
30.550        40
30.560        60
30.570        40
30.580        27
30.590        27
30.600        27
30.610        40
30.620        53
30.630        20
30.640        20
30.650        33
30.660        27
30.670        27
30.680        47
30.690        27
30.700        27
30.710        20
30.720        20
30.730        27
30.740        40
30.750        33
30.760        40
30.770        27
30.780        27
30.790        40
30.800        47
30.810        20
30.820        20
30.830        20
30.840        20
30.850        60
30.860        33
30.870        27
30.880        20
30.890        47
30.900        47
30.910        33
30.920         7
30.930        40
30.940        73
30.950        33
30.960        33
30.970        27
30.980         7
30.990        20
31.000        13
31.010        33
31.020         7
31.030        20
31.040        33
31.050        27
31.060        27
31.070        47
31.080        73
31.090        13
31.100        33
31.110        27
31.120        20
31.130        20
31.140        27
31.150        47
31.160        33
31.170        33
31.180        53
31.190        67
31.200        27
31.210        47
31.220        60
31.230        33
31.240        47
31.250         7
31.260        27
31.270        40
31.280        53
31.290        40
31.300        27
31.310        33
31.320        33
31.330        33
31.340        33
31.350        87
31.360        13
31.370        27
31.380        20
31.390        40
31.400         7
31.410        53
31.420        60
31.430        20
31.440        73
31.450        53
31.460        40
31.470        40
31.480        60
31.490        20
31.500        47
31.510        13
31.520        40
31.530        33
31.540        27
31.550        33
31.560        47
31.570        40
31.580        53
31.590        47
31.600        27
31.610        33
31.620       107
31.630        40
31.640        53
31.650        47
31.660        73
31.670        47
31.680        47
31.690        40
31.700        40
31.710        47
31.720        47
31.730        47
31.740        53
31.750        47
31.760        40
31.770        53
31.780        80
31.790        67
31.800        47
31.810        20
31.820        67
31.830       113
31.840        73
31.850        47
31.860        93
31.870        67
31.880       100
31.890        80
31.900       107
31.910       120
31.920        80
31.930        67
31.940       120
31.950       100
31.960       127
31.970       187
31.980        93
31.990       107
32.000       160
32.010       167
32.020       107
32.030       133
32.040       193
32.050       147
32.060       187
32.070       167
32.080       167
32.090       200
32.100       220
32.110       213
32.120       253
32.130       107
32.140       287
32.150       207
32.160       160
32.170       147
32.180       173
32.190       227
32.200       233
32.210       213
32.220       167
32.230       193
32.240       260
32.250       180
32.260       200
32.270       213
32.280       140
32.290       213
32.300       160
32.310       147
32.320       160
32.330       127
32.340       187
32.350       113
32.360       160
32.370       100
32.380        67
32.390       100
32.400       113
32.410       140
32.420        87
32.430        87
32.440       107
32.450        60
32.460        87
32.470       113
32.480        73
32.490       100
32.500        73
32.510        73
32.520        47
32.530        40
32.540        40
32.550        27
32.560        40
32.570        93
32.580        47
32.590        73
32.600        60
32.610        33
32.620        73
32.630        53
32.640        40
32.650        87
32.660        60
32.670        53
32.680        27
32.690        27
32.700        73
32.710        53
32.720        33
32.730        60
32.740        53
32.750        47
32.760        40
32.770        33
32.780        53
32.790        33
32.800        33
32.810        67
32.820        40
32.830        67
32.840        33
32.850        47
32.860        13
32.870        33
32.880        80
32.890        27
32.900        40
32.910        60
32.920        33
32.930        20
32.940        27
32.950        47
32.960        47
32.970        27
32.980        27
32.990        20
33.000        47
33.010        33
33.020        53
33.030         0
33.040        27
33.050        33
33.060        33
33.070        47
33.080        20
33.090        20
33.100        60
33.110        53
33.120        20
33.130        20
33.140        67
33.150        33
33.160        40
33.170        73
33.180        47
33.190        60
33.200        40
33.210        47
33.220        47
33.230        60
33.240        60
33.250        33
33.260        33
33.270        13
33.280        67
33.290        33
33.300        33
33.310        20
33.320        67
33.330        27
33.340        13
33.350         0
33.360        33
33.370        27
33.380         7
33.390        47
33.400        27
33.410        47
33.420        47
33.430        40
33.440        20
33.450        27
33.460        33
33.470        47
33.480        13
33.490        47
33.500        47
33.510        40
33.520        27
33.530        33
33.540        40
33.550        33
33.560        40
33.570        53
33.580        40
33.590        20
33.600        20
33.610         0
33.620        40
33.630        40
33.640        33
33.650        27
33.660        20
33.670        13
33.680         0
33.690        13
33.700         7
33.710        13
33.720        47
33.730        33
33.740         7
33.750        13
33.760        67
33.770        40
33.780        33
33.790        33
33.800         7
33.810        20
33.820        13
33.830        20
33.840        53
33.850        13
33.860        33
33.870        20
33.880        33
33.890        33
33.900        20
33.910        47
33.920        53
33.930         7
33.940        20
33.950        53
33.960        27
33.970        33
33.980        33
33.990        33
34.000        20
34.010        20
34.020        27
34.030        27
34.040        33
34.050        20
34.060        60
34.070         7
34.080        40
34.090        33
34.100        40
34.110        33
34.120        27
34.130         7
34.140        27
34.150        13
34.160        27
34.170        13
34.180        27
34.190        53
34.200        27
34.210        13
34.220        27
34.230         7
34.240        27
34.250         7
34.260        13
34.270        33
34.280        27
34.290        13
34.300        40
34.310        20
34.320         0
34.330        33
34.340        33
34.350        40
34.360        47
34.370        33
34.380        27
34.390        20
34.400        13
34.410        33
34.420        27
34.430        27
34.440        47
34.450        53
34.460        13
34.470        27
34.480         0
34.490         7
34.500        20
34.510        47
34.520        20
34.530        53
34.540        20
34.550        20
34.560        33
34.570         7
34.580        33
34.590        47
34.600        27
34.610        27
34.620        33
34.630        20
34.640        13
34.650        53
34.660        27
34.670         7
34.680        27
34.690        47
34.700        20
34.710        47
34.720        40
34.730        20
34.740         7
34.750        27
34.760        33
34.770        27
34.780        60
34.790        27
34.800         7
34.810        20
34.820        13
34.830        20
34.840        40
34.850        53
34.860        33
34.870        47
34.880        33
34.890        20
34.900        47
34.910        40
34.920        60
34.930        40
34.940        60
34.950        47
34.960        60
34.970        40
34.980        27
34.990       113
35.000        60
35.010        60
35.020       113
35.030       233
35.040       180
35.050       213
35.060       200
35.070       160
35.080       287
35.090       207
35.100       147
35.110       253
35.120       227
35.130       273
35.140       393
35.150       420
35.160       360
35.170       293
35.180       360
35.190       273
35.200       307
35.210       207
35.220       160
35.230       133
35.240       227
35.250       167
35.260       140
35.270       213
35.280       133
35.290       133
35.300        73
35.310       100
35.320        33
35.330        47
35.340        47
35.350        40
35.360        53
35.370        33
35.380         7
35.390        27
35.400        13
35.410        27
35.420        20
35.430        27
35.440        20
35.450        33
35.460        33
35.470        33
35.480        47
35.490        27
35.500        20
35.510        20
35.520         7
35.530         7
35.540        20
35.550         0
35.560        13
35.570        33
35.580        40
35.590        33
35.600        20
35.610         0
35.620        33
35.630        40
35.640        20
35.650        33
35.660        40
35.670        27
35.680         0
35.690        20
35.700        27
35.710        27
35.720        27
35.730        27
35.740        27
35.750        20
35.760        20
35.770        13
35.780        40
35.790        40
35.800        27
35.810         0
35.820        20
35.830        20
35.840        40
35.850        40
35.860         0
35.870        33
35.880        27
35.890         7
35.900        13
35.910         7
35.920        20
35.930        47
35.940        13
35.950        47
35.960        33
35.970        20
35.980        40
35.990        27
36.000        27
36.010         7
36.020        20
36.030        27
36.040        27
36.050        53
36.060        20
36.070         7
36.080        27
36.090        13
36.100         7
36.110        40
36.120        20
36.130         7
36.140        33
36.150        27
36.160        27
36.170        53
36.180        13
36.190        27
36.200        27
36.210        33
36.220        20
36.230        27
36.240        33
36.250        40
36.260         7
36.270        33
36.280        27
36.290        13
36.300         7
36.310        27
36.320        67
36.330        27
36.340        13
36.350        33
36.360        13
36.370        40
36.380         7
36.390        27
36.400        13
36.410        40
36.420        47
36.430        13
36.440        13
36.450         0
36.460        27
36.470        20
36.480        33
36.490        20
36.500        20
36.510        27
36.520        13
36.530        27
36.540        27
36.550        13
36.560        40
36.570        13
36.580        47
36.590        20
36.600        27
36.610        33
36.620        13
36.630        20
36.640        20
36.650        33
36.660         7
36.670        27
36.680        20
36.690        27
36.700        20
36.710        27
36.720        20
36.730        27
36.740        33
36.750        40
36.760        20
36.770         7
36.780         7
36.790        13
36.800        33
36.810        13
36.820        27
36.830         7
36.840        40
36.850        27
36.860        27
36.870        20
36.880        20
36.890        53
36.900        27
36.910        47
36.920        67
36.930        20
36.940        47
36.950        60
36.960        47
36.970        27
36.980        73
36.990        33
37.000        13
37.010        40
37.020        20
37.030        40
37.040        40
37.050        60
37.060        27
37.070        13
37.080        33
37.090        20
37.100         7
37.110        20
37.120        20
37.130        27
37.140        20
37.150        13
37.160        60
37.170        33
37.180        13
37.190        27
37.200        27
37.210        40
37.220        33
37.230         7
37.240        20
37.250        20
37.260        40
37.270        27
37.280        13
37.290        13
37.300        20
37.310        33
37.320        40
37.330        27
37.340        20
37.350        27
37.360        20
37.370        13
37.380        33
37.390        13
37.400        20
37.410        27
37.420        27
37.430        33
37.440         7
37.450        27
37.460        27
37.470        33
37.480        33
37.490        53
37.500        27
37.510         0
37.520        53
37.530        40
37.540         7
37.550        33
37.560        13
37.570        13
37.580        33
37.590        27
37.600        47
37.610        20
37.620        40
37.630        60
37.640        27
37.650        73
37.660        60
37.670        33
37.680        33
37.690        73
37.700        67
37.710        80
37.720       140
37.730        87
37.740       207
37.750       187
37.760       193
37.770       153
37.780       180
37.790       120
37.800       120
37.810       107
37.820       107
37.830       153
37.840        93
37.850        73
37.860        80
37.870        80
37.880        87
37.890       140
37.900        73
37.910        40
37.920        67
37.930        20
37.940        33
37.950        40
37.960        27
37.970        20
37.980        20
37.990        27
38.000        20
38.010        27
38.020        20
38.030        53
38.040        20
38.050        40
38.060        33
38.070         7
38.080        40
38.090        27
38.100         0
38.110        27
38.120        33
38.130        47
38.140        27
38.150        20
38.160        20
38.170         7
38.180        27
38.190        13
38.200        47
38.210        40
38.220         7
38.230        27
38.240        27
38.250        33
38.260        27
38.270        33
38.280        20
38.290        20
38.300        13
38.310        33
38.320        40
38.330        47
38.340        33
38.350        27
38.360        20
38.370         7
38.380        27
38.390        13
38.400        13
38.410        13
38.420        33
38.430        33
38.440        40
38.450        27
38.460         0
38.470        13
38.480        33
38.490        13
38.500        27
38.510        13
38.520        13
38.530         7
38.540         7
38.550        33
38.560        13
38.570        13
38.580        27
38.590        13
38.600        27
38.610        33
38.620        13
38.630        27
38.640        20
38.650        20
38.660        20
38.670        13
38.680        40
38.690         0
38.700        13
38.710        13
38.720        47
38.730        27
38.740        13
38.750        27
38.760        27
38.770        27
38.780        20
38.790        40
38.800        53
38.810        67
38.820        20
38.830        27
38.840         0
38.850        27
38.860        20
38.870        40
38.880        13
38.890        20
38.900        13
38.910        27
38.920        20
38.930        20
38.940        27
38.950        33
38.960        33
38.970        20
38.980         0
38.990        33
39.000        13
39.010        33
39.020        13
39.030        33
39.040        27
39.050        20
39.060        13
39.070        20
39.080        40
39.090        13
39.100        33
39.110        33
39.120        40
39.130         0
39.140        20
39.150        13
39.160         7
39.170        27
39.180        53
39.190        27
39.200        33
39.210        33
39.220        20
39.230        27
39.240        40
39.250        40
39.260        20
39.270         7
39.280        33
39.290         7
39.300        27
39.310        13
39.320        20
39.330        27
39.340        20
39.350        27
39.360        20
39.370         7
39.380        20
39.390        33
39.400        13
39.410        27
39.420        27
39.430        33
39.440        47
39.450        40
39.460        27
39.470        20
39.480        20
39.490        13
39.500        20
39.510        33
39.520        20
39.530        27
39.540        53
39.550        27
39.560        13
39.570        40
39.580        40
39.590        33
39.600        33
39.610        53
39.620        13
39.630        47
39.640        27
39.650        33
39.660        13
39.670        60
39.680        33
39.690        27
39.700        27
39.710        47
39.720        33
39.730        33
39.740        20
39.750        47
39.760        40
39.770        40
39.780        20
39.790        20
39.800        60
39.810        33
39.820        47
39.830        20
39.840        53
39.850        40
39.860        33
39.870        87
39.880        27
39.890        60
39.900        60
39.910        40
39.920        80
39.930        40
39.940        40
39.950        33
39.960        40
39.970        40
39.980        33
39.990        27
40.000        20
40.010        87
40.020        27
40.030        47
40.040        60
40.050        40
40.060        40
40.070        73
40.080        33
40.090        40
40.100        20
40.110        27
40.120         7
40.130        47
40.140        13
40.150        40
40.160         7
40.170        20
40.180        27
40.190        20
40.200        13
40.210        47
40.220        20
40.230        33
40.240        13
40.250        20
40.260        13
40.270        13
40.280        27
40.290        33
40.300        47
40.310         7
40.320        13
40.330         0
40.340        20
40.350        20
40.360         0
40.370        20
40.380         7
40.390        47
40.400        20
40.410         7
40.420        33
40.430        20
40.440        27
40.450        27
40.460        27
40.470        20
40.480        13
40.490        33
40.500        27
40.510        40
40.520        20
40.530        33
40.540        13
40.550        40
40.560        13
40.570        13
40.580        33
40.590        27
40.600         7
40.610        33
40.620        20
40.630        20
40.640        27
40.650        20
40.660        13
40.670        27
40.680        20
40.690        40
40.700         0
40.710        27
40.720        13
40.730        13
40.740        40
40.750        33
40.760        13
40.770        27
40.780        33
40.790        20
40.800        40
40.810        40
40.820        33
40.830        27
40.840        40
40.850        13
40.860        13
40.870        20
40.880        13
40.890        13
40.900        33
40.910        27
40.920        20
40.930        47
40.940        13
40.950        20
40.960         0
40.970        20
40.980         0
40.990         0
41.000        33
41.010        13
41.020        13
41.030        27
41.040         7
41.050        27
41.060        20
41.070        20
41.080         7
41.090        27
41.100        13
41.110        33
41.120         7
41.130         7
41.140        20
41.150        13
41.160        13
41.170        13
41.180        20
41.190        20
41.200        13
41.210        20
41.220        27
41.230        20
41.240        47
41.250        27
41.260        20
41.270        27
41.280        13
41.290         7
41.300        20
41.310        20
41.320        13
41.330         7
41.340        20
41.350         7
41.360        20
41.370        13
41.380        20
41.390        20
41.400        20
41.410        13
41.420        27
41.430        20
41.440        27
41.450        27
41.460        80
41.470        20
41.480        27
41.490         0
41.500         7
41.510        27
41.520        20
41.530        33
41.540        47
41.550        80
41.560        60
41.570        33
41.580        33
41.590        87
41.600        60
41.610       113
41.620       113
41.630       113
41.640       147
41.650       133
41.660       140
41.670       173
41.680       147
41.690       187
41.700       180
41.710       120
41.720       167
41.730       120
41.740        40
41.750        53
41.760       100
41.770        87
41.780       100
41.790       120
41.800       107
41.810       107
41.820        60
41.830        93
41.840        73
41.850        87
41.860        33
41.870        47
41.880        40
41.890        33
41.900        20
41.910        33
41.920         7
41.930        40
41.940        13
41.950        33
41.960        33
41.970        33
41.980         7
41.990        47
42.000        20
42.010        13
42.020        13
42.030        13
42.040        20
42.050        27
42.060        20
42.070        47
42.080        20
42.090        27
42.100        13
42.110        13
42.120        27
42.130         7
42.140        20
42.150        33
42.160        33
42.170        13
42.180        27
42.190        33
42.200        13
42.210        27
42.220        60
42.230        20
42.240         7
42.250        40
42.260        33
42.270        40
42.280        13
42.290        13
42.300         7
42.310        33
42.320        20
42.330        20
42.340         7
42.350        20
42.360        20
42.370         7
42.380        20
42.390        13
42.400         7
42.410         7
42.420        40
42.430        47
42.440        20
42.450        20
42.460         0
42.470        20
42.480        27
42.490        33
42.500        33
42.510        13
42.520        27
42.530        27
42.540        13
42.550        20
42.560        20
42.570        53
42.580        27
42.590         7
42.600        33
42.610         7
42.620        33
42.630        13
42.640        13
42.650         7
42.660        13
42.670         7
42.680         7
42.690        40
42.700        20
42.710        13
42.720        27
42.730        20
42.740        33
42.750        40
42.760        13
42.770        20
42.780        33
42.790        20
42.800        47
42.810         7
42.820        33
42.830         7
42.840        27
42.850        20
42.860        27
42.870        13
42.880        13
42.890         7
42.900        20
42.910        33
42.920        33
42.930        13
42.940        20
42.950        13
42.960         7
42.970         7
42.980        20
42.990        53
43.000         7
43.010        27
43.020        47
43.030        13
43.040        27
43.050        27
43.060        27
43.070        20
43.080        20
43.090        60
43.100        60
43.110        20
43.120        27
43.130        40
43.140        53
43.150        67
43.160        53
43.170        53
43.180        67
43.190        87
43.200       113
43.210       100
43.220       107
43.230       107
43.240       153
43.250       147
43.260       133
43.270       200
43.280       160
43.290       193
43.300       247
43.310       300
43.320       353
43.330       380
43.340       540
43.350       466
43.360       520
43.370       586
43.380       586
43.390       453
43.400       347
43.410       207
43.420       233
43.430       220
43.440       233
43.450       233
43.460       287
43.470       213
43.480       267
43.490       253
43.500       313
43.510       227
43.520       153
43.530        87
43.540        60
43.550        40
43.560        67
43.570        13
43.580        40
43.590        33
43.600        40
43.610        20
43.620        20
43.630        33
43.640        13
43.650        33
43.660        27
43.670        20
43.680         0
43.690        33
43.700        40
43.710        33
43.720        27
43.730         7
43.740        13
43.750         7
43.760        13
43.770        20
43.780        40
43.790        13
43.800        47
43.810        20
43.820        33
43.830        33
43.840        13
43.850        13
43.860        27
43.870        27
43.880        27
43.890        40
43.900        20
43.910        13
43.920        20
43.930        13
43.940        20
43.950        27
43.960        13
43.970        13
43.980        40
43.990        13
44.000        13
44.010        33
44.020        40
44.030         7
44.040        20
44.050        27
44.060        27
44.070        13
44.080         0
44.090        40
44.100        20
44.110         0
44.120        27
44.130        33
44.140        27
44.150         7
44.160         7
44.170        27
44.180        27
44.190        27
44.200        13
44.210        20
44.220        33
44.230        27
44.240        20
44.250        67
44.260        20
44.270        27
44.280        13
44.290        13
44.300        40
44.310        27
44.320        13
44.330        27
44.340        20
44.350        13
44.360        13
44.370        33
44.380        33
44.390        20
44.400        27
44.410         7
44.420        40
44.430        20
44.440        13
44.450        27
44.460        53
44.470        20
44.480         0
44.490        20
44.500        13
44.510        13
44.520        33
44.530        20
44.540        13
44.550        27
44.560        27
44.570         7
44.580        20
44.590         7
44.600        27
44.610        27
44.620        20
44.630        40
44.640        33
44.650         7
44.660        13
44.670        27
44.680        20
44.690        13
44.700        27
44.710        27
44.720         7
44.730        27
44.740        27
44.750         0
44.760         7
44.770        13
44.780         7
44.790        20
44.800        33
44.810        40
44.820        27
44.830        27
44.840        40
44.850        13
44.860        13
44.870        40
44.880        20
44.890        27
44.900        27
44.910        13
44.920        53
44.930        33
44.940         0
44.950        27
44.960        20
44.970        33
44.980        20
44.990        20
45.000        20
45.010        53
45.020        20
45.030        33
45.040         7
45.050        20
45.060        40
45.070        27
45.080         7
45.090        27
45.100        27
45.110        27
45.120        33
45.130        33
45.140        60
45.150        20
45.160         7
45.170        13
45.180         0
45.190        20
45.200        33
45.210        27
45.220        27
45.230        13
45.240        40
45.250        53
45.260         7
45.270        20
45.280        40
45.290        53
45.300        20
45.310        53
45.320        20
45.330        40
45.340        13
45.350        13
45.360        13
45.370        27
45.380        13
45.390        33
45.400        33
45.410        33
45.420        47
45.430        27
45.440        40
45.450        33
45.460        40
45.470        20
45.480        40
45.490        27
45.500        47
45.510        40
45.520        40
45.530        40
45.540        67
45.550        40
45.560        20
45.570        53
45.580        40
45.590        27
45.600        47
45.610        40
45.620        67
45.630        27
45.640        27
45.650       113
45.660        27
45.670        33
45.680        73
45.690        60
45.700       107
45.710        73
45.720        47
45.730        60
45.740        60
45.750        67
45.760        33
45.770        47
45.780        60
45.790        80
45.800       107
45.810       127
45.820        60
45.830       113
45.840       113
45.850       113
45.860        73
45.870       100
45.880        93
45.890       100
45.900       107
45.910       100
45.920        93
45.930       107
45.940       100
45.950       140
45.960       113
45.970        87
45.980       133
45.990       133
46.000       133
46.010        93
46.020       113
46.030       127
46.040       160
46.050       153
46.060       180
46.070        73
46.080       127
46.090       160
46.100       133
46.110        80
46.120       133
46.130       113
46.140        87
46.150       100
46.160       107
46.170        93
46.180       133
46.190       153
46.200       100
46.210       120
46.220       100
46.230       160
46.240        87
46.250       120
46.260        80
46.270        87
46.280       133
46.290        80
46.300        67
46.310        40
46.320        80
46.330       107
46.340        73
46.350        67
46.360        60
46.370       100
46.380        53
46.390        87
46.400        67
46.410       100
46.420        60
46.430        93
46.440        53
46.450        53
46.460        67
46.470        80
46.480        67
46.490        27
46.500        47
46.510        87
46.520        73
46.530        47
46.540        53
46.550         7
46.560        53
46.570        40
46.580        27
46.590        47
46.600        27
46.610        53
46.620        67
46.630        40
46.640        27
46.650        80
46.660        53
46.670        33
46.680        40
46.690        33
46.700        47
46.710        13
46.720        40
46.730        47
46.740        27
46.750        53
46.760        33
46.770        40
46.780        33
46.790        27
46.800        33
46.810        27
46.820        20
46.830        67
46.840        53
46.850        20
46.860        53
46.870        33
46.880        27
46.890        27
46.900        33
46.910        13
46.920        27
46.930        40
46.940        20
46.950        53
46.960        33
46.970        40
46.980        20
46.990         7
47.000        40
47.010        47
47.020        47
47.030        33
47.040         7
47.050        33
47.060        20
47.070        27
47.080        33
47.090        33
47.100        13
47.110        40
47.120        27
47.130        33
47.140        33
47.150        20
47.160        20
47.170        20
47.180        40
47.190        27
47.200        27
47.210         7
47.220        13
47.230        33
47.240        20
47.250        20
47.260         0
47.270        27
47.280        13
47.290        27
47.300         7
47.310         7
47.320        27
47.330        53
47.340         0
47.350        20
47.360        13
47.370        13
47.380        27
47.390        33
47.400        13
47.410        27
47.420        13
47.430         7
47.440        20
47.450        13
47.460        13
47.470        13
47.480         7
47.490        20
47.500        40
47.510         7
47.520        20
47.530         7
47.540        27
47.550        20
47.560        40
47.570         7
47.580        27
47.590        20
47.600        20
47.610        13
47.620        13
47.630        20
47.640        27
47.650         7
47.660        20
47.670        20
47.680        13
47.690         7
47.700        33
47.710        13
47.720        27
47.730        20
47.740        33
47.750        27
47.760        20
47.770        40
47.780        27
47.790        13
47.800        20
47.810        27
47.820        20
47.830        20
47.840         7
47.850        13
47.860        47
47.870        13
47.880        27
47.890        20
47.900        33
47.910         0
47.920        20
47.930        20
47.940        27
47.950        13
47.960        33
47.970        27
47.980         7
47.990        27
48.000        13
48.010        20
48.020        20
48.030         7
48.040        13
48.050        40
48.060        27
48.070        13
48.080        13
48.090        13
48.100        13
48.110        13
48.120        20
48.130         7
48.140        27
48.150         7
48.160        20
48.170        13
48.180        40
48.190        13
48.200        27
48.210        13
48.220        33
48.230         0
48.240         0
48.250        33
48.260         7
48.270        13
48.280        33
48.290        27
48.300        20
48.310        20
48.320        13
48.330         7
48.340        20
48.350         7
48.360        13
48.370        27
48.380        27
48.390        20
48.400        13
48.410        20
48.420        20
48.430        33
48.440        13
48.450        13
48.460        13
48.470        27
48.480         7
48.490        47
48.500        27
48.510        13
48.520        20
48.530        40
48.540        13
48.550        20
48.560        20
48.570        13
48.580         7
48.590        27
48.600         0
48.610        13
48.620        20
48.630        13
48.640        27
48.650        20
48.660        13
48.670        20
48.680        13
48.690        20
48.700        13
48.710        53
48.720        27
48.730        47
48.740        27
48.750        33
48.760        27
48.770        33
48.780         0
48.790        20
48.800         0
48.810        20
48.820        53
48.830        27
48.840        27
48.850        20
48.860         7
48.870        13
48.880        20
48.890        33
48.900        27
48.910        20
48.920        13
48.930        27
48.940        20
48.950         7
48.960         7
48.970        13
48.980         7
48.990        13
49.000        20
49.010         7
49.020        20
49.030         7
49.040        13
49.050         0
49.060        13
49.070         0
49.080        33
49.090        20
49.100         7
49.110        20
49.120        20
49.130         7
49.140        13
49.150         7
49.160        13
49.170        13
49.180         7
49.190        13
49.200        27
49.210         7
49.220        20
49.230        27
49.240        27
49.250        27
49.260         7
49.270        27
49.280         7
49.290        20
49.300        13
49.310        20
49.320         7
49.330         0
49.340         7
49.350         7
49.360         7
49.370         7
49.380        27
49.390        20
49.400        27
49.410        53
49.420        33
49.430        27
49.440        20
49.450        20
49.460        27
49.470         7
49.480         7
49.490        13
49.500         0
49.510         0
49.520        13
49.530        20
49.540        20
49.550         7
49.560        33
49.570        20
49.580         7
49.590        13
49.600        13
49.610        27
49.620        13
49.630        33
49.640        13
49.650        20
49.660         7
49.670         7
49.680         7
49.690         7
49.700        20
49.710        40
49.720        20
49.730        13
49.740        27
49.750        27
49.760         7
49.770        20
49.780        13
49.790        27
49.800        20
49.810        13
49.820        13
49.830        13
49.840         7
49.850        33
49.860         7
49.870         7
49.880        13
49.890        20
49.900         0
49.910         0
49.920        33
49.930        27
49.940        20
49.950        13
49.960        27
49.970        20
49.980        13
49.990         7
50.000        40
50.010        53
50.020        20
50.030         7
50.040        33
50.050        13
50.060        33
50.070        20
50.080         0
50.090        13
50.100         7
50.110        13
50.120         0
50.130         0
50.140        33
50.150        40
50.160        20
50.170         0
50.180         0
50.190         7
50.200        13
50.210        27
50.220        40
50.230        20
50.240        13
50.250        33
50.260        13
50.270         7
50.280        27
50.290        20
50.300        27
50.310         7
50.320        27
50.330        27
50.340        33
50.350        20
50.360        13
50.370        20
50.380        13
50.390        20
50.400        27
50.410        33
50.420        20
50.430        27
50.440        27
50.450        13
50.460         0
50.470        27
50.480         0
50.490        20
50.500        13
50.510        40
50.520        27
50.530        60
50.540        20
50.550        13
50.560         7
50.570        20
50.580        13
50.590        13
50.600        13
50.610        33
50.620         7
50.630        20
50.640        33
50.650        20
50.660        20
50.670        27
50.680        13
50.690         0
50.700        20
50.710        33
50.720        20
50.730        20
50.740        13
50.750        27
50.760        13
50.770        27
50.780        20
50.790        20
50.800        13
50.810        13
50.820        20
50.830        27
50.840         0
50.850        27
50.860        20
50.870        27
50.880        27
50.890         0
50.900        27
50.910        13
50.920        13
50.930        27
50.940        27
50.950        13
50.960        33
50.970        20
50.980        13
50.990         0
51.000        33
51.010        13
51.020         0
51.030        13
51.040         7
51.050        27
51.060        13
51.070        20
51.080        40
51.090         0
51.100        13
51.110        13
51.120        20
51.130         7
51.140        20
51.150         7
51.160        20
51.170        13
51.180        33
51.190         0
51.200        20
51.210        20
51.220        20
51.230        27
51.240        47
51.250        27
51.260        13
51.270        20
51.280         0
51.290        13
51.300         7
51.310        13
51.320        27
51.330         7
51.340        20
51.350        13
51.360        20
51.370        20
51.380        20
51.390         0
51.400         7
51.410        13
51.420         7
51.430        20
51.440        13
51.450        13
51.460        27
51.470        13
51.480        13
51.490        27
51.500         7
51.510        13
51.520        20
51.530         7
51.540         0
51.550         0
51.560        20
51.570        27
51.580        13
51.590         7
51.600        20
51.610        13
51.620        27
51.630        20
51.640         7
51.650         7
51.660        13
51.670         7
51.680         7
51.690        20
51.700        20
51.710        20
51.720        13
51.730        33
51.740        20
51.750         0
51.760         7
51.770        20
51.780        27
51.790         7
51.800        20
51.810        20
51.820        13
51.830        20
51.840        27
51.850        47
51.860         7
51.870         7
51.880        27
51.890        13
51.900         7
51.910         7
51.920        33
51.930        13
51.940        13
51.950        33
51.960        20
51.970         0
51.980        13
51.990        13
52.000        20
52.010         7
52.020        13
52.030         7
52.040        13
52.050         7
52.060         7
52.070        20
52.080        20
52.090         7
52.100        20
52.110         7
52.120        27
52.130         7
52.140        13
52.150        13
52.160        20
52.170        20
52.180        13
52.190        33
52.200        13
52.210        20
52.220        13
52.230        13
52.240        20
52.250        13
52.260        27
52.270        13
52.280        20
52.290        27
52.300        20
52.310         7
52.320         7
52.330        20
52.340        20
52.350        27
52.360        20
52.370        33
52.380        47
52.390        33
52.400        33
52.410        13
52.420        47
52.430        73
52.440        60
52.450        13
52.460        53
52.470        27
52.480        27
52.490        73
52.500        40
52.510       100
52.520       120
52.530        80
52.540        80
52.550        93
52.560       153
52.570       100
52.580        80
52.590       127
52.600       133
52.610        93
52.620        80
52.630        53
52.640        47
52.650        60
52.660        53
52.670        67
52.680        53
52.690        53
52.700        87
52.710        47
52.720       107
52.730        67
52.740        80
52.750        40
52.760        47
52.770        20
52.780        27
52.790        27
52.800        20
52.810         0
52.820         0
52.830        27
52.840        27
52.850        13
52.860         7
52.870        13
52.880        20
52.890        13
52.900         0
52.910        20
52.920        20
52.930        13
52.940        27
52.950        40
52.960        20
52.970        20
52.980        13
52.990        40
53.000         7
53.010        13
53.020        13
53.030        13
53.040         0
53.050         7
53.060        33
53.070        27
53.080        20
53.090        20
53.100        27
53.110        20
53.120        33
53.130        20
53.140        20
53.150        13
53.160         7
53.170        13
53.180         7
53.190         7
53.200        20
53.210        13
53.220        13
53.230         0
53.240        33
53.250        27
53.260         7
53.270        20
53.280        13
53.290         7
53.300         7
53.310        20
53.320        20
53.330        13
53.340        27
53.350         7
53.360         0
53.370        13
53.380        13
53.390        20
53.400         7
53.410        13
53.420        20
53.430        20
53.440         7
53.450         0
53.460        27
53.470         0
53.480        20
53.490        13
53.500        13
53.510        13
53.520        20
53.530         7
53.540        27
53.550         0
53.560        27
53.570        20
53.580        13
53.590        13
53.600        27
53.610        13
53.620         7
53.630        13
53.640        13
53.650        20
53.660        13
53.670        13
53.680         7
53.690        33
53.700        13
53.710        27
53.720         7
53.730        20
53.740        27
53.750        13
53.760        20
53.770         7
53.780        20
53.790         0
53.800        20
53.810        20
53.820        33
53.830         7
53.840        20
53.850        20
53.860        13
53.870         7
53.880        27
53.890        27
53.900         7
53.910         7
53.920         0
53.930         0
53.940         7
53.950        27
53.960        20
53.970         7
53.980        20
53.990        33
54.000        27
54.010        13
54.020         7
54.030        33
54.040         0
54.050        13
54.060        13
54.070        20
54.080        20
54.090        20
54.100        27
54.110        40
54.120        13
54.130        20
54.140         7
54.150         7
54.160        20
54.170         0
54.180        20
54.190        27
54.200        13
54.210        20
54.220        13
54.230        20
54.240        13
54.250         7
54.260        13
54.270        40
54.280        13
54.290        40
54.300         7
54.310         7
54.320        13
54.330        13
54.340         7
54.350        13
54.360        13
54.370        13
54.380        13
54.390        13
54.400         0
54.410        33
54.420        13
54.430        13
54.440         7
54.450         7
54.460        20
54.470        13
54.480        27
54.490        13
54.500        13
54.510         0
54.520        20
54.530         0
54.540        20
54.550         0
54.560        13
54.570         7
54.580        13
54.590         0
54.600         7
54.610         7
54.620        13
54.630        20
54.640        13
54.650        20
54.660         7
54.670        33
54.680         7
54.690         0
54.700        33
54.710        13
54.720        20
54.730         7
54.740        13
54.750        27
54.760        13
54.770        13
54.780        20
54.790        13
54.800         7
54.810        13
54.820        20
54.830        47
54.840        33
54.850         0
54.860        20
54.870         7
54.880        13
54.890        20
54.900        13
54.910         7
54.920        13
54.930        13
54.940         0
54.950        20
54.960         7
54.970        20
54.980         0
54.990         7
55.000        20
55.010        40
55.020        20
55.030        13
55.040         7
55.050         0
55.060        13
55.070        27
55.080         7
55.090        13
55.100         7
55.110        27
55.120         7
55.130        20
55.140         7
55.150        27
55.160        13
55.170        20
55.180         7
55.190        20
55.200         7
55.210        27
55.220        27
55.230         7
55.240         7
55.250         7
55.260        13
55.270        20
55.280        20
55.290        20
55.300        13
55.310         0
55.320         7
55.330         7
55.340         0
55.350        13
55.360        27
55.370         7
55.380         0
55.390        13
55.400        20
55.410        13
55.420        20
55.430        27
55.440        27
55.450        13
55.460        27
55.470        27
55.480        20
55.490        20
55.500        20
55.510        27
55.520        27
55.530         0
55.540         7
55.550        27
55.560        13
55.570        20
55.580        40
55.590         7
55.600        27
55.610        13
55.620         7
55.630        13
55.640        33
55.650        13
55.660         7
55.670        27
55.680         0
55.690         0
55.700         7
55.710        13
55.720        20
55.730         0
55.740        13
55.750        20
55.760        13
55.770        27
55.780         7
55.790        20
55.800        27
55.810        20
55.820        20
55.830        20
55.840        13
55.850        20
55.860         0
55.870         0
55.880        27
55.890        40
55.900         0
55.910        27
55.920        20
55.930        33
55.940        27
55.950        27
55.960        13
55.970         7
55.980        27
55.990        13
56.000        33
56.010         7
56.020         7
56.030        20
56.040        33
56.050        20
56.060        13
56.070        20
56.080        27
56.090        20
56.100        27
56.110         7
56.120        20
56.130        13
56.140        40
56.150         0
56.160        13
56.170        20
56.180        20
56.190         7
56.200         7
56.210        27
56.220        13
56.230         7
56.240        20
56.250         7
56.260        20
56.270        20
56.280         0
56.290        27
56.300        33
56.310        13
56.320        20
56.330        13
56.340        13
56.350        13
56.360        27
56.370         7
56.380        20
56.390        27
56.400         7
56.410         7
56.420         7
56.430         7
56.440         7
56.450        20
56.460         7
56.470         7
56.480        13
56.490         7
56.500        13
56.510        20
56.520        20
56.530        20
56.540        13
56.550        20
56.560        13
56.570        27
56.580        20
56.590        13
56.600        33
56.610        20
56.620        13
56.630        20
56.640        27
56.650        13
56.660        20
56.670        13
56.680         7
56.690        27
56.700        13
56.710        27
56.720         0
56.730         0
56.740        33
56.750        33
56.760         7
56.770        27
56.780         7
56.790        33
56.800        20
56.810         0
56.820        13
56.830         7
56.840        20
56.850        20
56.860        13
56.870        13
56.880        27
56.890        20
56.900        27
56.910         7
56.920        13
56.930        13
56.940         0
56.950        33
56.960        27
56.970        33
56.980        33
56.990        53
57.000         0
57.010         7
57.020        33
57.030        27
57.040        13
57.050        13
57.060        13
57.070        27
57.080        13
57.090        33
57.100         7
57.110        13
57.120        40
57.130        13
57.140         0
57.150        20
57.160        40
57.170        40
57.180        20
57.190         7
57.200        33
57.210        33
57.220        40
57.230        53
57.240        47
57.250        20
57.260        33
57.270        20
57.280        40
57.290        13
57.300        47
57.310        33
57.320        53
57.330        60
57.340        93
57.350       100
57.360        87
57.370       147
57.380       207
57.390       173
57.400       207
57.410       293
57.420       307
57.430       380
57.440       393
57.450       566
57.460       733
57.470       686
57.480       746
57.490       780
57.500       686
57.510       600
57.520       553
57.530       526
57.540       426
57.550       340
57.560       267
57.570       267
57.580       300
57.590       260
57.600       333
57.610       280
57.620       380
57.630       293
57.640       367
57.650       373
57.660       240
57.670       220
57.680       240
57.690       220
57.700       160
57.710       140
57.720       107
57.730        93
57.740        80
57.750        53
57.760        33
57.770        40
57.780        20
57.790         7
57.800        33
57.810        27
57.820         0
57.830        33
57.840        20
57.850        27
57.860        40
57.870        20
57.880        47
57.890        27
57.900        33
57.910        27
57.920        20
57.930         7
57.940         7
57.950        13
57.960         0
57.970        40
57.980         0
57.990        27
58.000        20
58.010        40
58.020        13
58.030        33
58.040         7
58.050        13
58.060        13
58.070        13
58.080        13
58.090        40
58.100         0
58.110        33
58.120        20
58.130        13
58.140        27
58.150         7
58.160         7
58.170         7
58.180        20
58.190        27
58.200         0
58.210        20
58.220        20
58.230        20
58.240        13
58.250         7
58.260        20
58.270        13
58.280        13
58.290        27
58.300        13
58.310         7
58.320        13
58.330        20
58.340         0
58.350         0
58.360         7
58.370        20
58.380        40
58.390        13
58.400         7
58.410        13
58.420        20
58.430         0
58.440        20
58.450         0
58.460        40
58.470         7
58.480         0
58.490        33
58.500        13
58.510        13
58.520        33
58.530        33
58.540        20
58.550        27
58.560         7
58.570         0
58.580        27
58.590        33
58.600        20
58.610        20
58.620         7
58.630        20
58.640        27
58.650        20
58.660        27
58.670        20
58.680         7
58.690        13
58.700        13
58.710        13
58.720        20
58.730        20
58.740         0
58.750        13
58.760         7
58.770        13
58.780         0
58.790        27
58.800        27
58.810         7
58.820        20
58.830         0
58.840        13
58.850         7
58.860        13
58.870        20
58.880         7
58.890        13
58.900        33
58.910        27
58.920        20
58.930        20
58.940         7
58.950        20
58.960        20
58.970        27
58.980        40
58.990        27
59.000        20
59.010        20
59.020        13
59.030         7
59.040         7
59.050        20
59.060        27
59.070        20
59.080         7
59.090        27
59.100         0
59.110        20
59.120        20
59.130        27
59.140        13
59.150         7
59.160         7
59.170        20
59.180         0
59.190        13
59.200        20
59.210         0
59.220        20
59.230        13
59.240        33
59.250         7
59.260        20
59.270        20
59.280        20
59.290        40
59.300         7
59.310        13
59.320        27
59.330         0
59.340         7
59.350        13
59.360         0
59.370         7
59.380        20
59.390        47
59.400        27
59.410        13
59.420        13
59.430         7
59.440        27
59.450        13
59.460        13
59.470         7
59.480         7
59.490        20
59.500        13
59.510        20
59.520        53
59.530        13
59.540        33
59.550        13
59.560        20
59.570        13
59.580         7
59.590         0
59.600        13
59.610        20
59.620         0
59.630         0
59.640         7
59.650         0
59.660         7
59.670         0
59.680         7
59.690         7
59.700         7
59.710         7
59.720         7
59.730         0
59.740         0
59.750         7
59.760         0
59.770         0
59.780         0
59.790         0
59.800         0
59.810         7
59.820         0
59.830         7
59.840         0
59.850         0
59.860         0
59.870         0
59.880         0
59.890         0
59.900         0
59.910         0
59.920         0
59.930         0
59.940         0
59.950         0
59.960         0
59.970         0
59.980         0
59.990         0
60.000         0
