20.000         0
20.010         0
20.020        20
20.030        47
20.040        53
20.050        53
20.060        73
20.070        40
20.080        47
20.090        47
20.100        40
20.110        27
20.120        40
20.130        40
20.140        47
20.150        20
20.160        53
20.170        33
20.180        33
20.190        33
20.200        40
20.210        27
20.220        53
20.230        40
20.240        13
20.250        27
20.260        40
20.270        73
20.280        40
20.290        20
20.300        53
20.310        40
20.320        53
20.330        20
20.340        87
20.350        20
20.360        47
20.370        40
20.380        33
20.390        40
20.400        53
20.410        40
20.420        20
20.430        33
20.440        47
20.450        40
20.460        47
20.470        40
20.480        40
20.490        27
20.500         7
20.510        80
20.520        40
20.530        47
20.540        20
20.550        67
20.560        40
20.570        40
20.580        40
20.590        27
20.600        53
20.610        40
20.620        33
20.630        20
20.640        60
20.650        67
20.660        53
20.670        53
20.680        13
20.690         7
20.700        33
20.710        40
20.720        53
20.730        20
20.740        53
20.750        47
20.760        40
20.770        67
20.780        40
20.790        60
20.800        13
20.810        33
20.820        13
20.830        33
20.840        27
20.850        47
20.860        47
20.870        40
20.880        33
20.890        47
20.900        40
20.910        67
20.920        20
20.930        67
20.940        53
20.950        33
20.960        93
20.970        27
20.980        33
20.990        20
21.000        60
21.010        60
21.020        33
21.030        33
21.040        20
21.050        40
21.060        47
21.070        67
21.080        27
21.090        47
21.100         7
21.110        27
21.120        33
21.130        27
21.140        33
21.150        33
21.160        27
21.170        40
21.180        40
21.190        27
21.200        13
21.210        67
21.220        13
21.230        73
21.240        27
21.250        40
21.260        27
21.270        40
21.280        20
21.290        33
21.300        27
21.310        87
21.320        47
21.330        33
21.340        33
21.350        27
21.360        27
21.370        20
21.380        27
21.390        40
21.400        27
21.410        13
21.420        47
21.430        60
21.440        27
21.450        47
21.460        27
21.470        60
21.480        47
21.490        53
21.500        53
21.510        47
21.520        33
21.530        47
21.540        33
21.550        47
21.560        33
21.570        73
21.580        53
21.590        47
21.600        53
21.610        33
21.620        40
21.630        60
21.640        53
21.650        33
21.660        27
21.670        47
21.680        40
21.690        40
21.700        33
21.710        27
21.720        47
21.730        87
21.740        53
21.750        60
21.760        47
21.770        33
21.780        47
21.790        27
21.800        53
21.810        33
21.820        60
21.830        53
21.840        47
21.850        60
21.860       107
21.870        67
21.880        53
21.890        40
21.900        47
21.910        53
21.920        73
21.930        73
21.940        67
21.950        20
21.960        60
21.970        27
21.980        93
21.990        87
22.000        53
22.010        87
22.020        40
22.030        60
22.040        80
22.050        60
22.060       107
22.070       133
22.080        93
22.090       120
22.100        87
22.110        93
22.120       100
22.130        73
22.140        67
22.150        87
22.160       113
22.170        93
22.180        53
22.190       107
22.200        93
22.210        47
22.220       113
22.230       107
22.240        93
22.250       127
22.260        40
22.270       100
22.280       113
22.290        73
22.300        67
22.310        67
22.320        40
22.330        73
22.340        73
22.350        60
22.360        67
22.370        80
22.380        60
22.390        27
22.400        40
22.410        53
22.420        20
22.430        53
22.440        73
22.450        73
22.460        20
22.470        40
22.480        27
22.490        67
22.500        73
22.510        20
22.520        33
22.530        33
22.540        27
22.550        47
22.560        27
22.570        33
22.580        47
22.590         7
22.600        20
22.610        27
22.620        33
22.630        47
22.640        40
22.650        20
22.660        47
22.670        33
22.680        20
22.690        27
22.700        60
22.710        60
22.720        33
22.730        20
22.740        27
22.750        53
22.760         7
22.770        20
22.780        40
22.790        20
22.800         0
22.810        53
22.820        33
22.830        33
22.840        27
22.850        53
22.860        53
22.870        40
22.880        67
22.890        13
22.900        60
22.910        47
22.920         7
22.930        33
22.940        20
22.950        27
22.960        40
22.970        13
22.980        73
22.990        53
23.000        13
23.010        60
23.020         7
23.030        53
23.040        53
23.050        40
23.060        27
23.070        40
23.080        53
23.090        20
23.100        40
23.110        33
23.120        60
23.130        47
23.140        40
23.150        53
23.160        27
23.170        47
23.180        13
23.190        27
23.200        33
23.210        47
23.220        27
23.230        27
23.240        40
23.250        47
23.260        33
23.270        27
23.280        27
23.290        20
23.300        47
23.310        33
23.320        33
23.330        13
23.340        33
23.350        20
23.360        53
23.370        27
23.380        33
23.390        27
23.400        27
23.410        33
23.420        40
23.430        33
23.440        40
23.450        40
23.460        40
23.470        47
23.480        33
23.490        33
23.500        20
23.510         0
23.520        80
23.530        20
23.540        47
23.550        20
23.560        27
23.570        40
23.580        33
23.590        13
23.600        33
23.610        47
23.620        60
23.630        73
23.640        27
23.650        33
23.660        33
23.670        20
23.680        47
23.690        27
23.700        20
23.710        40
23.720        33
23.730        13
23.740        40
23.750        47
23.760        13
23.770        27
23.780        20
23.790        40
23.800        27
23.810        20
23.820        40
23.830        53
23.840        33
23.850        33
23.860        13
23.870        47
23.880        20
23.890        27
23.900        47
23.910        27
23.920        73
23.930        47
23.940        27
23.950        47
23.960        33
23.970        13
23.980        87
23.990        20
24.000        33
24.010        33
24.020        47
24.030        27
24.040        40
24.050        27
24.060        60
24.070        33
24.080        40
24.090        13
24.100        40
24.110        33
24.120        20
24.130        40
24.140        87
24.150        13
24.160        13
24.170        27
24.180        47
24.190        20
24.200        47
24.210        53
24.220        60
24.230        20
24.240        13
24.250        27
24.260        33
24.270        33
24.280        20
24.290        27
24.300        20
24.310        20
24.320        20
24.330        20
24.340        80
24.350        33
24.360        53
24.370        20
24.380        13
24.390        40
24.400        33
24.410        40
24.420        60
24.430        27
24.440        33
24.450        13
24.460        40
24.470        40
24.480         7
24.490        33
24.500        27
24.510        13
24.520        13
24.530        40
24.540        27
24.550        40
24.560        40
24.570        40
24.580        27
24.590        53
24.600        13
24.610        13
24.620        13
24.630         0
24.640        40
24.650        47
24.660        33
24.670        20
24.680        13
24.690        13
24.700        60
24.710        33
24.720        40
24.730        27
24.740        27
24.750        13
24.760        27
24.770        40
24.780        33
24.790        20
24.800        47
24.810        27
24.820        27
24.830        13
24.840        40
24.850        40
24.860        20
24.870        47
24.880        20
24.890        20
24.900        20
24.910        13
24.920        20
24.930         7
24.940        40
24.950        33
24.960        33
24.970        27
24.980        20
24.990        27
25.000        27
25.010        40
25.020        53
25.030        27
25.040        20
25.050        60
25.060        20
25.070        33
25.080        33
25.090        33
25.100        13
25.110        20
25.120        20
25.130        20
25.140        20
25.150        40
25.160        20
25.170        13
25.180        13
25.190        33
25.200        27
25.210        27
25.220        20
25.230        27
25.240        20
25.250        33
25.260        33
25.270        20
25.280        13
25.290        53
25.300        33
25.310        27
25.320        13
25.330        13
25.340        33
25.350        20
25.360        33
25.370        33
25.380        53
25.390        13
25.400        33
25.410        13
25.420        27
25.430        27
25.440        13
25.450        27
25.460        27
25.470        33
25.480        33
25.490         7
25.500        20
25.510        67
25.520        13
25.530        33
25.540        47
25.550        27
25.560        20
25.570        13
25.580        20
25.590        40
25.600        27
25.610        47
25.620        40
25.630        33
25.640        47
25.650        20
25.660        27
25.670        47
25.680        27
25.690        27
25.700        27
25.710         7
25.720        13
25.730        20
25.740        53
25.750        60
25.760        27
25.770        33
25.780        13
25.790        27
25.800        13
25.810        20
25.820        33
25.830        20
25.840        20
25.850        40
25.860        27
25.870        27
25.880        27
25.890        33
25.900        27
25.910        33
25.920        27
25.930        20
25.940        27
25.950        20
25.960        47
25.970        13
25.980        27
25.990        33
26.000        27
26.010         7
26.020        33
26.030        47
26.040        40
26.050        20
26.060        53
26.070        27
26.080        33
26.090        20
26.100        67
26.110        13
26.120        27
26.130        27
26.140        33
26.150         7
26.160        27
26.170        33
26.180        40
26.190        13
26.200        27
26.210        20
26.220        60
26.230        13
26.240         7
26.250        53
26.260        33
26.270        20
26.280        27
26.290        40
26.300        33
26.310        27
26.320        13
26.330        27
26.340         7
26.350        40
26.360        13
26.370        13
26.380        27
26.390        53
26.400        33
26.410        33
26.420        13
26.430        20
26.440        33
26.450        13
26.460        20
26.470        40
26.480        40
26.490        27
26.500        40
26.510        40
26.520        20
26.530        13
26.540        20
26.550        33
26.560        40
26.570         0
26.580        40
26.590        20
26.600        33
26.610         7
26.620        13
26.630        20
26.640        40
26.650        13
26.660        40
26.670        27
26.680         0
26.690        27
26.700         0
26.710        20
26.720        33
26.730        20
26.740        40
26.750        40
26.760        20
26.770        33
26.780        20
26.790        13
26.800        20
26.810        40
26.820         7
26.830         7
26.840        40
26.850        20
26.860        40
26.870        80
26.880        20
26.890         7
26.900        33
26.910        13
26.920        60
26.930         7
26.940        13
26.950        13
26.960        27
26.970        47
26.980        27
26.990        33
27.000        27
27.010        27
27.020        40
27.030        27
27.040        53
27.050         7
27.060        27
27.070         0
27.080        60
27.090        33
27.100        27
27.110        47
27.120        33
27.130        13
27.140        60
27.150        40
27.160        13
27.170        33
27.180        20
27.190        47
27.200        20
27.210        20
27.220        40
27.230        33
27.240         7
27.250        40
27.260        20
27.270        20
27.280        27
27.290        13
27.300        33
27.310        20
27.320        27
27.330        13
27.340        33
27.350         7
27.360        33
27.370        20
27.380        33
27.390        13
27.400        13
27.410        20
27.420         7
27.430        60
27.440        20
27.450        33
27.460        27
27.470        13
27.480        13
27.490        73
27.500        40
27.510         0
27.520        20
27.530        20
27.540         0
27.550        27
27.560         7
27.570        13
27.580        20
27.590         7
27.600        47
27.610        40
27.620        33
27.630         7
27.640        13
27.650        53
27.660        27
27.670        40
27.680        27
27.690        20
27.700        33
27.710        13
27.720        27
27.730        20
27.740        13
27.750         7
27.760         7
27.770        40
27.780        47
27.790        13
27.800         7
27.810        33
27.820        27
27.830        20
27.840        13
27.850        13
27.860        20
27.870        13
27.880        13
27.890        67
27.900        20
27.910         0
27.920        40
27.930         7
27.940        47
27.950        33
27.960        40
27.970        13
27.980         7
27.990        20
28.000        33
28.010        27
28.020        33
28.030        20
28.040        27
28.050        27
28.060        33
28.070        33
28.080        13
28.090        27
28.100        47
28.110        27
28.120        27
28.130        27
28.140        20
28.150        33
28.160        40
28.170        47
28.180        20
28.190         7
28.200        33
28.210        13
28.220        20
28.230        13
28.240        13
28.250        27
28.260        27
28.270        33
28.280        13
28.290        40
28.300        13
28.310        47
28.320        20
28.330        53
28.340        33
28.350        40
28.360        33
28.370        47
28.380        27
28.390        33
28.400        27
28.410        20
28.420        67
28.430        40
28.440        13
28.450        47
28.460        47
28.470        40
28.480        27
28.490        20
28.500        20
28.510        27
28.520         7
28.530         7
28.540        13
28.550        27
28.560        33
28.570        13
28.580        13
28.590        40
28.600        20
28.610        33
28.620        40
28.630        27
28.640        13
28.650        13
28.660        20
28.670         7
28.680         0
28.690        33
28.700        40
28.710        20
28.720        20
28.730        47
28.740        53
28.750        13
28.760        20
28.770        33
28.780        40
28.790        33
28.800         7
28.810        33
28.820        13
28.830        40
28.840        40
28.850        20
28.860        33
28.870        13
28.880        20
28.890        33
28.900        13
28.910        20
28.920        27
28.930         7
28.940        13
28.950        40
28.960        13
28.970         7
28.980        20
28.990        13
29.000        20
29.010        27
29.020        20
29.030        13
29.040        20
29.050        40
29.060        13
29.070        40
29.080        20
29.090        33
29.100       147
29.110        20
29.120        13
29.130        20
29.140        20
29.150        20
29.160        27
29.170        13
29.180        20
29.190        13
29.200        53
29.210        13
29.220        20
29.230        20
29.240        20
29.250        53
29.260        27
29.270        47
29.280        53
29.290        13
29.300        80
29.310        20
29.320        40
29.330         7
29.340        47
29.350        13
29.360        20
29.370        20
29.380        47
29.390        13
29.400        33
29.410        13
29.420        13
29.430        27
29.440        40
29.450        20
29.460        27
29.470        20
29.480        27
29.490        33
29.500        20
29.510        27
29.520        47
29.530        13
29.540        20
29.550         7
29.560        13
29.570        33
29.580        33
29.590        33
29.600        27
29.610        27
29.620        40
29.630        20
29.640        33
29.650        27
29.660        40
29.670        20
29.680         7
29.690        13
29.700        27
29.710         7
29.720        13
29.730         0
29.740        13
29.750        47
29.760        33
29.770        13
29.780        33
29.790        20
29.800        20
29.810         0
29.820        60
29.830        40
29.840        47
29.850        13
29.860        40
29.870        40
29.880        33
29.890        27
29.900        20
29.910        20
29.920         7
29.930         7
29.940         0
29.950        20
29.960        20
29.970        27
29.980        13
29.990        27
30.000         7
30.010        13
30.020        27
30.030        20
30.040        40
30.050        13
30.060        20
30.070        13
30.080        33
30.090        27
30.100        13
30.110        13
30.120        20
30.130        40
30.140        20
30.150        20
30.160         0
30.170        13
30.180        27
30.190        13
30.200        40
30.210         7
30.220         7
30.230        27
30.240         7
30.250        33
30.260        20
30.270        20
30.280        20
30.290        27
30.300        33
30.310        13
30.320        53
30.330         7
30.340        27
30.350        27
30.360        20
30.370        20
30.380        53
30.390        27
30.400        73
30.410        33
30.420        20
30.430        20
30.440        20
30.450        40
30.460        47
30.470        33
30.480         0
30.490        40
30.500         7
30.510        13
30.520        13
30.530        20
30.540         7
30.550         7
30.560        20
30.570        40
30.580        20
30.590        33
30.600        53
30.610        27
30.620        13
30.630        53
30.640        53
30.650        13
30.660        20
30.670        13
30.680        20
30.690        33
30.700        27
30.710        27
30.720        20
30.730        20
30.740        20
30.750        47
30.760        27
30.770        13
30.780        33
30.790        13
30.800        27
30.810        40
30.820         7
30.830        20
30.840         7
30.850        20
30.860        33
30.870        53
30.880        47
30.890        33
30.900        47
30.910        60
30.920        20
30.930        40
30.940        47
30.950        33
30.960        47
30.970        47
30.980        40
30.990        27
31.000        40
31.010        67
31.020        13
31.030        67
31.040         7
31.050        53
31.060        60
31.070        53
31.080        27
31.090        47
31.100        47
31.110        40
31.120        47
31.130        27
31.140        33
31.150        47
31.160        67
31.170        80
31.180        40
31.190        73
31.200        73
31.210       100
31.220        80
31.230        60
31.240        93
31.250       127
31.260       140
31.270       127
31.280       113
31.290       120
31.300       140
31.310       127
31.320       180
31.330       140
31.340       180
31.350       120
31.360       207
31.370       187
31.380       167
31.390       233
31.400       193
31.410       260
31.420       260
31.430       327
31.440       440
31.450       367
31.460       440
31.470       400
31.480       473
31.490       480
31.500       613
31.510       620
31.520       526
31.530       613
31.540       660
31.550       580
31.560       680
31.570       573
31.580       660
31.590       520
31.600       433
31.610       460
31.620       540
31.630       493
31.640       453
31.650       466
31.660       400
31.670       360
31.680       360
31.690       440
31.700       293
31.710       253
31.720       320
31.730       173
31.740       187
31.750       187
31.760       173
31.770       160
31.780       113
31.790       120
31.800       120
31.810       133
31.820       100
31.830        93
31.840        93
31.850        73
31.860        27
31.870        73
31.880        33
31.890        47
31.900        67
31.910        73
31.920        33
31.930        47
31.940        47
31.950        40
31.960        60
31.970        33
31.980        27
31.990        33
32.000        60
32.010        33
32.020        20
32.030        47
32.040        33
32.050        40
32.060        27
32.070        47
32.080        20
32.090        20
32.100        53
32.110        13
32.120        13
32.130        53
32.140        13
32.150        20
32.160        27
32.170        33
32.180        20
32.190        40
32.200        33
32.210        27
32.220        40
32.230        53
32.240        33
32.250        27
32.260        20
32.270        33
32.280         0
32.290        27
32.300        40
32.310        13
32.320        20
32.330        20
32.340        13
32.350        27
32.360        27
32.370        13
32.380        33
32.390        40
32.400        33
32.410        13
32.420        27
32.430         7
32.440        60
32.450        13
32.460        20
32.470        33
32.480         7
32.490        27
32.500        13
32.510        20
32.520        13
32.530        13
32.540        13
32.550        27
32.560        20
32.570         0
32.580        33
32.590        27
32.600         7
32.610        20
32.620        40
32.630        33
32.640        20
32.650        27
32.660        27
32.670        13
32.680         7
32.690        27
32.700         7
32.710        33
32.720        13
32.730         7
32.740        40
32.750        27
32.760        20
32.770        13
32.780        20
32.790        27
32.800        33
32.810        53
32.820        33
32.830        33
32.840        13
32.850         0
32.860        13
32.870        27
32.880        27
32.890        27
32.900        47
32.910        20
32.920        20
32.930        33
32.940        40
32.950        40
32.960         7
32.970        20
32.980         7
32.990        27
33.000         7
33.010        33
33.020        20
33.030        20
33.040         7
33.050        13
33.060        33
33.070         7
33.080        20
33.090        13
33.100        47
33.110        27
33.120        20
33.130        13
33.140        27
33.150        33
33.160        27
33.170        47
33.180         7
33.190        27
33.200        20
33.210         7
33.220        20
33.230        27
33.240        20
33.250        20
33.260        27
33.270         0
33.280        20
33.290        40
33.300        13
33.310         7
33.320        27
33.330        33
33.340        20
33.350        33
33.360         0
33.370        13
33.380        13
33.390        13
33.400        13
33.410        13
33.420         7
33.430        20
33.440        20
33.450        33
33.460        33
33.470         7
33.480        20
33.490        27
33.500        20
33.510         7
33.520        13
33.530        27
33.540        20
33.550        27
33.560        27
33.570        20
33.580        40
33.590        33
33.600        27
33.610         7
33.620        27
33.630         7
33.640        33
33.650         0
33.660         7
33.670        40
33.680        27
33.690         7
33.700        13
33.710         7
33.720        13
33.730        20
33.740        33
33.750        13
33.760        13
33.770        40
33.780        20
33.790         0
33.800        13
33.810        20
33.820        20
33.830        13
33.840        40
33.850         7
33.860        53
33.870        20
33.880        33
33.890        60
33.900        20
33.910        20
33.920         7
33.930        20
33.940        33
33.950        27
33.960        33
33.970        27
33.980        27
33.990         7
34.000        27
34.010        33
34.020         7
34.030        20
34.040         0
34.050        33
34.060         7
34.070        33
34.080        20
34.090        33
34.100        20
34.110         7
34.120         7
34.130        13
34.140         7
34.150        27
34.160         7
34.170        13
34.180         0
34.190        20
34.200        20
34.210        60
34.220        13
34.230        13
34.240        13
34.250        47
34.260        27
34.270         0
34.280        13
34.290        47
34.300        40
34.310        20
34.320        13
34.330        13
34.340         7
34.350        13
34.360        33
34.370        47
34.380        47
34.390        13
34.400        20
34.410        13
34.420        40
34.430        27
34.440        20
34.450        27
34.460        33
34.470        20
34.480        13
34.490        20
34.500        27
34.510        27
34.520        13
34.530        20
34.540        33
34.550        33
34.560        27
34.570        47
34.580        20
34.590         0
34.600         0
34.610        13
34.620        47
34.630        27
34.640        20
34.650        27
34.660        20
34.670         7
34.680        13
34.690        13
34.700        33
34.710        20
34.720        13
34.730        27
34.740         7
34.750        20
34.760         0
34.770         7
34.780        20
34.790        20
34.800        13
34.810        20
34.820        20
34.830        33
34.840        20
34.850         7
34.860        20
34.870        27
34.880        13
34.890         7
34.900        33
34.910         0
34.920         7
34.930        27
34.940        33
34.950        27
34.960        13
34.970        27
34.980        13
34.990        27
35.000        20
35.010        20
35.020         7
35.030         7
35.040        20
35.050         7
35.060        20
35.070        40
35.080        13
35.090        20
35.100         0
35.110         7
35.120        13
35.130        13
35.140        13
35.150        13
35.160        13
35.170        20
35.180        13
35.190         0
35.200        27
35.210         7
35.220        13
35.230         7
35.240         7
35.250        13
35.260        13
35.270        53
35.280        13
35.290        20
35.300        13
35.310        33
35.320        27
35.330        27
35.340        27
35.350        13
35.360         7
35.370         7
35.380         7
35.390        33
35.400         0
35.410        20
35.420         7
35.430        13
35.440        13
35.450        13
35.460        13
35.470        13
35.480        27
35.490         0
35.500        13
35.510        27
35.520        27
35.530        13
35.540        13
35.550        13
35.560        13
35.570         7
35.580        20
35.590         0
35.600         0
35.610         7
35.620        13
35.630        27
35.640        20
35.650        13
35.660        27
35.670        13
35.680         0
35.690        13
35.700         0
35.710        20
35.720         7
35.730        13
35.740        13
35.750        13
35.760        27
35.770         7
35.780         7
35.790        13
35.800        20
35.810        20
35.820        33
35.830        13
35.840        13
35.850         7
35.860        27
35.870         7
35.880        33
35.890         7
35.900        13
35.910         7
35.920         7
35.930        27
35.940         0
35.950         7
35.960         7
35.970        33
35.980        13
35.990        27
36.000        27
36.010         7
36.020        13
36.030        13
36.040        13
36.050         7
36.060         0
36.070         0
36.080         0
36.090        20
36.100        20
36.110        27
36.120        13
36.130        27
36.140        13
36.150        47
36.160        20
36.170        20
36.180        13
36.190         7
36.200        20
36.210        13
36.220        27
36.230         7
36.240        20
36.250        13
36.260        20
36.270        13
36.280         7
36.290        27
36.300         7
36.310        13
36.320        13
36.330        33
36.340         7
36.350         0
36.360        27
36.370         7
36.380         0
36.390        13
36.400         7
36.410        20
36.420        20
36.430        27
36.440         7
36.450        13
36.460         7
36.470        40
36.480        13
36.490        20
36.500         7
36.510        20
36.520        27
36.530        20
36.540        20
36.550        27
36.560         7
36.570         7
36.580        13
36.590        20
36.600        13
36.610        20
36.620        13
36.630        13
36.640        20
36.650        27
36.660         0
36.670        20
36.680        20
36.690        20
36.700         0
36.710        20
36.720        13
36.730        13
36.740         7
36.750        27
36.760        20
36.770        13
36.780        20
36.790        20
36.800        20
36.810        40
36.820        20
36.830         0
36.840        13
36.850         7
36.860        13
36.870         7
36.880        13
36.890        13
36.900         7
36.910        27
36.920        20
36.930        27
36.940         0
36.950        27
36.960         7
36.970        13
36.980        13
36.990         7
37.000        13
37.010        13
37.020         0
37.030        13
37.040        13
37.050         7
37.060         0
37.070         7
37.080        20
37.090         7
37.100        13
37.110        13
37.120        27
37.130        13
37.140        33
37.150        13
37.160        13
37.170        20
37.180         0
37.190        20
37.200        27
37.210        20
37.220        13
37.230        20
37.240         7
37.250        13
37.260         7
37.270         0
37.280        27
37.290         7
37.300        33
37.310        27
37.320        13
37.330         7
37.340        33
37.350         7
37.360        27
37.370        27
37.380        13
37.390        27
37.400        13
37.410        27
37.420        13
37.430        13
37.440        13
37.450        27
37.460        20
37.470        13
37.480        20
37.490         0
37.500         7
37.510         7
37.520         7
37.530        27
37.540         7
37.550        20
37.560        13
37.570        13
37.580        13
37.590         7
37.600        13
37.610         7
37.620         7
37.630        20
37.640        13
37.650         7
37.660        20
37.670         7
37.680        13
37.690        27
37.700        27
37.710        13
37.720         7
37.730        20
37.740         7
37.750         0
37.760        40
37.770        27
37.780        13
37.790        33
37.800        20
37.810        20
37.820        13
37.830         7
37.840        13
37.850        20
37.860         7
37.870        27
37.880        27
37.890        27
37.900        33
37.910         7
37.920         7
37.930         7
37.940        27
37.950         7
37.960        47
37.970        27
37.980        27
37.990        27
38.000         7
38.010         7
38.020         7
38.030         7
38.040        20
38.050        27
38.060        13
38.070        27
38.080        33
38.090        20
38.100        20
38.110        20
38.120        20
38.130         7
38.140        20
38.150         0
38.160        20
38.170        13
38.180        27
38.190        33
38.200        20
38.210        47
38.220        13
38.230         7
38.240         0
38.250        20
38.260         0
38.270        13
38.280        33
38.290        27
38.300        27
38.310         7
38.320        33
38.330        20
38.340        27
38.350        20
38.360        27
38.370        27
38.380        47
38.390         7
38.400        53
38.410        20
38.420        13
38.430        13
38.440        13
38.450        13
38.460        13
38.470        20
38.480        33
38.490        27
38.500        27
38.510        33
38.520        33
38.530        47
38.540         7
38.550        27
38.560        40
38.570        40
38.580        20
38.590        33
38.600        47
38.610        60
38.620        47
38.630        13
38.640        60
38.650        33
38.660        40
38.670        27
38.680        67
38.690        80
38.700        67
38.710        73
38.720        80
38.730        80
38.740        73
38.750        47
38.760        80
38.770        67
38.780        93
38.790        67
38.800       127
38.810       120
38.820       100
38.830       180
38.840       113
38.850       213
38.860       213
38.870       227
38.880       213
38.890       207
38.900       227
38.910       207
38.920       187
38.930       200
38.940       187
38.950       300
38.960       213
38.970       180
38.980       113
38.990       173
39.000       233
39.010       180
39.020       120
39.030       113
39.040       113
39.050       140
39.060       107
39.070        80
39.080        87
39.090        53
39.100        67
39.110        80
39.120        60
39.130        33
39.140        47
39.150        47
39.160        20
39.170         7
39.180        33
39.190        47
39.200        33
39.210        67
39.220        20
39.230        20
39.240        53
39.250        33
39.260         7
39.270        33
39.280        27
39.290        27
39.300        27
39.310         7
39.320        27
39.330         7
39.340        27
39.350        33
39.360        27
39.370         7
39.380        33
39.390        20
39.400        13
39.410        20
39.420        13
39.430        27
39.440         0
39.450        20
39.460        27
39.470        33
39.480         0
39.490        33
39.500        33
39.510        13
39.520        13
39.530        13
39.540        20
39.550         7
39.560        13
39.570        20
39.580        20
39.590        13
39.600         7
39.610        13
39.620        20
39.630         7
39.640        13
39.650        13
39.660        20
39.670        27
39.680         7
39.690        20
39.700        47
39.710        13
39.720         0
39.730        27
39.740        13
39.750        27
39.760         0
39.770         7
39.780         0
39.790        27
39.800        40
39.810        27
39.820         0
39.830        27
39.840        20
39.850        27
39.860        40
39.870         0
39.880        13
39.890        13
39.900        13
39.910        27
39.920        20
39.930        13
39.940        13
39.950         7
39.960         7
39.970         7
39.980         7
39.990        13
40.000        20
40.010        20
40.020        27
40.030         7
40.040        27
40.050        13
40.060         0
40.070         7
40.080         0
40.090         0
40.100        13
40.110         7
40.120        27
40.130        40
40.140         7
40.150         0
40.160         7
40.170         7
40.180        13
40.190        13
40.200         7
40.210        20
40.220         0
40.230        20
40.240        27
40.250        13
40.260        13
40.270        13
40.280        27
40.290        13
40.300         7
40.310        20
40.320        20
40.330        13
40.340         0
40.350        40
40.360        20
40.370        20
40.380        20
40.390        27
40.400         7
40.410        20
40.420        13
40.430        13
40.440        13
40.450        13
40.460         7
40.470         7
40.480        13
40.490         7
40.500        27
40.510        27
40.520        13
40.530         0
40.540        13
40.550        27
40.560        20
40.570        20
40.580        27
40.590        40
40.600         7
40.610        27
40.620        13
40.630        27
40.640         0
40.650        20
40.660         0
40.670        20
40.680        33
40.690        13
40.700         0
40.710         0
40.720        13
40.730        13
40.740        13
40.750        13
40.760         0
40.770        13
40.780        13
40.790        33
40.800        47
40.810         7
40.820        33
40.830        13
40.840         7
40.850        13
40.860        27
40.870        13
40.880         0
40.890        27
40.900         7
40.910         7
40.920         7
40.930        20
40.940        20
40.950        20
40.960         7
40.970        20
40.980        13
40.990        20
41.000         0
41.010        27
41.020         7
41.030        20
41.040        33
41.050        20
41.060         7
41.070         0
41.080         0
41.090         7
41.100        40
41.110        13
41.120        20
41.130        13
41.140         0
41.150        13
41.160        20
41.170         0
41.180         7
41.190         0
41.200         7
41.210         0
41.220        13
41.230        13
41.240        27
41.250         7
41.260        20
41.270        13
41.280        33
41.290        13
41.300        40
41.310        13
41.320         7
41.330         7
41.340        20
41.350        13
41.360        13
41.370        13
41.380        20
41.390        13
41.400        13
41.410         7
41.420        13
41.430        20
41.440         0
41.450         7
41.460         7
41.470        13
41.480         0
41.490        20
41.500        27
41.510        13
41.520        20
41.530        20
41.540         0
41.550        27
41.560        20
41.570        13
41.580        20
41.590        27
41.600         0
41.610        27
41.620        13
41.630        20
41.640        27
41.650         0
41.660         7
41.670        47
41.680        20
41.690        20
41.700         0
41.710        13
41.720         0
41.730        13
41.740        33
41.750        13
41.760         7
41.770        13
41.780         7
41.790        20
41.800        13
41.810         7
41.820         7
41.830        20
41.840         7
41.850        13
41.860         0
41.870        27
41.880         7
41.890        13
41.900        13
41.910         7
41.920        33
41.930        13
41.940         7
41.950        27
41.960        13
41.970        27
41.980        20
41.990        13
42.000         7
42.010        27
42.020         7
42.030        20
42.040         7
42.050        13
42.060        27
42.070        27
42.080         0
42.090         7
42.100        13
42.110         0
42.120        27
42.130        20
42.140         7
42.150        20
42.160         0
42.170        27
42.180        13
42.190        20
42.200         0
42.210        20
42.220        13
42.230        20
42.240        13
42.250         0
42.260        13
42.270        13
42.280        13
42.290         0
42.300        20
42.310        27
42.320         7
42.330         7
42.340        13
42.350        13
42.360         0
42.370        13
42.380         7
42.390        13
42.400        27
42.410        13
42.420         7
42.430        27
42.440        27
42.450        13
42.460         0
42.470        20
42.480         7
42.490         7
42.500         7
42.510        13
42.520         0
42.530        13
42.540        27
42.550         7
42.560         7
42.570        13
42.580        13
42.590        13
42.600        13
42.610        13
42.620        13
42.630         7
42.640        33
42.650        13
42.660        13
42.670        13
42.680        20
42.690         0
42.700        13
42.710        13
42.720         7
42.730         7
42.740         7
42.750        13
42.760         7
42.770        20
42.780        40
42.790        33
42.800        33
42.810        13
42.820        20
42.830        13
42.840        13
42.850         0
42.860         7
42.870        27
42.880        13
42.890        13
42.900         0
42.910        13
42.920         0
42.930         7
42.940        13
42.950        33
42.960         7
42.970         0
42.980        27
42.990         7
43.000         7
43.010        20
43.020         0
43.030        13
43.040         7
43.050        33
43.060        13
43.070        13
43.080        13
43.090        13
43.100        13
43.110        20
43.120        27
43.130        13
43.140        20
43.150        13
43.160         7
43.170        13
43.180         7
43.190         7
43.200        27
43.210         0
43.220        27
43.230        13
43.240         7
43.250         7
43.260        40
43.270        20
43.280        13
43.290        13
43.300        13
43.310         7
43.320        20
43.330         0
43.340        20
43.350        20
43.360        13
43.370         0
43.380         0
43.390        13
43.400        13
43.410         7
43.420        13
43.430         0
43.440        20
43.450        20
43.460        20
43.470        40
43.480        20
43.490         7
43.500         7
43.510         7
43.520        27
43.530        27
43.540        20
43.550        27
43.560         0
43.570         7
43.580        20
43.590        27
43.600         7
43.610        20
43.620         7
43.630        13
43.640        13
43.650        13
43.660         7
43.670         7
43.680        27
43.690        40
43.700        40
43.710         0
43.720        13
43.730         7
43.740        27
43.750         7
43.760        20
43.770         7
43.780        33
43.790         7
43.800        13
43.810        13
43.820        20
43.830        13
43.840         7
43.850         0
43.860        13
43.870        13
43.880        20
43.890        13
43.900        13
43.910         0
43.920        40
43.930         7
43.940        20
43.950        13
43.960         0
43.970        13
43.980        13
43.990        20
44.000        27
44.010        13
44.020        20
44.030        20
44.040        20
44.050        33
44.060        20
44.070        20
44.080         7
44.090        13
44.100        13
44.110         0
44.120        13
44.130         0
44.140        13
44.150        27
44.160         7
44.170        13
44.180        27
44.190        47
44.200         7
44.210        13
44.220        20
44.230        13
44.240        20
44.250        13
44.260         7
44.270        27
44.280        13
44.290        40
44.300        27
44.310        27
44.320         7
44.330        13
44.340         7
44.350        13
44.360        40
44.370         7
44.380        13
44.390        13
44.400        13
44.410        20
44.420        40
44.430        27
44.440        20
44.450        13
44.460        20
44.470        27
44.480        13
44.490        27
44.500         0
44.510        33
44.520        33
44.530        13
44.540        20
44.550        33
44.560         7
44.570        13
44.580         0
44.590        47
44.600        47
44.610         7
44.620        33
44.630        47
44.640        60
44.650        47
44.660        27
44.670        20
44.680        40
44.690        47
44.700        20
44.710        20
44.720        27
44.730        20
44.740        47
44.750        53
44.760        60
44.770        33
44.780        53
44.790        67
44.800        47
44.810       100
44.820        67
44.830        73
44.840        40
44.850        60
44.860        60
44.870        73
44.880        93
44.890       113
44.900        87
44.910       153
44.920       113
44.930       140
44.940       120
44.950        80
44.960        53
44.970       120
44.980       113
44.990        87
45.000       113
45.010       127
45.020       133
45.030       133
45.040       113
45.050        93
45.060       140
45.070       100
45.080       160
45.090       167
45.100       107
45.110       160
45.120       107
45.130       140
45.140        93
45.150        80
45.160       107
45.170       100
45.180        87
45.190        93
45.200       113
45.210       100
45.220       113
45.230       113
45.240       120
45.250        87
45.260        80
45.270        87
45.280       140
45.290       107
45.300       127
45.310        80
45.320        80
45.330       140
45.340        67
45.350        80
45.360       127
45.370       113
45.380       127
45.390       147
45.400       100
45.410        87
45.420        73
45.430       153
45.440       127
45.450       107
45.460       133
45.470       100
45.480       120
45.490       100
45.500        80
45.510        73
45.520        80
45.530        87
45.540        80
45.550        80
45.560        93
45.570        60
45.580        73
45.590        80
45.600        20
45.610        67
45.620        40
45.630        33
45.640        80
45.650        33
45.660        27
45.670        13
45.680        33
45.690        40
45.700        27
45.710        13
45.720        20
45.730        20
45.740        33
45.750        13
45.760        60
45.770        47
45.780         7
45.790        20
45.800        27
45.810        27
45.820        40
45.830        33
45.840         0
45.850        13
45.860         7
45.870         7
45.880         7
45.890        13
45.900        13
45.910         0
45.920        47
45.930        13
45.940        33
45.950        27
45.960        13
45.970        33
45.980        20
45.990         7
46.000         0
46.010        13
46.020        20
46.030         7
46.040        13
46.050        33
46.060        20
46.070        20
46.080         7
46.090        20
46.100         7
46.110        20
46.120        13
46.130        13
46.140        13
46.150         0
46.160        20
46.170        13
46.180        20
46.190        27
46.200        13
46.210        20
46.220        13
46.230         0
46.240        13
46.250        13
46.260         7
46.270        33
46.280        20
46.290        13
46.300        20
46.310        20
46.320        20
46.330        13
46.340        13
46.350         7
46.360         7
46.370        13
46.380        33
46.390         0
46.400        20
46.410        27
46.420        13
46.430        20
46.440         7
46.450        20
46.460         7
46.470        13
46.480        33
46.490        27
46.500         7
46.510        13
46.520         7
46.530        13
46.540         7
46.550        13
46.560        13
46.570        20
46.580        13
46.590        13
46.600        20
46.610        27
46.620        27
46.630         7
46.640        20
46.650        13
46.660        13
46.670        47
46.680         7
46.690         0
46.700        33
46.710        13
46.720        20
46.730        40
46.740        20
46.750         7
46.760         7
46.770        13
46.780        27
46.790         7
46.800        13
46.810         7
46.820         7
46.830        13
46.840        13
46.850         7
46.860        20
46.870         7
46.880        27
46.890        13
46.900         7
46.910        20
46.920        20
46.930         7
46.940         0
46.950         7
46.960         0
46.970         7
46.980         7
46.990         7
47.000         7
47.010        13
47.020        13
47.030         7
47.040        13
47.050        33
47.060        13
47.070         0
47.080        20
47.090         7
47.100        20
47.110        13
47.120        13
47.130        40
47.140         0
47.150        27
47.160        27
47.170         7
47.180        20
47.190        13
47.200        13
47.210        13
47.220        13
47.230        13
47.240        33
47.250        13
47.260        13
47.270         0
47.280        40
47.290        13
47.300        20
47.310        13
47.320        20
47.330         7
47.340        20
47.350        13
47.360        13
47.370         0
47.380         7
47.390         7
47.400         7
47.410        40
47.420        40
47.430        13
47.440         7
47.450        20
47.460        13
47.470        13
47.480        20
47.490        20
47.500         0
47.510        13
47.520         0
47.530        20
47.540         7
47.550         7
47.560        13
47.570         7
47.580         7
47.590        13
47.600         0
47.610        13
47.620         7
47.630        13
47.640        13
47.650         7
47.660         0
47.670        13
47.680        13
47.690        40
47.700        13
47.710        27
47.720        27
47.730        40
47.740        13
47.750         0
47.760        13
47.770        20
47.780        20
47.790         0
47.800        13
47.810        13
47.820        20
47.830         0
47.840        13
47.850        13
47.860        20
47.870        13
47.880         7
47.890        13
47.900        13
47.910         0
47.920        13
47.930        13
47.940         7
47.950         7
47.960         7
47.970         7
47.980         7
47.990         7
48.000         7
48.010         7
48.020         7
48.030        20
48.040         7
48.050        20
48.060         7
48.070        20
48.080         7
48.090        13
48.100         7
48.110        20
48.120        13
48.130         7
48.140         7
48.150         7
48.160         7
48.170         7
48.180         7
48.190         0
48.200        33
48.210        13
48.220        33
48.230         0
48.240        33
48.250        13
48.260         0
48.270         0
48.280         7
48.290        13
48.300        27
48.310        20
48.320        13
48.330         0
48.340        13
48.350         0
48.360        20
48.370         7
48.380         7
48.390         0
48.400        13
48.410        20
48.420        27
48.430        20
48.440        20
48.450        13
48.460         0
48.470        20
48.480         0
48.490        27
48.500         0
48.510         7
48.520         0
48.530        20
48.540         7
48.550         7
48.560        27
48.570         7
48.580        27
48.590         0
48.600         0
48.610        13
48.620        13
48.630        13
48.640        13
48.650         7
48.660        13
48.670         7
48.680        13
48.690        27
48.700        13
48.710        13
48.720        13
48.730         0
48.740         0
48.750        20
48.760        13
48.770        20
48.780        13
48.790        27
48.800        20
48.810        20
48.820        20
48.830         0
48.840        27
48.850         0
48.860         0
48.870         7
48.880        20
48.890         7
48.900         0
48.910        13
48.920        20
48.930        33
48.940         0
48.950        13
48.960        13
48.970         7
48.980         7
48.990        13
49.000         7
49.010         0
49.020        13
49.030         7
49.040        13
49.050        13
49.060        13
49.070        27
49.080        13
49.090        33
49.100        20
49.110        13
49.120        27
49.130        20
49.140         7
49.150        20
49.160         7
49.170        27
49.180        13
49.190        20
49.200        13
49.210        27
49.220         7
49.230         0
49.240         0
49.250         7
49.260         7
49.270         7
49.280         0
49.290         0
49.300        20
49.310         7
49.320        13
49.330         7
49.340         0
49.350         7
49.360        13
49.370         7
49.380        13
49.390         7
49.400        13
49.410        13
49.420         0
49.430        13
49.440        13
49.450        13
49.460        33
49.470         0
49.480         7
49.490         7
49.500        13
49.510         0
49.520        13
49.530        27
49.540         7
49.550        33
49.560        20
49.570        13
49.580         7
49.590        13
49.600         0
49.610         7
49.620        13
49.630        20
49.640        13
49.650         7
49.660        13
49.670        20
49.680        20
49.690        27
49.700         0
49.710        13
49.720        20
49.730         7
49.740         0
49.750        13
49.760         0
49.770        20
49.780         0
49.790         7
49.800         7
49.810         0
49.820         7
49.830        13
49.840        13
49.850         0
49.860        13
49.870         7
49.880         7
49.890        13
49.900        20
49.910        20
49.920         7
49.930        13
49.940         7
49.950         0
49.960        27
49.970         7
49.980        13
49.990         0
50.000        20
50.010         7
50.020        13
50.030         0
50.040        20
50.050        33
50.060         7
50.070         7
50.080        13
50.090         0
50.100         7
50.110        20
50.120        13
50.130         7
50.140         7
50.150        13
50.160         7
50.170         0
50.180        27
50.190        20
50.200        27
50.210         7
50.220        20
50.230         0
50.240         7
50.250         0
50.260         7
50.270         7
50.280         7
50.290         7
50.300        27
50.310        27
50.320         7
50.330         7
50.340        20
50.350        13
50.360         7
50.370        53
50.380         7
50.390         7
50.400        27
50.410        13
50.420        20
50.430        27
50.440        40
50.450         0
50.460        13
50.470        33
50.480        47
50.490        20
50.500        27
50.510        47
50.520         7
50.530        20
50.540         7
50.550        27
50.560        27
50.570        40
50.580        27
50.590        13
50.600         7
50.610        33
50.620        40
50.630        40
50.640        60
50.650        40
50.660        80
50.670        67
50.680        53
50.690        53
50.700        40
50.710        47
50.720        47
50.730        33
50.740        60
50.750        20
50.760        53
50.770        33
50.780        27
50.790        27
50.800        40
50.810        60
50.820        27
50.830        40
50.840        40
50.850        53
50.860        47
50.870        40
50.880        87
50.890        47
50.900        20
50.910        80
50.920        40
50.930        67
50.940         7
50.950        33
50.960        47
50.970        73
50.980        80
50.990        60
51.000        27
51.010        20
51.020        60
51.030        73
51.040        40
51.050        40
51.060        47
51.070        47
51.080        27
51.090        60
51.100        47
51.110        60
51.120        47
51.130        40
51.140        40
51.150        47
51.160        40
51.170        20
51.180        40
51.190        40
51.200        33
51.210        33
51.220        20
51.230        33
51.240         0
51.250        33
51.260        20
51.270        20
51.280        27
51.290         7
51.300         7
51.310        20
51.320        20
51.330        13
51.340         7
51.350        27
51.360         7
51.370        13
51.380        33
51.390        20
51.400        13
51.410        27
51.420         7
51.430         7
51.440        20
51.450        13
51.460        13
51.470         0
51.480        20
51.490        13
51.500         7
51.510        13
51.520         7
51.530        27
51.540         7
51.550        20
51.560        13
51.570        20
51.580        33
51.590        47
51.600        13
51.610         7
51.620        27
51.630         0
51.640        27
51.650         7
51.660         7
51.670        20
51.680        20
51.690        20
51.700        13
51.710        20
51.720        20
51.730        20
51.740         7
51.750        20
51.760        20
51.770        20
51.780         7
51.790        27
51.800        20
51.810        13
51.820         0
51.830         7
51.840         7
51.850        20
51.860         0
51.870        20
51.880        40
51.890        20
51.900         7
51.910         7
51.920         0
51.930         7
51.940         7
51.950         7
51.960         0
51.970        20
51.980        13
51.990        20
52.000         7
52.010         0
52.020        13
52.030        13
52.040        13
52.050         7
52.060         7
52.070         0
52.080         7
52.090        13
52.100         7
52.110         7
52.120         7
52.130        13
52.140         7
52.150         0
52.160        13
52.170        13
52.180         7
52.190        13
52.200         7
52.210         7
52.220         7
52.230        13
52.240        27
52.250         7
52.260        13
52.270        13
52.280         0
52.290         0
52.300         7
52.310        13
52.320         7
52.330        13
52.340        13
52.350         7
52.360         0
52.370        13
52.380         7
52.390         7
52.400         7
52.410         0
52.420        13
52.430         0
52.440        20
52.450         0
52.460         7
52.470         7
52.480         7
52.490        13
52.500        20
52.510        13
52.520         7
52.530        27
52.540        13
52.550        20
52.560        13
52.570         7
52.580        13
52.590        27
52.600         7
52.610         7
52.620         7
52.630         7
52.640        13
52.650         0
52.660        13
52.670        13
52.680         7
52.690        13
52.700        13
52.710         7
52.720         7
52.730         7
52.740         7
52.750         7
52.760         7
52.770         7
52.780         7
52.790        20
52.800        13
52.810         0
52.820        33
52.830        13
52.840        13
52.850        27
52.860         0
52.870         7
52.880         7
52.890         7
52.900         0
52.910        13
52.920        13
52.930        20
52.940        13
52.950         7
52.960        13
52.970        13
52.980        13
52.990         7
53.000         7
53.010        13
53.020         0
53.030        13
53.040         7
53.050        13
53.060         7
53.070        13
53.080         7
53.090        27
53.100         0
53.110         7
53.120        13
53.130        20
53.140         0
53.150        13
53.160        20
53.170         0
53.180         0
53.190         7
53.200        13
53.210        13
53.220         0
53.230         0
53.240         7
53.250        13
53.260         7
53.270         7
53.280         7
53.290        20
53.300         7
53.310        13
53.320        13
53.330         7
53.340         7
53.350        20
53.360         7
53.370         7
53.380         7
53.390        13
53.400        13
53.410         7
53.420         7
53.430        13
53.440         7
53.450         7
53.460        13
53.470         0
53.480         0
53.490         0
53.500         7
53.510         7
53.520         0
53.530         7
53.540        13
53.550         7
53.560         7
53.570         0
53.580         7
53.590         0
53.600         7
53.610        20
53.620        13
53.630         0
53.640         7
53.650         0
53.660         0
53.670        13
53.680         7
53.690         7
53.700        13
53.710         0
53.720         7
53.730        13
53.740         7
53.750        13
53.760        20
53.770        13
53.780        20
53.790         7
53.800        20
53.810        13
53.820        13
53.830         0
53.840         0
53.850         7
53.860        27
53.870        33
53.880        13
53.890        13
53.900        20
53.910         0
53.920        13
53.930        13
53.940        13
53.950        33
53.960         0
53.970        13
53.980        13
53.990        13
54.000         7
54.010         0
54.020         0
54.030        20
54.040        27
54.050         0
54.060         7
54.070        13
54.080         7
54.090        20
54.100         0
54.110        20
54.120         0
54.130         0
54.140        13
54.150         7
54.160         7
54.170         0
54.180         7
54.190        33
54.200        13
54.210         7
54.220        13
54.230        13
54.240         7
54.250        13
54.260         0
54.270         7
54.280         7
54.290         7
54.300         7
54.310         7
54.320         7
54.330        13
54.340         0
54.350        13
54.360         7
54.370         7
54.380        13
54.390        20
54.400        13
54.410        13
54.420         7
54.430        27
54.440        13
54.450        13
54.460        20
54.470        13
54.480         7
54.490         0
54.500         0
54.510         0
54.520        13
54.530         0
54.540        33
54.550         7
54.560         0
54.570         0
54.580        33
54.590         0
54.600        27
54.610        13
54.620        27
54.630         0
54.640         7
54.650         0
54.660         7
54.670         0
54.680         7
54.690        20
54.700        20
54.710         7
54.720         0
54.730        13
54.740         0
54.750         7
54.760        33
54.770        13
54.780         7
54.790        13
54.800         7
54.810        20
54.820        13
54.830        13
54.840         0
54.850         7
54.860        13
54.870         7
54.880        13
54.890        13
54.900        13
54.910        20
54.920        13
54.930        20
54.940        27
54.950        20
54.960        13
54.970         0
54.980        20
54.990        13
55.000        13
55.010         7
55.020         7
55.030        13
55.040         7
55.050         7
55.060         7
55.070        13
55.080         0
55.090         0
55.100         7
55.110         7
55.120        13
55.130         7
55.140        27
55.150         7
55.160        33
55.170         0
55.180        20
55.190        13
55.200         0
55.210        20
55.220         0
55.230        13
55.240        13
55.250        27
55.260        40
55.270        33
55.280        20
55.290         0
55.300        13
55.310        20
55.320        20
55.330        33
55.340        13
55.350        27
55.360        13
55.370        13
55.380         0
55.390        27
55.400        13
55.410         7
55.420         0
55.430        13
55.440        33
55.450        20
55.460        13
55.470         0
55.480        40
55.490        13
55.500        33
55.510        13
55.520        13
55.530        13
55.540        20
55.550        20
55.560        13
55.570         7
55.580        20
55.590        47
55.600        13
55.610        20
55.620        20
55.630        20
55.640        27
55.650        20
55.660        13
55.670        13
55.680        13
55.690         7
55.700        33
55.710        53
55.720        40
55.730        13
55.740        33
55.750        13
55.760        40
55.770        33
55.780        27
55.790        27
55.800        47
55.810        33
55.820        47
55.830        73
55.840        60
55.850        53
55.860        60
55.870        80
55.880        53
55.890        67
55.900        60
55.910       107
55.920       120
55.930        93
55.940       133
55.950        80
55.960        93
55.970       100
55.980        93
55.990       133
56.000        93
56.010       180
56.020       147
56.030       133
56.040       160
56.050        87
56.060       160
56.070       120
56.080       227
56.090        93
56.100       187
56.110       173
56.120       100
56.130       147
56.140       140
56.150       120
56.160       147
56.170       140
56.180       113
56.190       180
56.200       200
56.210       133
56.220       187
56.230       227
56.240       147
56.250       160
56.260        73
56.270       147
56.280       180
56.290       207
56.300       200
56.310       173
56.320       207
56.330       153
56.340       247
56.350       147
56.360       140
56.370       127
56.380       100
56.390       187
56.400       140
56.410        87
56.420       160
56.430       153
56.440       100
56.450       147
56.460       140
56.470       127
56.480        73
56.490       107
56.500        73
56.510        87
56.520        73
56.530        47
56.540        53
56.550        93
56.560        47
56.570        53
56.580        67
56.590        67
56.600        33
56.610        13
56.620        27
56.630        40
56.640        40
56.650        33
56.660        33
56.670        33
56.680        27
56.690        20
56.700        53
56.710         7
56.720        13
56.730        13
56.740        33
56.750        40
56.760        33
56.770        27
56.780        13
56.790        47
56.800        20
56.810        27
56.820        20
56.830         0
56.840        20
56.850        33
56.860         7
56.870         7
56.880        13
56.890        33
56.900        27
56.910        20
56.920        13
56.930        20
56.940         7
56.950         7
56.960         7
56.970        20
56.980         7
56.990         7
57.000         7
57.010        13
57.020         0
57.030        13
57.040        20
57.050        13
57.060         0
57.070        27
57.080         7
57.090         7
57.100        27
57.110        13
57.120         7
57.130         7
57.140         7
57.150         7
57.160        13
57.170         7
57.180        33
57.190        13
57.200        13
57.210        20
57.220        20
57.230         7
57.240         0
57.250         0
57.260         7
57.270         7
57.280         7
57.290         7
57.300        33
57.310        27
57.320         0
57.330         7
57.340         0
57.350         7
57.360         7
57.370         0
57.380        27
57.390        27
57.400        13
57.410         7
57.420        20
57.430        20
57.440        13
57.450         7
57.460         0
57.470        13
57.480        20
57.490        20
57.500        13
57.510        27
57.520        20
57.530        13
57.540         7
57.550        13
57.560         7
57.570         7
57.580        13
57.590         7
57.600        13
57.610        33
57.620        20
57.630         0
57.640         7
57.650        13
57.660        13
57.670        13
57.680        13
57.690        20
57.700        33
57.710        20
57.720         7
57.730         7
57.740         7
57.750         0
57.760         7
57.770         7
57.780         7
57.790         0
57.800         7
57.810         0
57.820        33
57.830         0
57.840        13
57.850         7
57.860        13
57.870        13
57.880         7
57.890         7
57.900        20
57.910        13
57.920         7
57.930         0
57.940         7
57.950         7
57.960        20
57.970         0
57.980         0
57.990         0
58.000         7
58.010         7
58.020        13
58.030         7
58.040         0
58.050         0
58.060         0
58.070        13
58.080        20
58.090        13
58.100         7
58.110         7
58.120        20
58.130        27
58.140        20
58.150         0
58.160         7
58.170         0
58.180         7
58.190        20
58.200        13
58.210        20
58.220        13
58.230         0
58.240        13
58.250         0
58.260         7
58.270        13
58.280         0
58.290         0
58.300         7
58.310        20
58.320         0
58.330         7
58.340        13
58.350         0
58.360        20
58.370        13
58.380        20
58.390         0
58.400        13
58.410        20
58.420         0
58.430         0
58.440         0
58.450         0
58.460        13
58.470         7
58.480        13
58.490         0
58.500         7
58.510         0
58.520        13
58.530         0
58.540         0
58.550        13
58.560         0
58.570         0
58.580        13
58.590         7
58.600         7
58.610         0
58.620         0
58.630         7
58.640        13
58.650         7
58.660         7
58.670        13
58.680        13
58.690        13
58.700         7
58.710         7
58.720        13
58.730        13
58.740         7
58.750         7
58.760        20
58.770         7
58.780         7
58.790         0
58.800        13
58.810        13
58.820         0
58.830        13
58.840         7
58.850         0
58.860        20
58.870        13
58.880         0
58.890        20
58.900         7
58.910        13
58.920         0
58.930        13
58.940        20
58.950        13
58.960        20
58.970        13
58.980        13
58.990        13
59.000         7
59.010         7
59.020        20
59.030         0
59.040        13
59.050        13
59.060         0
59.070        13
59.080         0
59.090        13
59.100         0
59.110         7
59.120        13
59.130        13
59.140         0
59.150         7
59.160        20
59.170        33
59.180        20
59.190        27
59.200        27
59.210         0
59.220         0
59.230         0
59.240        13
59.250         0
59.260         7
59.270         7
59.280         7
59.290        13
59.300        33
59.310         7
59.320        13
59.330         0
59.340         0
59.350        20
59.360         7
59.370         7
59.380         7
59.390        20
59.400         7
59.410         7
59.420         0
59.430         7
59.440        13
59.450        20
59.460         7
59.470         7
59.480         0
59.490         7
59.500        13
59.510         7
59.520         0
59.530        13
59.540        13
59.550        13
59.560         7
59.570        27
59.580        13
59.590        13
59.600        27
59.610         7
59.620         0
59.630        20
59.640        20
59.650        13
59.660        20
59.670        20
59.680         0
59.690         0
59.700         7
59.710         0
59.720        20
59.730         7
59.740         7
59.750        13
59.760         7
59.770         0
59.780        13
59.790         7
59.800         7
59.810         0
59.820         7
59.830         7
59.840         7
59.850         0
59.860         0
59.870        20
59.880        27
59.890        13
59.900        13
59.910         0
59.920         7
59.930         7
59.940        13
59.950         7
59.960         7
59.970        13
59.980         0
59.990        40
60.000         0
