20.000        73
20.010       107
20.020       100
20.030        53
20.040        93
20.050        33
20.060        67
20.070       100
20.080        73
20.090        60
20.100        47
20.110        60
20.120        47
20.130       127
20.140        60
20.150        67
20.160        80
20.170        60
20.180        80
20.190        60
20.200        67
20.210        93
20.220        33
20.230        60
20.240        60
20.250        80
20.260        53
20.270        33
20.280        93
20.290        40
20.300        40
20.310        60
20.320        80
20.330        67
20.340        67
20.350        93
20.360        80
20.370        40
20.380        53
20.390       100
20.400        80
20.410        47
20.420        93
20.430        73
20.440        87
20.450        40
20.460       107
20.470       100
20.480        67
20.490        93
20.500        40
20.510       120
20.520       127
20.530        60
20.540        60
20.550        67
20.560        60
20.570        40
20.580        80
20.590        60
20.600        67
20.610       120
20.620        93
20.630        73
20.640        73
20.650        40
20.660        93
20.670        47
20.680        47
20.690        27
20.700        73
20.710        87
20.720        73
20.730        53
20.740        60
20.750        87
20.760        73
20.770        53
20.780        80
20.790        27
20.800        53
20.810        60
20.820        60
20.830        93
20.840        73
20.850        27
20.860        20
20.870        47
20.880        40
20.890        67
20.900        67
20.910        40
20.920        60
20.930        40
20.940        87
20.950        60
20.960        73
20.970        27
20.980        67
20.990        40
21.000        73
21.010        60
21.020        80
21.030        40
21.040        93
21.050        60
21.060        60
21.070        80
21.080        67
21.090        67
21.100        40
21.110        67
21.120        73
21.130        60
21.140        60
21.150        80
21.160        80
21.170        53
21.180        93
21.190        67
21.200        80
21.210        67
21.220        67
21.230        80
21.240        47
21.250        67
21.260        73
21.270        53
21.280        47
21.290        53
21.300        73
21.310        93
21.320        53
21.330        53
21.340        47
21.350       100
21.360        33
21.370        87
21.380        60
21.390        47
21.400        53
21.410        60
21.420        40
21.430       100
21.440        93
21.450        60
21.460        87
21.470       100
21.480        40
21.490        73
21.500        67
21.510        67
21.520        33
21.530        87
21.540        87
21.550        67
21.560        60
21.570        80
21.580        73
21.590        47
21.600        53
21.610        73
21.620        33
21.630        53
21.640        53
21.650        47
21.660       100
21.670        67
21.680        93
21.690        47
21.700       120
21.710        73
21.720        53
21.730        67
21.740        47
21.750        93
21.760        80
21.770        53
21.780        73
21.790        60
21.800        33
21.810        53
21.820        73
21.830        53
21.840        67
21.850        67
21.860       107
21.870        67
21.880        40
21.890        80
21.900        40
21.910        27
21.920        67
21.930        93
21.940        73
21.950        67
21.960        53
21.970        53
21.980        67
21.990       100
22.000        53
22.010       113
22.020        67
22.030        47
22.040        40
22.050       133
22.060       107
22.070        53
22.080        60
22.090        67
22.100        80
22.110        80
22.120        67
22.130        80
22.140        60
22.150        73
22.160        67
22.170        67
22.180        47
22.190        67
22.200        73
22.210       113
22.220        73
22.230        73
22.240        73
22.250        60
22.260        73
22.270        53
22.280        53
22.290        73
22.300        53
22.310        40
22.320       107
22.330        60
22.340        67
22.350       147
22.360       127
22.370        47
22.380       120
22.390        47
22.400        80
22.410        47
22.420       100
22.430        67
22.440        80
22.450        67
22.460        53
22.470        13
22.480        67
22.490        60
22.500        47
22.510        53
22.520        67
22.530        93
22.540        73
22.550        93
22.560        67
22.570        73
22.580        67
22.590        67
22.600        40
22.610        67
22.620        87
22.630        47
22.640        73
22.650        27
22.660        67
22.670        67
22.680        87
22.690        80
22.700        53
22.710       100
22.720        87
22.730        93
22.740        73
22.750        73
22.760        73
22.770        47
22.780        60
22.790        73
22.800       100
22.810        80
22.820        87
22.830        47
22.840        80
22.850       113
22.860        87
22.870       140
22.880        60
22.890       140
22.900        73
22.910        93
22.920       113
22.930       113
22.940       147
22.950       120
22.960        80
22.970       100
22.980        87
22.990       140
23.000       100
23.010       160
23.020       167
23.030       160
23.040       127
23.050       267
23.060       446
23.070       466
23.080       646
23.090       646
23.100       726
23.110       806
23.120       533
23.130       506
23.140       400
23.150       267
23.160       127
23.170        87
23.180        73
23.190        87
23.200        73
23.210        67
23.220       107
23.230       140
23.240       100
23.250        80
23.260       113
23.270       120
23.280        87
23.290        73
23.300        67
23.310       120
23.320        60
23.330        73
23.340        67
23.350       120
23.360        80
23.370        80
23.380        80
23.390       120
23.400        87
23.410        73
23.420        67
23.430        93
23.440       113
23.450        73
23.460        67
23.470        87
23.480        87
23.490       100
23.500        73
23.510        60
23.520       120
23.530        93
23.540        73
23.550        87
23.560       113
23.570       120
23.580       100
23.590        67
23.600        87
23.610        73
23.620        67
23.630        93
23.640        67
23.650        67
23.660        80
23.670        93
23.680        47
23.690        93
23.700       107
23.710        73
23.720        73
23.730        93
23.740        60
23.750        87
23.760        47
23.770        73
23.780       100
23.790        40
23.800       153
23.810        80
23.820        87
23.830        87
23.840       113
23.850        93
23.860        67
23.870        87
23.880        80
23.890       100
23.900        73
23.910       107
23.920        93
23.930        80
23.940        73
23.950        53
23.960        60
23.970        87
23.980        67
23.990       113
24.000       113
24.010       120
24.020        80
24.030        73
24.040        60
24.050        60
24.060       113
24.070        87
24.080        60
24.090        93
24.100        60
24.110       153
24.120       113
24.130       113
24.140       120
24.150        67
24.160       100
24.170        33
24.180        47
24.190        73
24.200        47
24.210       100
24.220        93
24.230        87
24.240        73
24.250       107
24.260        40
24.270        67
24.280        73
24.290        53
24.300        53
24.310       133
24.320        93
24.330       120
24.340        80
24.350       113
24.360        87
24.370        80
24.380        80
24.390        67
24.400        67
24.410        33
24.420       100
24.430       113
24.440        47
24.450        67
24.460        80
24.470       113
24.480       113
24.490        80
24.500       100
24.510        87
24.520        87
24.530        87
24.540        33
24.550        93
24.560        67
24.570        60
24.580       100
24.590        80
24.600       113
24.610       107
24.620        80
24.630       120
24.640        93
24.650       120
24.660        73
24.670       120
24.680       133
24.690       173
24.700       153
24.710       147
24.720       227
24.730       293
24.740       267
24.750       293
24.760       240
24.770       360
24.780       360
24.790       260
24.800       353
24.810       267
24.820       340
24.830       373
24.840       426
24.850       373
24.860       280
24.870       380
24.880       320
24.890       253
24.900       313
24.910       287
24.920       313
24.930       293
24.940       307
24.950       333
24.960       327
24.970       387
24.980       320
24.990       373
25.000       293
25.010       327
25.020       327
25.030       313
25.040       333
25.050       307
25.060       327
25.070       367
25.080       307
25.090       360
25.100       307
25.110       300
25.120       253
25.130       280
25.140       420
25.150       327
25.160       473
25.170       353
25.180       280
25.190       247
25.200       367
25.210       293
25.220       267
25.230       433
25.240       353
25.250       387
25.260       413
25.270       493
25.280       446
25.290       613
25.300       560
25.310       693
25.320       706
25.330       893
25.340      1100
25.350      1220
25.360      1379
25.370      1419
25.380      1926
25.390      2059
25.400      2212
25.410      2672
25.420      2806
25.430      2799
25.440      3245
25.450      3745
25.460      3858
25.470      3918
25.480      4252
25.490      4478
25.500      4898
25.510      5165
25.520      5424
25.530      6377
25.540      8210
25.550     17067
25.560     32367
25.570     50387
25.580     63241
25.590     69499
25.600     71885
25.610     74057
25.620     76383
25.630     74597
25.640     64667
25.650     50680
25.660     42963
25.670     40750
25.680     38338
25.690     34273
25.700     26036
25.710     15221
25.720      7497
25.730      3725
25.740      2286
25.750      1966
25.760      1646
25.770      1399
25.780      1193
25.790      1020
25.800       773
25.810       853
25.820       660
25.830       680
25.840       686
25.850       533
25.860       606
25.870       506
25.880       513
25.890       520
25.900       526
25.910       486
25.920       466
25.930       460
25.940       413
25.950       533
25.960       420
25.970       313
25.980       440
25.990       400
26.000       500
26.010       340
26.020       347
26.030       367
26.040       320
26.050       273
26.060       373
26.070       327
26.080       280
26.090       433
26.100       247
26.110       373
26.120       293
26.130       260
26.140       207
26.150       307
26.160       307
26.170       207
26.180       240
26.190       253
26.200       327
26.210       340
26.220       233
26.230       253
26.240       353
26.250       213
26.260       193
26.270       207
26.280       227
26.290       247
26.300       320
26.310       300
26.320       220
26.330       280
26.340       300
26.350       240
26.360       233
26.370       353
26.380       280
26.390       200
26.400       213
26.410       193
26.420       207
26.430       187
26.440       187
26.450       300
26.460       273
26.470       180
26.480       160
26.490       247
26.500       213
26.510       153
26.520       233
26.530       260
26.540       253
26.550       213
26.560       260
26.570       207
26.580       213
26.590       307
26.600       207
26.610       220
26.620       160
26.630       147
26.640       213
26.650       267
26.660       207
26.670       153
26.680       233
26.690       200
26.700       233
26.710       153
26.720       187
26.730       247
26.740       207
26.750       167
26.760       247
26.770       200
26.780       220
26.790       200
26.800       267
26.810       193
26.820       113
26.830       200
26.840       153
26.850       200
26.860       180
26.870       173
26.880       173
26.890       187
26.900       200
26.910       213
26.920       180
26.930       227
26.940       140
26.950       233
26.960       200
26.970       240
26.980       140
26.990       220
27.000       160
27.010       173
27.020       147
27.030       213
27.040       207
27.050       153
27.060       153
27.070       140
27.080       153
27.090       200
27.100       187
27.110       220
27.120       227
27.130       173
27.140       160
27.150       160
27.160       187
27.170       120
27.180       207
27.190       180
27.200       133
27.210       107
27.220       213
27.230       200
27.240       147
27.250       133
27.260       167
27.270       187
27.280       140
27.290       153
27.300       167
27.310       173
27.320       113
27.330       167
27.340       200
27.350       133
27.360       140
27.370       180
27.380       167
27.390       200
27.400       147
27.410       260
27.420       140
27.430       173
27.440       140
27.450       173
27.460       140
27.470        93
27.480        93
27.490       127
27.500        80
27.510       167
27.520       140
27.530       193
27.540       207
27.550       180
27.560       207
27.570       133
27.580       167
27.590       153
27.600       153
27.610       120
27.620       113
27.630       167
27.640       193
27.650       153
27.660       107
27.670       133
27.680       167
27.690       167
27.700       113
27.710       173
27.720       127
27.730       153
27.740       147
27.750       120
27.760        93
27.770       180
27.780       173
27.790       180
27.800       153
27.810       167
27.820       187
27.830       207
27.840       173
27.850       147
27.860       113
27.870       133
27.880       193
27.890       113
27.900       133
27.910       147
27.920       160
27.930       160
27.940        93
27.950       113
27.960       180
27.970       207
27.980       133
27.990       200
28.000       100
28.010       120
28.020       127
28.030       160
28.040       127
28.050       107
28.060       147
28.070       233
28.080       180
28.090       153
28.100       147
28.110       200
28.120       140
28.130       133
28.140       167
28.150       160
28.160       107
28.170       100
28.180       133
28.190       160
28.200       133
28.210       127
28.220       173
28.230       147
28.240       180
28.250       167
28.260       180
28.270       100
28.280       207
28.290       147
28.300       220
28.310       127
28.320       173
28.330       200
28.340       153
28.350       153
28.360       147
28.370        87
28.380       180
28.390       160
28.400        73
28.410       107
28.420       153
28.430       120
28.440       180
28.450       153
28.460       160
28.470       140
28.480       140
28.490       213
28.500        93
28.510       147
28.520       187
28.530       140
28.540       173
28.550       107
28.560       133
28.570        93
28.580       187
28.590       160
28.600       133
28.610       147
28.620       127
28.630       160
28.640       127
28.650       120
28.660       133
28.670       107
28.680       160
28.690       167
28.700       200
28.710       120
28.720       133
28.730       107
28.740       147
28.750        93
28.760       187
28.770       140
28.780       140
28.790        93
28.800       147
28.810       140
28.820       160
28.830       133
28.840       113
28.850       180
28.860        93
28.870       100
28.880       227
28.890       147
28.900        93
28.910       120
28.920       100
28.930       153
28.940        87
28.950       120
28.960       160
28.970       147
28.980       107
28.990       120
29.000        87
29.010       140
29.020       127
29.030       113
29.040        93
29.050       113
29.060       127
29.070       113
29.080       107
29.090       140
29.100       127
29.110        93
29.120       160
29.130       127
29.140       167
29.150       120
29.160       100
29.170        80
29.180        93
29.190       147
29.200       113
29.210        60
29.220        73
29.230       100
29.240       173
29.250       127
29.260       160
29.270       120
29.280        80
29.290       113
29.300        87
29.310        93
29.320        87
29.330       120
29.340       113
29.350        87
29.360        93
29.370       113
29.380       147
29.390       160
29.400       147
29.410       100
29.420       140
29.430       133
29.440        73
29.450       100
29.460       120
29.470        87
29.480       133
29.490       107
29.500       153
29.510       120
29.520       133
29.530       113
29.540       107
29.550       113
29.560       100
29.570       173
29.580       133
29.590       113
29.600       100
29.610       147
29.620        87
29.630       127
29.640       193
29.650       140
29.660       100
29.670       120
29.680       133
29.690       120
29.700        93
29.710       127
29.720       127
29.730       107
29.740       100
29.750       120
29.760       127
29.770        87
29.780        87
29.790        73
29.800       127
29.810       147
29.820       127
29.830       127
29.840        80
29.850       113
29.860       153
29.870       160
29.880       120
29.890       113
29.900        73
29.910        87
29.920       127
29.930        60
29.940       193
29.950       100
29.960       113
29.970        87
29.980       107
29.990       160
30.000       113
30.010       113
30.020        80
30.030       100
30.040       120
30.050       107
30.060        93
30.070        80
30.080        93
30.090       133
30.100       120
30.110       120
30.120        93
30.130       133
30.140       120
30.150       120
30.160       100
30.170        73
30.180        87
30.190       107
30.200       153
30.210       107
30.220        80
30.230        87
30.240       120
30.250       107
30.260       113
30.270       107
30.280       140
30.290        87
30.300        60
30.310        87
30.320       133
30.330       107
30.340       107
30.350        87
30.360       140
30.370        67
30.380       133
30.390       147
30.400       153
30.410       107
30.420        60
30.430       113
30.440        87
30.450       107
30.460        87
30.470       113
30.480       133
30.490       147
30.500        53
30.510       100
30.520       107
30.530        67
30.540        93
30.550       133
30.560       113
30.570       147
30.580       120
30.590       107
30.600       127
30.610        67
30.620       100
30.630       120
30.640        87
30.650       147
30.660       120
30.670        87
30.680       173
30.690        73
30.700        87
30.710        80
30.720        80
30.730       107
30.740       120
30.750        93
30.760        53
30.770        93
30.780       113
30.790        73
30.800       140
30.810       113
30.820       107
30.830       127
30.840       113
30.850        80
30.860       100
30.870        67
30.880        67
30.890        60
30.900        93
30.910       120
30.920       127
30.930       107
30.940        73
30.950        53
30.960       120
30.970        40
30.980       120
30.990        93
31.000       147
31.010        87
31.020        80
31.030       100
31.040        93
31.050       120
31.060       107
31.070       100
31.080       113
31.090        87
31.100       107
31.110       113
31.120       100
31.130        73
31.140       140
31.150        60
31.160       107
31.170        73
31.180        73
31.190       107
31.200       113
31.210       107
31.220        80
31.230       107
31.240        93
31.250       100
31.260       100
31.270        67
31.280        80
31.290        53
31.300       167
31.310        67
31.320       107
31.330       133
31.340        87
31.350       107
31.360       127
31.370       107
31.380       107
31.390        87
31.400       100
31.410       160
31.420       147
31.430       113
31.440       133
31.450        73
31.460        80
31.470        67
31.480       133
31.490        87
31.500        80
31.510        93
31.520       133
31.530       100
31.540        93
31.550        93
31.560        93
31.570       100
31.580       167
31.590        67
31.600       107
31.610        73
31.620       113
31.630        47
31.640        67
31.650       133
31.660        87
31.670        87
31.680        60
31.690       100
31.700        93
31.710       100
31.720        67
31.730        73
31.740       107
31.750        80
31.760       100
31.770        73
31.780       113
31.790        73
31.800        53
31.810        80
31.820        87
31.830        53
31.840        87
31.850        60
31.860       113
31.870       107
31.880        67
31.890        93
31.900        93
31.910       120
31.920       120
31.930        73
31.940        93
31.950        93
31.960        33
31.970       113
31.980        80
31.990        87
32.000        80
32.010       140
32.020        73
32.030        87
32.040        80
32.050       100
32.060        60
32.070        73
32.080        40
32.090        80
32.100       133
32.110        53
32.120        60
32.130        53
32.140        67
32.150        80
32.160       113
32.170        53
32.180        93
32.190        87
32.200        80
32.210        93
32.220        40
32.230        73
32.240        67
32.250       100
32.260        73
32.270       120
32.280        93
32.290        67
32.300        87
32.310        80
32.320        53
32.330       113
32.340        87
32.350        73
32.360        87
32.370        93
32.380       100
32.390        80
32.400        87
32.410        87
32.420        67
32.430        27
32.440        80
32.450        87
32.460       113
32.470        40
32.480        93
32.490       113
32.500        67
32.510        67
32.520        67
32.530        60
32.540       113
32.550        80
32.560        40
32.570       107
32.580        33
32.590        53
32.600       100
32.610        60
32.620       100
32.630        40
32.640        67
32.650        67
32.660       107
32.670        33
32.680        73
32.690       107
32.700        73
32.710        87
32.720        80
32.730        47
32.740       107
32.750        67
32.760        53
32.770        80
32.780        47
32.790        67
32.800         7
32.810        73
32.820        60
32.830        80
32.840       113
32.850        60
32.860        53
32.870        60
32.880        67
32.890        80
32.900        93
32.910        53
32.920        53
32.930        40
32.940        47
32.950        67
32.960        87
32.970        47
32.980        73
32.990        47
33.000        80
33.010        40
33.020        33
33.030        40
33.040        67
33.050        73
33.060        60
33.070        80
33.080        40
33.090        80
33.100        33
33.110        73
33.120        47
33.130        40
33.140        80
33.150        93
33.160        67
33.170        87
33.180        80
33.190        67
33.200        67
33.210        80
33.220        67
33.230        67
33.240        53
33.250        53
33.260        53
33.270       100
33.280        53
33.290        40
33.300        73
33.310       100
33.320        93
33.330        47
33.340        60
33.350        73
33.360        60
33.370        80
33.380        53
33.390        47
33.400       113
33.410        80
33.420        47
33.430        53
33.440        53
33.450        67
33.460        80
33.470        53
33.480        40
33.490        73
33.500        53
33.510       100
33.520        53
33.530        27
33.540        73
33.550        73
33.560        53
33.570        53
33.580        47
33.590        27
33.600        47
33.610        53
33.620        33
33.630        73
33.640        13
33.650        73
33.660        53
33.670        40
33.680        73
33.690        67
33.700        60
33.710        47
33.720        80
33.730        40
33.740        87
33.750        33
33.760        67
33.770        53
33.780        53
33.790        80
33.800        33
33.810        80
33.820        40
33.830       107
33.840       120
33.850        40
33.860        87
33.870        80
33.880        67
33.890        73
33.900        93
33.910        60
33.920        53
33.930        60
33.940        47
33.950        53
33.960        73
33.970        60
33.980        47
33.990        67
34.000       113
34.010        87
34.020        73
34.030        13
34.040        53
34.050        53
34.060        67
34.070        60
34.080        47
34.090        40
34.100        33
34.110        33
34.120        67
34.130        40
34.140        27
34.150        33
34.160        33
34.170        47
34.180        73
34.190        53
34.200        80
34.210        40
34.220        13
34.230        93
34.240        53
34.250        60
34.260        53
34.270        47
34.280        40
34.290        73
34.300        60
34.310        53
34.320        40
34.330        40
34.340        40
34.350        53
34.360        93
34.370        67
34.380        80
34.390       100
34.400        67
34.410        93
34.420        47
34.430        53
34.440        87
34.450        60
34.460        93
34.470        33
34.480        73
34.490        60
34.500        53
34.510        60
34.520        60
34.530        40
34.540        87
34.550        47
34.560        80
34.570        67
34.580        67
34.590        87
34.600        67
34.610        53
34.620        27
34.630        53
34.640        27
34.650        40
34.660        27
34.670        67
34.680        60
34.690        67
34.700        60
34.710        40
34.720        47
34.730        73
34.740        33
34.750        53
34.760        87
34.770        47
34.780        33
34.790        33
34.800        53
34.810        53
34.820        73
34.830        47
34.840        67
34.850        53
34.860        53
34.870        80
34.880        33
34.890        67
34.900        20
34.910        93
34.920        53
34.930        40
34.940        67
34.950        53
34.960        47
34.970        47
34.980        53
34.990        27
35.000        33
35.010        47
35.020        60
35.030        80
35.040        67
35.050        40
35.060        27
35.070        33
35.080        67
35.090        53
35.100        47
35.110        33
35.120        67
35.130        60
35.140        60
35.150        53
35.160        27
35.170        53
35.180        60
35.190        33
35.200        53
35.210        60
35.220        27
35.230        47
35.240        53
35.250        80
35.260        33
35.270        73
35.280        67
35.290        80
35.300        60
35.310        40
35.320        27
35.330       100
35.340        27
35.350       113
35.360        53
35.370        47
35.380        33
35.390        27
35.400        67
35.410        73
35.420        40
35.430        13
35.440        53
35.450        67
35.460        67
35.470        47
35.480        40
35.490        47
35.500        47
35.510        27
35.520        53
35.530        20
35.540       100
35.550        40
35.560        40
35.570        87
35.580        80
35.590        20
35.600        40
35.610        33
35.620        73
35.630        60
35.640        20
35.650        33
35.660       100
35.670        60
35.680        60
35.690        33
35.700        53
35.710        67
35.720        60
35.730        53
35.740        80
35.750        73
35.760        67
35.770        27
35.780        47
35.790        87
35.800        80
35.810        53
35.820        47
35.830        60
35.840       107
35.850        60
35.860       113
35.870        73
35.880       100
35.890        53
35.900        60
35.910        53
35.920        80
35.930        47
35.940       100
35.950        93
35.960        93
35.970        53
35.980        53
35.990        73
36.000        47
36.010        33
36.020        67
36.030        67
36.040        47
36.050        93
36.060        47
36.070        40
36.080        73
36.090        53
36.100        33
36.110        47
36.120        67
36.130        53
36.140        80
36.150        67
36.160        27
36.170        47
36.180        33
36.190        53
36.200        47
36.210        67
36.220        60
36.230        53
36.240        47
36.250        47
36.260        60
36.270        60
36.280        33
36.290        40
36.300        67
36.310        60
36.320        87
36.330        47
36.340        27
36.350        40
36.360        60
36.370        53
36.380        40
36.390        60
36.400        60
36.410        27
36.420        67
36.430        33
36.440        47
36.450        53
36.460        40
36.470        33
36.480        33
36.490        47
36.500        20
36.510        27
36.520        33
36.530        67
36.540        40
36.550        47
36.560        60
36.570         7
36.580        47
36.590        40
36.600        33
36.610        60
36.620        60
36.630        67
36.640        33
36.650        87
36.660        80
36.670        27
36.680        40
36.690        67
36.700        47
36.710        27
36.720        47
36.730        13
36.740        33
36.750        47
36.760        33
36.770        33
36.780        53
36.790        20
36.800        53
36.810        53
36.820        40
36.830        60
36.840        27
36.850        27
36.860        67
36.870        53
36.880        60
36.890        40
36.900        53
36.910        67
36.920        53
36.930        53
36.940        47
36.950        67
36.960        60
36.970        40
36.980        53
36.990        67
37.000        53
37.010        60
37.020        53
37.030        47
37.040        53
37.050        73
37.060        27
37.070        53
37.080        60
37.090        60
37.100        67
37.110        47
37.120        27
37.130        27
37.140        53
37.150        47
37.160        27
37.170        27
37.180        53
37.190        13
37.200        40
37.210        40
37.220        73
37.230        47
37.240        33
37.250        40
37.260        73
37.270        47
37.280        27
37.290        67
37.300        33
37.310        67
37.320        33
37.330        53
37.340        53
37.350         7
37.360        53
37.370        53
37.380        67
37.390        53
37.400        47
37.410        40
37.420        27
37.430        60
37.440        40
37.450        47
37.460        40
37.470        13
37.480        53
37.490        47
37.500        33
37.510        60
37.520        47
37.530        40
37.540        33
37.550        33
37.560        53
37.570        20
37.580        40
37.590        33
37.600        67
37.610        73
37.620        20
37.630        80
37.640        13
37.650        53
37.660        33
37.670        40
37.680        27
37.690        33
37.700        33
37.710        67
37.720        40
37.730        33
37.740        53
37.750        33
37.760        47
37.770        13
37.780        33
37.790        53
37.800        40
37.810        20
37.820        47
37.830        33
37.840        53
37.850        47
37.860        47
37.870        27
37.880        40
37.890        33
37.900        20
37.910        40
37.920        40
37.930        33
37.940        47
37.950        47
37.960        47
37.970        33
37.980        13
37.990        13
38.000        33
38.010        40
38.020        60
38.030        53
38.040        27
38.050        33
38.060        40
38.070        40
38.080        33
38.090        27
38.100        40
38.110        60
38.120        20
38.130        20
38.140        53
38.150        27
38.160        53
38.170        47
38.180        33
38.190        60
38.200        60
38.210        40
38.220        53
38.230        27
38.240        20
38.250        47
38.260        73
38.270        20
38.280        33
38.290        33
38.300        53
38.310        60
38.320        53
38.330        53
38.340        40
38.350        53
38.360        47
38.370        40
38.380        47
38.390        27
38.400        33
38.410        67
38.420        53
38.430        53
38.440        60
38.450        60
38.460        47
38.470        53
38.480        67
38.490        73
38.500        47
38.510        33
38.520        33
38.530        20
38.540        47
38.550        67
38.560        33
38.570        40
38.580        67
38.590        60
38.600        53
38.610        53
38.620        60
38.630        60
38.640        60
38.650        60
38.660        47
38.670        60
38.680        60
38.690        47
38.700        47
38.710        87
38.720        47
38.730        40
38.740       100
38.750        40
38.760        40
38.770       100
38.780        47
38.790        80
38.800        47
38.810        40
38.820        33
38.830        60
38.840        60
38.850        40
38.860        53
38.870        53
38.880        67
38.890        40
38.900        33
38.910        73
38.920        27
38.930        73
38.940        47
38.950        87
38.960        73
38.970        47
38.980        33
38.990        60
39.000        53
39.010        47
39.020        60
39.030        47
39.040        93
39.050        40
39.060        33
39.070        60
39.080        40
39.090        60
39.100        87
39.110        47
39.120        67
39.130        67
39.140        47
39.150        67
39.160        73
39.170        33
39.180        67
39.190        60
39.200        53
39.210        47
39.220        53
39.230        60
39.240        53
39.250       100
39.260        40
39.270        73
39.280        53
39.290        93
39.300        60
39.310        73
39.320        73
39.330        47
39.340        20
39.350        67
39.360        67
39.370        80
39.380        73
39.390       107
39.400       153
39.410        80
39.420       100
39.430       127
39.440       127
39.450       153
39.460       207
39.470       167
39.480       247
39.490       187
39.500       167
39.510       207
39.520       220
39.530       240
39.540       233
39.550       320
39.560       393
39.570       380
39.580       426
39.590       400
39.600       633
39.610       526
39.620       726
39.630       800
39.640       840
39.650       920
39.660       973
39.670       960
39.680      1493
39.690      1473
39.700      1733
39.710      1893
39.720      2199
39.730      2466
39.740      2652
39.750      2872
39.760      2859
39.770      3179
39.780      3152
39.790      3252
39.800      3065
39.810      2959
39.820      2886
39.830      2532
39.840      2392
39.850      2539
39.860      2159
39.870      2346
39.880      1966
39.890      1779
39.900      1799
39.910      1553
39.920      1373
39.930      1173
39.940      1193
39.950      1060
39.960       720
39.970       680
39.980       646
39.990       493
40.000       446
40.010       480
40.020       320
40.030       367
40.040       300
40.050       267
40.060       173
40.070       187
40.080       193
40.090       233
40.100       120
40.110       167
40.120       153
40.130       127
40.140       160
40.150       113
40.160       153
40.170       120
40.180        93
40.190       107
40.200        73
40.210       113
40.220       107
40.230        60
40.240        87
40.250        93
40.260        87
40.270        73
40.280        67
40.290        73
40.300        73
40.310        60
40.320        80
40.330        67
40.340        47
40.350       100
40.360        40
40.370        80
40.380        47
40.390       133
40.400        47
40.410        80
40.420        60
40.430       107
40.440        47
40.450        33
40.460       100
40.470        80
40.480       100
40.490        40
40.500        87
40.510        73
40.520        73
40.530        40
40.540        80
40.550        47
40.560        60
40.570        60
40.580        60
40.590        53
40.600        40
40.610        80
40.620       113
40.630        20
40.640        73
40.650        80
40.660        53
40.670        47
40.680        40
40.690        80
40.700        40
40.710        47
40.720        93
40.730        53
40.740        53
40.750        80
40.760        33
40.770        67
40.780        53
40.790        80
40.800        93
40.810        60
40.820        60
40.830        27
40.840        87
40.850        53
40.860        73
40.870        93
40.880        67
40.890        80
40.900        40
40.910        33
40.920        40
40.930        47
40.940        33
40.950        47
40.960        27
40.970         0
40.980        53
40.990        33
41.000        53
41.010        53
41.020        60
41.030        60
41.040        40
41.050        47
41.060        47
41.070        60
41.080        53
41.090        47
41.100        53
41.110        47
41.120        47
41.130        27
41.140        47
41.150        73
41.160        53
41.170        20
41.180        60
41.190        47
41.200        40
41.210        33
41.220        33
41.230        40
41.240        27
41.250        40
41.260        47
41.270        27
41.280        40
41.290        13
41.300        40
41.310        47
41.320        47
41.330        60
41.340        20
41.350        40
41.360        47
41.370        53
41.380        47
41.390        20
41.400        73
41.410        33
41.420        33
41.430        40
41.440        40
41.450        27
41.460        33
41.470        20
41.480        53
41.490        53
41.500        40
41.510        27
41.520        40
41.530        53
41.540        40
41.550        40
41.560        53
41.570        33
41.580        53
41.590        67
41.600        60
41.610        20
41.620        27
41.630        33
41.640        40
41.650        93
41.660        33
41.670        33
41.680        20
41.690        40
41.700        33
41.710        27
41.720        47
41.730        67
41.740        13
41.750        53
41.760        53
41.770        27
41.780        47
41.790         7
41.800        27
41.810        20
41.820        13
41.830        33
41.840        47
41.850        40
41.860        40
41.870        60
41.880        27
41.890        20
41.900        47
41.910        53
41.920        40
41.930        13
41.940        47
41.950        33
41.960        33
41.970        33
41.980        33
41.990        20
42.000        53
42.010        33
42.020        27
42.030        33
42.040        60
42.050        27
42.060        47
42.070        47
42.080        33
42.090        20
42.100        47
42.110        33
42.120        33
42.130        27
42.140        27
42.150        47
42.160        27
42.170        27
42.180        20
42.190        13
42.200        27
42.210        47
42.220        40
42.230        33
42.240        20
42.250        33
42.260        20
42.270        20
42.280        13
42.290        47
42.300        40
42.310        40
42.320        33
42.330        20
42.340        27
42.350        20
42.360        33
42.370        13
42.380        13
42.390        20
42.400         7
42.410        20
42.420        20
42.430        33
42.440        47
42.450        13
42.460        53
42.470        13
42.480        33
42.490        47
42.500        27
42.510        33
42.520        27
42.530        13
42.540        47
42.550        33
42.560        60
42.570        27
42.580        40
42.590        33
42.600        13
42.610        33
42.620        33
42.630        20
42.640        40
42.650        20
42.660        40
42.670        20
42.680        20
42.690        33
42.700        40
42.710        20
42.720         7
42.730        20
42.740         7
42.750        33
42.760        53
42.770        13
42.780        53
42.790        53
42.800        20
42.810         7
42.820        33
42.830        27
42.840        33
42.850        20
42.860        13
42.870        13
42.880        73
42.890        27
42.900        40
42.910        20
42.920        13
42.930        20
42.940        20
42.950        13
42.960        40
42.970        20
42.980        33
42.990        40
43.000        20
43.010         7
43.020        40
43.030        33
43.040        13
43.050        20
43.060        53
43.070        27
43.080        20
43.090        20
43.100        40
43.110        33
43.120        47
43.130        27
43.140        27
43.150        20
43.160        20
43.170         0
43.180         7
43.190        13
43.200        13
43.210        27
43.220        20
43.230        53
43.240        20
43.250        47
43.260        33
43.270        27
43.280        40
43.290        33
43.300        33
43.310        20
43.320        47
43.330        47
43.340        20
43.350        47
43.360        67
43.370        20
43.380         7
43.390        13
43.400        13
43.410        40
43.420        67
43.430        40
43.440        40
43.450        27
43.460        27
43.470        47
43.480        47
43.490        20
43.500        27
43.510        27
43.520        40
43.530        27
43.540        40
43.550        20
43.560        33
43.570        27
43.580        20
43.590        27
43.600        60
43.610        27
43.620        13
43.630        33
43.640        33
43.650        33
43.660        13
43.670        13
43.680        33
43.690        60
43.700        33
43.710        47
43.720        33
43.730        20
43.740        20
43.750        33
43.760        40
43.770        47
43.780        20
43.790        40
43.800        20
43.810        13
43.820        67
43.830        33
43.840        40
43.850        27
43.860        33
43.870        33
43.880        33
43.890        33
43.900         7
43.910        27
43.920        40
43.930        33
43.940        27
43.950        13
43.960        47
43.970        27
43.980        20
43.990        33
44.000        20
44.010        20
44.020         7
44.030        67
44.040        33
44.050        33
44.060        27
44.070        20
44.080        13
44.090        27
44.100        40
44.110        20
44.120        40
44.130        27
44.140        27
44.150        13
44.160        27
44.170        80
44.180         7
44.190        13
44.200        47
44.210        53
44.220        20
44.230        20
44.240        20
44.250        33
44.260        33
44.270        13
44.280        40
44.290        20
44.300        40
44.310        13
44.320        13
44.330        27
44.340        20
44.350        40
44.360        13
44.370        20
44.380        27
44.390        20
44.400        13
44.410        13
44.420        27
44.430        27
44.440        33
44.450        27
44.460         7
44.470        33
44.480        47
44.490         7
44.500        60
44.510        33
44.520        40
44.530         7
44.540         7
44.550        40
44.560        27
44.570        20
44.580        13
44.590        33
44.600        33
44.610        40
44.620        47
44.630         7
44.640        20
44.650        20
44.660        33
44.670        27
44.680        20
44.690        33
44.700        40
44.710        13
44.720        27
44.730         0
44.740        40
44.750         0
44.760        20
44.770        47
44.780        40
44.790        13
44.800        67
44.810        13
44.820         7
44.830         0
44.840        20
44.850        20
44.860        13
44.870        33
44.880        47
44.890        40
44.900        33
44.910        13
44.920        33
44.930        40
44.940        27
44.950        27
44.960        27
44.970        33
44.980        13
44.990        33
45.000        20
45.010        20
45.020        20
45.030        73
45.040         7
45.050        40
45.060        20
45.070        40
45.080        20
45.090        47
45.100        67
45.110        20
45.120        27
45.130        27
45.140        33
45.150        33
45.160        27
45.170        33
45.180        20
45.190        60
45.200         7
45.210        13
45.220        27
45.230        20
45.240        33
45.250         7
45.260        27
45.270         7
45.280        20
45.290         7
45.300        33
45.310        40
45.320        27
45.330        20
45.340        60
45.350         7
45.360        27
45.370        60
45.380        47
45.390        13
45.400        40
45.410        40
45.420        47
45.430        40
45.440        40
45.450        40
45.460        20
45.470        40
45.480        20
45.490         7
45.500        40
45.510        13
45.520        47
45.530        20
45.540        20
45.550        20
45.560        40
45.570        27
45.580        33
45.590        13
45.600        13
45.610         0
45.620        27
45.630        20
45.640        13
45.650        20
45.660        20
45.670        20
45.680        13
45.690        33
45.700        33
45.710        27
45.720        20
45.730        40
45.740        40
45.750        33
45.760        20
45.770        47
45.780        67
45.790        20
45.800        27
45.810        33
45.820        53
45.830        13
45.840        27
45.850        60
45.860        27
45.870        40
45.880        20
45.890        53
45.900        27
45.910        47
45.920        47
45.930        47
45.940        47
45.950        53
45.960        47
45.970        53
45.980        40
45.990        40
46.000        40
46.010        67
46.020        27
46.030        60
46.040        33
46.050        33
46.060        80
46.070        80
46.080        60
46.090        80
46.100        80
46.110        87
46.120        80
46.130        93
46.140        80
46.150       140
46.160       107
46.170        73
46.180        80
46.190       133
46.200       147
46.210        87
46.220       140
46.230       113
46.240       160
46.250       147
46.260       113
46.270       113
46.280       107
46.290       100
46.300       133
46.310       107
46.320        80
46.330       140
46.340        73
46.350        93
46.360       113
46.370        67
46.380       100
46.390        73
46.400        80
46.410       113
46.420        73
46.430        40
46.440        47
46.450        67
46.460        87
46.470        33
46.480        40
46.490        60
46.500        47
46.510        53
46.520        40
46.530        33
46.540        53
46.550        27
46.560        13
46.570        33
46.580        47
46.590        40
46.600        60
46.610        20
46.620        33
46.630        20
46.640        80
46.650        53
46.660        27
46.670        67
46.680        40
46.690        33
46.700        40
46.710         7
46.720        13
46.730        27
46.740        33
46.750        33
46.760        40
46.770        53
46.780        53
46.790        87
46.800        47
46.810        33
46.820        20
46.830        53
46.840        47
46.850        53
46.860        33
46.870        20
46.880        27
46.890        40
46.900        27
46.910        47
46.920        60
46.930        33
46.940        53
46.950        27
46.960        33
46.970        73
46.980        73
46.990        73
47.000        73
47.010        73
47.020        80
47.030        53
47.040        80
47.050        60
47.060        47
47.070        80
47.080        73
47.090        60
47.100        67
47.110       107
47.120       127
47.130       160
47.140       267
47.150       380
47.160       533
47.170       753
47.180       740
47.190       873
47.200       753
47.210       686
47.220       680
47.230       500
47.240       380
47.250       287
47.260       180
47.270       213
47.280       140
47.290        73
47.300        93
47.310        67
47.320        53
47.330        67
47.340        33
47.350        33
47.360        67
47.370        27
47.380        67
47.390        47
47.400        60
47.410        53
47.420        47
47.430        20
47.440        40
47.450        53
47.460        47
47.470        40
47.480        20
47.490        47
47.500        47
47.510        40
47.520        60
47.530        27
47.540        40
47.550        40
47.560         0
47.570        47
47.580        20
47.590        47
47.600        40
47.610         7
47.620        20
47.630        53
47.640        67
47.650        40
47.660        27
47.670        27
47.680        47
47.690        33
47.700        20
47.710        33
47.720        20
47.730        40
47.740        33
47.750        33
47.760        27
47.770        53
47.780        60
47.790        20
47.800        60
47.810        27
47.820        27
47.830        33
47.840        27
47.850        20
47.860        47
47.870        60
47.880        47
47.890        47
47.900        13
47.910        27
47.920        27
47.930        27
47.940        20
47.950        27
47.960        20
47.970        20
47.980        13
47.990        20
48.000        47
48.010        40
48.020        27
48.030        47
48.040        40
48.050        13
48.060        47
48.070        13
48.080        40
48.090        13
48.100        33
48.110        27
48.120        27
48.130        20
48.140        33
48.150        33
48.160        47
48.170        33
48.180        40
48.190        13
48.200        33
48.210        27
48.220        47
48.230        27
48.240        40
48.250        40
48.260        33
48.270        27
48.280        13
48.290        40
48.300        13
48.310        33
48.320        33
48.330        20
48.340        13
48.350        27
48.360        13
48.370        53
48.380        60
48.390         7
48.400        47
48.410        33
48.420        27
48.430        13
48.440        20
48.450        47
48.460        33
48.470        33
48.480        27
48.490         7
48.500        40
48.510         7
48.520        47
48.530        20
48.540        47
48.550        40
48.560         7
48.570        20
48.580        40
48.590        13
48.600        20
48.610        53
48.620        27
48.630        27
48.640        27
48.650        27
48.660        20
48.670        20
48.680        20
48.690        13
48.700        60
48.710         7
48.720        33
48.730        33
48.740        27
48.750        47
48.760         7
48.770        47
48.780        53
48.790        20
48.800        20
48.810         0
48.820        20
48.830        13
48.840         7
48.850        20
48.860         7
48.870        47
48.880        40
48.890        33
48.900        27
48.910        27
48.920        33
48.930        20
48.940        40
48.950        20
48.960        33
48.970        27
48.980         7
48.990        13
49.000        13
49.010        40
49.020        27
49.030        27
49.040        60
49.050        13
49.060        13
49.070        20
49.080        27
49.090        27
49.100        20
49.110        33
49.120        13
49.130        33
49.140        20
49.150        13
49.160        20
49.170        73
49.180        13
49.190        60
49.200         0
49.210        27
49.220        33
49.230        27
49.240        20
49.250        40
49.260        27
49.270        27
49.280        53
49.290        33
49.300        47
49.310        13
49.320        20
49.330        27
49.340        33
49.350        40
49.360        27
49.370        27
49.380        20
49.390        40
49.400        13
49.410        27
49.420        33
49.430        33
49.440        27
49.450        40
49.460        47
49.470        33
49.480        13
49.490        40
49.500        20
49.510        13
49.520        53
49.530        13
49.540         7
49.550        33
49.560        20
49.570        40
49.580        20
49.590        20
49.600        40
49.610        27
49.620        47
49.630        20
49.640        27
49.650        53
49.660        27
49.670        27
49.680        27
49.690        27
49.700         7
49.710        40
49.720        27
49.730        20
49.740         7
49.750        13
49.760        13
49.770        33
49.780         7
49.790        27
49.800        20
49.810        13
49.820        40
49.830        33
49.840        20
49.850         7
49.860        47
49.870        33
49.880        60
49.890        40
49.900        13
49.910        53
49.920        20
49.930        20
49.940        20
49.950        13
49.960        27
49.970        20
49.980        27
49.990        27
50.000        20
50.010        33
50.020        33
50.030        33
50.040        27
50.050        13
50.060        33
50.070        53
50.080         0
50.090         0
50.100        20
50.110        20
50.120        13
50.130        27
50.140        27
50.150        20
50.160        40
50.170        33
50.180        40
50.190        27
50.200        27
50.210        33
50.220        27
50.230        13
50.240        13
50.250         0
50.260        20
50.270        47
50.280        47
50.290        13
50.300        20
50.310        13
50.320         7
50.330        33
50.340        40
50.350        13
50.360        20
50.370        33
50.380        33
50.390        20
50.400        20
50.410        27
50.420        27
50.430        33
50.440        33
50.450         7
50.460        27
50.470        47
50.480        53
50.490        27
50.500        20
50.510        20
50.520        53
50.530        27
50.540        13
50.550        47
50.560        47
50.570        33
50.580        47
50.590        47
50.600        60
50.610        60
50.620        47
50.630        60
50.640        60
50.650       127
50.660       120
50.670       147
50.680       133
50.690       187
50.700       180
50.710       193
50.720       213
50.730       227
50.740       213
50.750       260
50.760       253
50.770       167
50.780       167
50.790       240
50.800       153
50.810       120
50.820       180
50.830       200
50.840       207
50.850       193
50.860       207
50.870       153
50.880       273
50.890       253
50.900       220
50.910       167
50.920       247
50.930       240
50.940       193
50.950       153
50.960       193
50.970       140
50.980       133
50.990       180
51.000       220
51.010       167
51.020       200
51.030       227
51.040       267
51.050       147
51.060       207
51.070       167
51.080       167
51.090       180
51.100       153
51.110       280
51.120       247
51.130       213
51.140       167
51.150       187
51.160       193
51.170       140
51.180       193
51.190       180
51.200       180
51.210       160
51.220       173
51.230       147
51.240       207
51.250       193
51.260       167
51.270       227
51.280       133
51.290       153
51.300       173
51.310       160
51.320       160
51.330       233
51.340       273
51.350       207
51.360       267
51.370       320
51.380       240
51.390       260
51.400       180
51.410       193
51.420       193
51.430       273
51.440       173
51.450       207
51.460       213
51.470       180
51.480       233
51.490       220
51.500       260
51.510       147
51.520       220
51.530       240
51.540       180
51.550       227
51.560       300
51.570       173
51.580       180
51.590       247
51.600       233
51.610       267
51.620       160
51.630       180
51.640       173
51.650       187
51.660       213
51.670       267
51.680       280
51.690       160
51.700       207
51.710       260
51.720       207
51.730       253
51.740       240
51.750       300
51.760       247
51.770       247
51.780       233
51.790       240
51.800       213
51.810       180
51.820       340
51.830       300
51.840       253
51.850       207
51.860       213
51.870       273
51.880       267
51.890       253
51.900       247
51.910       260
51.920       287
51.930       220
51.940       207
51.950       307
51.960       220
51.970       320
51.980       347
51.990       320
52.000       260
52.010       207
52.020       353
52.030       320
52.040       287
52.050       347
52.060       307
52.070       367
52.080       373
52.090       367
52.100       327
52.110       360
52.120       327
52.130       373
52.140       526
52.150       440
52.160       380
52.170       493
52.180       433
52.190       473
52.200       533
52.210       506
52.220       533
52.230       566
52.240       553
52.250       786
52.260       760
52.270       786
52.280      1166
52.290      1133
52.300      1666
52.310      1826
52.320      2079
52.330      2272
52.340      2699
52.350      3119
52.360      3379
52.370      3712
52.380      3665
52.390      3798
52.400      3852
52.410      4438
52.420      4691
52.430      4678
52.440      4851
52.450      5491
52.460      5524
52.470      5871
52.480      6611
52.490      7237
52.500      8003
52.510     10149
52.520     13235
52.530     20039
52.540     33247
52.550     52013
52.560     71925
52.570     85892
52.580     93982
52.590     98581
52.600     97448
52.610     91757
52.620     74264
52.630     53792
52.640     34633
52.650     22624
52.660     16980
52.670     16667
52.680     21905
52.690     29788
52.700     38411
52.710     45682
52.720     49154
52.730     51446
52.740     51746
52.750     47628
52.760     39771
52.770     27769
52.780     17939
52.790     10942
52.800      6811
52.810      4798
52.820      3592
52.830      2832
52.840      2599
52.850      2033
52.860      1933
52.870      1606
52.880      1586
52.890      1286
52.900      1153
52.910      1040
52.920       780
52.930       860
52.940       820
52.950       820
52.960       693
52.970       766
52.980       566
52.990       640
53.000       720
53.010       513
53.020       486
53.030       640
53.040       540
53.050       420
53.060       426
53.070       580
53.080       413
53.090       453
53.100       466
53.110       407
53.120       480
53.130       426
53.140       420
53.150       460
53.160       420
53.170       387
53.180       407
53.190       486
53.200       273
53.210       233
53.220       287
53.230       367
53.240       307
53.250       307
53.260       340
53.270       293
53.280       267
53.290       227
53.300       267
53.310       407
53.320       327
53.330       333
53.340       333
53.350       313
53.360       220
53.370       320
53.380       313
53.390       293
53.400       333
53.410       240
53.420       193
53.430       200
53.440       213
53.450       207
53.460       267
53.470       153
53.480       280
53.490       273
53.500       247
53.510       293
53.520       273
53.530       173
53.540       267
53.550       193
53.560       267
53.570       227
53.580       233
53.590       213
53.600       200
53.610       200
53.620       253
53.630       213
53.640       240
53.650       220
53.660       200
53.670       260
53.680       227
53.690       187
53.700       227
53.710       273
53.720       213
53.730       113
53.740       280
53.750       247
53.760       233
53.770       207
53.780       200
53.790       180
53.800       227
53.810       133
53.820       200
53.830       240
53.840       133
53.850       193
53.860       193
53.870       193
53.880       240
53.890       160
53.900       220
53.910       167
53.920       193
53.930       127
53.940       153
53.950       120
53.960       153
53.970       213
53.980       180
53.990       207
54.000       187
54.010       173
54.020       213
54.030       127
54.040       200
54.050       173
54.060       207
54.070       167
54.080       187
54.090       167
54.100       193
54.110       173
54.120       127
54.130       140
54.140       160
54.150       173
54.160       173
54.170       133
54.180       133
54.190       167
54.200       160
54.210       187
54.220       127
54.230        87
54.240       140
54.250       147
54.260       200
54.270       133
54.280       167
54.290       127
54.300       207
54.310       133
54.320       180
54.330       127
54.340       120
54.350       133
54.360       160
54.370       113
54.380       107
54.390       140
54.400       173
54.410       100
54.420       173
54.430       200
54.440       153
54.450       153
54.460       113
54.470       140
54.480       153
54.490       147
54.500       107
54.510       173
54.520       173
54.530       173
54.540       207
54.550       140
54.560       160
54.570       147
54.580       127
54.590       173
54.600       113
54.610       167
54.620       127
54.630       120
54.640       100
54.650       120
54.660       140
54.670       193
54.680       127
54.690       107
54.700       127
54.710       127
54.720       193
54.730       100
54.740       140
54.750       153
54.760       120
54.770       107
54.780       140
54.790        93
54.800       113
54.810       200
54.820       160
54.830       107
54.840       167
54.850       173
54.860       147
54.870       127
54.880       140
54.890       140
54.900       133
54.910        93
54.920       113
54.930       107
54.940       100
54.950       147
54.960       107
54.970       120
54.980       147
54.990       127
55.000       147
55.010       133
55.020       127
55.030       113
55.040        87
55.050       127
55.060       147
55.070       140
55.080       100
55.090       113
55.100       133
55.110       127
55.120       160
55.130        80
55.140       167
55.150       127
55.160        87
55.170       120
55.180       113
55.190       100
55.200       120
55.210       127
55.220       120
55.230       153
55.240       153
55.250       113
55.260       113
55.270       140
55.280       153
55.290       120
55.300        80
55.310       107
55.320       133
55.330        87
55.340        87
55.350       120
55.360       120
55.370       120
55.380       107
55.390       127
55.400        80
55.410       100
55.420       167
55.430       107
55.440       140
55.450       113
55.460       120
55.470       113
55.480       113
55.490        93
55.500       133
55.510       147
55.520       113
55.530       147
55.540        67
55.550        93
55.560       160
55.570        73
55.580       107
55.590       107
55.600       107
55.610       100
55.620       100
55.630       133
55.640       140
55.650        93
55.660        80
55.670       113
55.680       173
55.690        87
55.700       120
55.710       147
55.720        53
55.730        80
55.740       133
55.750       113
55.760        73
55.770       133
55.780        73
55.790       160
55.800       147
55.810       140
55.820        87
55.830       140
55.840       107
55.850       100
55.860       127
55.870       100
55.880       107
55.890       107
55.900        67
55.910        67
55.920       107
55.930        80
55.940        93
55.950        93
55.960        73
55.970       113
55.980       127
55.990       107
56.000        80
56.010       113
56.020       100
56.030       120
56.040        53
56.050        73
56.060       107
56.070        60
56.080        87
56.090       100
56.100        80
56.110        87
56.120        93
56.130        93
56.140       133
56.150        67
56.160       140
56.170       113
56.180        60
56.190        73
56.200       140
56.210       120
56.220        80
56.230        60
56.240        93
56.250        93
56.260        93
56.270       100
56.280       113
56.290       107
56.300        53
56.310       187
56.320       100
56.330       133
56.340        53
56.350       100
56.360        80
56.370        73
56.380        33
56.390        67
56.400       127
56.410       107
56.420       227
56.430       140
56.440        53
56.450        87
56.460        60
56.470       113
56.480        93
56.490        73
56.500        60
56.510        67
56.520        73
56.530       140
56.540        67
56.550        80
56.560       167
56.570       140
56.580        87
56.590       100
56.600       100
56.610        73
56.620        80
56.630       113
56.640        93
56.650       120
56.660        80
56.670        87
56.680       107
56.690        60
56.700       127
56.710       147
56.720        80
56.730       107
56.740        73
56.750        93
56.760        80
56.770        73
56.780        73
56.790        73
56.800        87
56.810       100
56.820        47
56.830        80
56.840       147
56.850       147
56.860       113
56.870        67
56.880        73
56.890       100
56.900       107
56.910       100
56.920       133
56.930        60
56.940        60
56.950        73
56.960        67
56.970       113
56.980        87
56.990        73
57.000       100
57.010        67
57.020        80
57.030       120
57.040        67
57.050       107
57.060       120
57.070        87
57.080       113
57.090        60
57.100        93
57.110       107
57.120        73
57.130        67
57.140        73
57.150        80
57.160        87
57.170        73
57.180       107
57.190        73
57.200        60
57.210        73
57.220       113
57.230       113
57.240       153
57.250        60
57.260       120
57.270        33
57.280       100
57.290        73
57.300        93
57.310        53
57.320       100
57.330        73
57.340        93
57.350        60
57.360        73
57.370        67
57.380       100
57.390        87
57.400       107
57.410       120
57.420        60
57.430       107
57.440       140
57.450        53
57.460        87
57.470        80
57.480       100
57.490        47
57.500        60
57.510       107
57.520        53
57.530        40
57.540       100
57.550        80
57.560        87
57.570        40
57.580        73
57.590        67
57.600        93
57.610       100
57.620        93
57.630       107
57.640        60
57.650        67
57.660       120
57.670        47
57.680        87
57.690        60
57.700       113
57.710       100
57.720        93
57.730        93
57.740        87
57.750       127
57.760        67
57.770        73
57.780        87
57.790        47
57.800        67
57.810        40
57.820        53
57.830        80
57.840        60
57.850       107
57.860        87
57.870       120
57.880        93
57.890        67
57.900       107
57.910        53
57.920       167
57.930        87
57.940        73
57.950        93
57.960        80
57.970        87
57.980        73
57.990       107
58.000        87
58.010       100
58.020        73
58.030        73
58.040       107
58.050       100
58.060        53
58.070        73
58.080        80
58.090        53
58.100       113
58.110       107
58.120        53
58.130        73
58.140        67
58.150        60
58.160        93
58.170        40
58.180        80
58.190        67
58.200       107
58.210        60
58.220       107
58.230        73
58.240        73
58.250        67
58.260       100
58.270        80
58.280        67
58.290        80
58.300       113
58.310        80
58.320        73
58.330        33
58.340        73
58.350        93
58.360        80
58.370       120
58.380        93
58.390       133
58.400        67
58.410        47
58.420        73
58.430        67
58.440        73
58.450        47
58.460        53
58.470        60
58.480        73
58.490        60
58.500        53
58.510        60
58.520        53
58.530        67
58.540        80
58.550        67
58.560        60
58.570        67
58.580        73
58.590        80
58.600        93
58.610        33
58.620       113
58.630        40
58.640       107
58.650        73
58.660        87
58.670        53
58.680        93
58.690        33
58.700        67
58.710       113
58.720        67
58.730        73
58.740        67
58.750        80
58.760        73
58.770        87
58.780       100
58.790        53
58.800        60
58.810        60
58.820        27
58.830        87
58.840        80
58.850        87
58.860        93
58.870        67
58.880        47
58.890        93
58.900       100
58.910       113
58.920        47
58.930        80
58.940       120
58.950        33
58.960        47
58.970        80
58.980       100
58.990        60
59.000        87
59.010        73
59.020        27
59.030       127
59.040        80
59.050        87
59.060       107
59.070       107
59.080        93
59.090       100
59.100        87
59.110        87
59.120        93
59.130        80
59.140        93
59.150        47
59.160        80
59.170        60
59.180        60
59.190        67
59.200        47
59.210        87
59.220        60
59.230        67
59.240        33
59.250        53
59.260        73
59.270        73
59.280        53
59.290        73
59.300        53
59.310       100
59.320        53
59.330        53
59.340        80
59.350        80
59.360        87
59.370        73
59.380       120
59.390        93
59.400        93
59.410        67
59.420        67
59.430        93
59.440        93
59.450        73
59.460        93
59.470        40
59.480        60
59.490        27
59.500        87
59.510       107
59.520        60
59.530        73
59.540        73
59.550        47
59.560        47
59.570        73
59.580        40
59.590        87
59.600        53
59.610        60
59.620        47
59.630        27
59.640        73
59.650        53
59.660        60
59.670        40
59.680        80
59.690        47
59.700        73
59.710        80
59.720        60
59.730        73
59.740        87
59.750        67
59.760        87
59.770        33
59.780        47
59.790        33
59.800       120
59.810        60
59.820        67
59.830        60
59.840        53
59.850        33
59.860       107
59.870        33
59.880        67
59.890        40
59.900        67
59.910       100
59.920        73
59.930        47
59.940        80
59.950        73
59.960        60
59.970        73
59.980        33
59.990        27
60.000        27
