20.000        60
20.010        40
20.020        40
20.030        53
20.040        67
20.050        53
20.060       100
20.070        73
20.080        53
20.090        93
20.100        33
20.110        60
20.120        73
20.130        47
20.140        53
20.150        47
20.160        80
20.170        87
20.180        47
20.190        40
20.200        40
20.210        27
20.220        53
20.230        33
20.240        80
20.250        60
20.260        47
20.270        87
20.280        40
20.290        60
20.300        40
20.310        53
20.320        47
20.330        67
20.340        80
20.350        67
20.360        47
20.370        73
20.380        33
20.390        53
20.400        20
20.410        53
20.420        67
20.430        33
20.440        60
20.450        67
20.460        53
20.470        13
20.480        53
20.490        53
20.500        73
20.510        67
20.520        60
20.530        27
20.540        87
20.550        47
20.560        67
20.570        53
20.580        47
20.590        33
20.600        60
20.610        27
20.620        80
20.630        47
20.640        40
20.650        40
20.660        40
20.670        60
20.680        40
20.690        60
20.700        60
20.710        87
20.720        67
20.730        67
20.740        60
20.750        67
20.760        60
20.770        67
20.780        73
20.790        60
20.800        47
20.810        80
20.820        33
20.830        87
20.840        33
20.850        53
20.860        67
20.870        47
20.880        87
20.890        53
20.900        33
20.910        40
20.920        60
20.930        47
20.940        80
20.950        73
20.960        40
20.970        60
20.980        93
20.990        60
21.000        27
21.010        53
21.020        47
21.030        73
21.040        53
21.050        53
21.060        60
21.070        80
21.080        60
21.090        53
21.100        40
21.110        53
21.120        60
21.130        67
21.140        73
21.150        60
21.160        27
21.170        53
21.180        33
21.190        53
21.200        53
21.210        93
21.220        67
21.230        60
21.240        67
21.250        60
21.260        53
21.270        67
21.280        40
21.290        87
21.300        67
21.310        47
21.320        40
21.330        67
21.340        87
21.350        40
21.360        33
21.370        73
21.380       100
21.390        40
21.400        60
21.410        53
21.420        60
21.430        47
21.440        60
21.450        60
21.460        33
21.470        40
21.480        87
21.490        53
21.500        53
21.510        40
21.520        80
21.530        60
21.540        53
21.550        67
21.560        87
21.570        40
21.580        33
21.590        73
21.600        60
21.610        60
21.620        27
21.630        33
21.640        80
21.650        67
21.660        53
21.670        73
21.680        33
21.690        47
21.700        53
21.710        67
21.720        47
21.730        47
21.740        80
21.750        73
21.760        60
21.770        40
21.780        53
21.790        87
21.800        80
21.810        33
21.820        67
21.830        20
21.840       107
21.850        13
21.860        80
21.870        27
21.880        47
21.890        47
21.900        27
21.910        73
21.920       120
21.930        60
21.940        67
21.950        67
21.960        80
21.970        80
21.980        60
21.990        40
22.000        53
22.010        87
22.020        47
22.030        27
22.040        47
22.050        40
22.060        60
22.070        67
22.080        73
22.090        67
22.100        47
22.110        93
22.120        60
22.130        33
22.140        60
22.150        67
22.160        53
22.170        27
22.180        67
22.190        47
22.200        33
22.210        60
22.220        27
22.230        67
22.240        40
22.250        27
22.260        73
22.270        33
22.280        80
22.290        80
22.300        67
22.310        40
22.320        53
22.330        40
22.340        80
22.350        60
22.360        47
22.370        80
22.380        33
22.390        80
22.400        73
22.410        73
22.420        47
22.430        93
22.440        67
22.450        73
22.460        87
22.470        73
22.480        40
22.490        87
22.500       107
22.510        73
22.520        47
22.530        53
22.540        67
22.550        67
22.560        40
22.570        60
22.580        60
22.590        40
22.600        60
22.610        73
22.620        80
22.630       100
22.640        53
22.650        87
22.660        73
22.670        67
22.680        73
22.690        87
22.700        80
22.710        67
22.720        67
22.730        60
22.740       147
22.750        93
22.760        67
22.770        47
22.780        40
22.790       107
22.800        80
22.810       100
22.820       120
22.830        80
22.840        93
22.850        93
22.860       100
22.870       140
22.880        73
22.890       120
22.900        67
22.910        93
22.920       107
22.930        60
22.940        53
22.950        93
22.960       133
22.970        87
22.980        60
22.990        47
23.000        33
23.010        87
23.020       120
23.030       127
23.040        60
23.050        67
23.060        87
23.070        40
23.080        53
23.090        53
23.100        80
23.110        53
23.120        60
23.130        73
23.140        40
23.150        60
23.160         7
23.170        53
23.180        33
23.190        60
23.200        73
23.210        27
23.220        73
23.230        73
23.240        53
23.250        80
23.260        60
23.270        40
23.280        53
23.290        67
23.300        47
23.310        53
23.320        33
23.330        27
23.340        87
23.350        33
23.360        40
23.370        67
23.380        47
23.390        47
23.400        73
23.410        40
23.420        53
23.430        40
23.440        33
23.450        47
23.460        60
23.470        60
23.480        33
23.490        33
23.500        33
23.510        33
23.520        33
23.530        67
23.540        47
23.550        60
23.560        73
23.570        60
23.580        13
23.590        47
23.600        20
23.610       100
23.620        40
23.630        20
23.640        73
23.650        80
23.660        60
23.670        53
23.680        80
23.690        67
23.700        47
23.710        47
23.720        47
23.730        33
23.740        40
23.750        47
23.760        47
23.770        53
23.780        27
23.790        53
23.800        33
23.810        47
23.820        33
23.830        40
23.840        67
23.850        67
23.860        67
23.870        47
23.880        33
23.890        13
23.900        40
23.910        93
23.920        47
23.930        40
23.940        33
23.950        40
23.960        40
23.970        47
23.980        73
23.990        47
24.000        13
24.010        53
24.020        53
24.030        40
24.040        33
24.050        47
24.060        47
24.070        47
24.080        53
24.090        80
24.100        47
24.110        60
24.120        67
24.130        73
24.140        20
24.150        67
24.160        60
24.170        87
24.180        53
24.190        60
24.200        73
24.210        87
24.220        67
24.230        47
24.240        60
24.250        33
24.260        67
24.270       107
24.280        53
24.290        67
24.300        80
24.310        33
24.320        40
24.330        40
24.340        20
24.350        40
24.360        53
24.370        53
24.380        33
24.390        40
24.400        60
24.410        40
24.420        20
24.430        40
24.440        60
24.450        60
24.460       100
24.470        73
24.480        13
24.490        60
24.500       127
24.510        27
24.520        47
24.530        47
24.540        73
24.550        47
24.560        87
24.570         7
24.580        40
24.590        33
24.600        33
24.610        47
24.620        53
24.630        27
24.640        60
24.650        53
24.660        80
24.670        53
24.680        73
24.690        20
24.700        47
24.710        67
24.720        60
24.730        53
24.740        53
24.750        73
24.760        40
24.770        73
24.780        60
24.790        27
24.800        27
24.810        27
24.820        93
24.830        40
24.840        73
24.850        53
24.860        67
24.870        40
24.880        40
24.890        53
24.900        40
24.910        53
24.920        73
24.930        53
24.940       107
24.950        33
24.960        40
24.970        67
24.980        27
24.990        67
25.000        27
25.010        47
25.020        47
25.030        40
25.040        53
25.050        47
25.060        33
25.070        47
25.080        20
25.090        27
25.100        40
25.110        40
25.120        67
25.130        60
25.140        73
25.150        47
25.160        60
25.170        60
25.180        60
25.190        40
25.200        93
25.210        47
25.220        60
25.230        40
25.240        80
25.250        40
25.260        53
25.270        27
25.280        47
25.290        33
25.300        40
25.310        40
25.320        67
25.330        33
25.340        60
25.350        33
25.360        33
25.370        60
25.380        73
25.390        27
25.400        53
25.410        73
25.420        87
25.430        33
25.440        40
25.450        40
25.460        47
25.470        20
25.480        87
25.490        67
25.500        47
25.510        27
25.520        40
25.530        47
25.540        60
25.550        27
25.560        40
25.570        60
25.580        60
25.590       100
25.600        67
25.610        60
25.620        40
25.630        93
25.640        47
25.650        60
25.660        60
25.670        40
25.680        40
25.690        53
25.700        33
25.710        60
25.720        53
25.730        33
25.740        20
25.750        47
25.760        33
25.770        13
25.780        47
25.790        73
25.800        53
25.810        53
25.820        47
25.830        73
25.840        20
25.850        40
25.860        67
25.870        40
25.880        27
25.890        40
25.900        53
25.910        53
25.920        33
25.930        40
25.940        73
25.950        20
25.960        53
25.970        40
25.980        33
25.990        33
26.000        67
26.010        53
26.020        27
26.030        47
26.040        87
26.050        33
26.060        47
26.070        47
26.080        47
26.090        73
26.100        33
26.110        40
26.120        27
26.130        60
26.140        47
26.150        73
26.160        53
26.170        80
26.180        80
26.190        40
26.200        47
26.210        60
26.220        53
26.230        53
26.240        47
26.250        33
26.260        87
26.270        47
26.280        53
26.290        47
26.300        53
26.310        33
26.320        33
26.330        47
26.340        47
26.350        67
26.360        53
26.370        53
26.380        47
26.390        73
26.400       100
26.410        40
26.420        27
26.430        33
26.440        47
26.450        60
26.460        67
26.470        40
26.480        27
26.490        60
26.500        40
26.510        60
26.520        53
26.530        53
26.540        33
26.550        73
26.560        40
26.570        53
26.580        53
26.590        53
26.600        80
26.610        53
26.620        33
26.630        67
26.640        27
26.650        47
26.660        53
26.670        40
26.680        47
26.690        73
26.700        47
26.710        67
26.720        33
26.730        53
26.740        60
26.750        67
26.760        33
26.770        40
26.780        33
26.790        87
26.800        47
26.810        40
26.820        73
26.830        20
26.840        20
26.850        67
26.860        47
26.870        67
26.880        60
26.890        53
26.900        27
26.910        60
26.920        33
26.930       100
26.940        53
26.950        27
26.960        33
26.970        40
26.980        67
26.990        27
27.000        40
27.010        47
27.020        33
27.030        47
27.040        33
27.050        47
27.060        60
27.070        47
27.080        60
27.090        73
27.100        20
27.110        53
27.120        20
27.130        40
27.140        20
27.150        67
27.160        53
27.170        20
27.180        40
27.190        53
27.200        27
27.210        40
27.220       107
27.230        47
27.240        27
27.250        60
27.260        40
27.270        40
27.280        60
27.290        27
27.300        33
27.310        80
27.320        47
27.330        33
27.340        33
27.350        80
27.360        47
27.370        67
27.380        33
27.390        33
27.400        53
27.410        80
27.420        40
27.430        73
27.440        67
27.450        20
27.460        67
27.470        27
27.480        73
27.490        40
27.500        80
27.510        40
27.520        60
27.530        27
27.540        53
27.550        27
27.560        67
27.570        53
27.580        47
27.590        33
27.600        67
27.610        53
27.620        20
27.630        67
27.640        27
27.650        53
27.660        33
27.670        47
27.680        40
27.690        53
27.700        47
27.710        20
27.720        40
27.730        80
27.740        53
27.750        33
27.760        67
27.770        53
27.780        40
27.790        40
27.800        40
27.810        40
27.820        40
27.830        33
27.840        40
27.850        53
27.860        47
27.870        33
27.880        53
27.890        47
27.900        27
27.910        40
27.920        47
27.930        80
27.940        60
27.950        27
27.960        53
27.970        60
27.980        53
27.990        73
28.000        47
28.010        40
28.020        27
28.030        60
28.040        67
28.050        93
28.060        47
28.070        40
28.080        47
28.090        20
28.100        27
28.110        20
28.120        60
28.130        13
28.140        13
28.150        67
28.160        67
28.170        47
28.180        47
28.190        40
28.200        40
28.210        33
28.220        53
28.230        67
28.240        20
28.250        40
28.260        47
28.270        20
28.280        60
28.290        60
28.300        60
28.310        40
28.320        40
28.330        47
28.340        13
28.350        80
28.360        53
28.370        20
28.380        47
28.390        73
28.400        40
28.410        87
28.420        40
28.430        80
28.440        53
28.450        53
28.460        27
28.470        53
28.480        27
28.490        40
28.500        20
28.510        47
28.520        47
28.530        40
28.540        53
28.550        27
28.560        40
28.570        60
28.580        47
28.590        40
28.600        60
28.610        73
28.620        73
28.630        40
28.640        40
28.650        27
28.660        73
28.670        73
28.680        40
28.690        80
28.700        53
28.710        13
28.720        20
28.730        40
28.740        73
28.750        47
28.760        47
28.770        20
28.780        67
28.790        47
28.800        67
28.810        53
28.820        27
28.830        33
28.840        60
28.850        33
28.860        60
28.870        67
28.880        40
28.890        60
28.900        47
28.910        33
28.920        47
28.930        47
28.940        53
28.950        20
28.960        47
28.970        33
28.980        47
28.990        80
29.000        47
29.010        40
29.020        47
29.030        53
29.040        47
29.050        67
29.060        60
29.070        67
29.080        40
29.090        67
29.100        40
29.110        40
29.120        60
29.130        40
29.140        53
29.150        13
29.160        53
29.170        87
29.180        73
29.190        47
29.200        67
29.210        53
29.220        87
29.230        67
29.240        40
29.250        73
29.260        20
29.270        87
29.280        60
29.290        53
29.300        67
29.310        27
29.320        73
29.330        80
29.340        80
29.350        40
29.360        47
29.370        47
29.380        60
29.390        47
29.400        60
29.410        47
29.420        47
29.430        40
29.440        60
29.450        93
29.460        13
29.470        33
29.480        53
29.490        33
29.500        53
29.510        20
29.520        27
29.530        40
29.540        53
29.550        40
29.560        20
29.570        47
29.580        47
29.590        27
29.600        87
29.610        40
29.620        67
29.630        67
29.640        67
29.650        13
29.660        40
29.670        13
29.680        80
29.690        60
29.700        40
29.710        60
29.720        60
29.730        40
29.740        40
29.750        47
29.760        27
29.770        60
29.780        47
29.790        53
29.800        40
29.810        67
29.820        80
29.830        60
29.840        33
29.850        53
29.860        33
29.870        40
29.880        73
29.890        60
29.900        73
29.910        60
29.920        47
29.930        60
29.940        53
29.950        60
29.960        47
29.970        33
29.980        40
29.990        60
30.000        40
30.010        47
30.020        47
30.030        47
30.040        73
30.050        20
30.060        73
30.070        87
30.080        20
30.090        53
30.100        60
30.110        47
30.120        40
30.130        53
30.140        33
30.150        47
30.160        53
30.170        60
30.180        47
30.190        40
30.200        60
30.210        67
30.220        47
30.230        53
30.240        27
30.250        27
30.260        53
30.270        73
30.280        27
30.290        40
30.300        47
30.310        27
30.320        73
30.330        33
30.340        40
30.350        33
30.360        73
30.370        33
30.380        27
30.390        60
30.400        53
30.410        47
30.420        80
30.430        33
30.440        33
30.450        60
30.460        67
30.470        27
30.480        87
30.490        40
30.500        47
30.510        33
30.520        73
30.530        33
30.540        40
30.550        33
30.560        53
30.570        27
30.580        47
30.590        33
30.600        33
30.610        40
30.620        40
30.630        33
30.640        53
30.650        33
30.660        80
30.670        33
30.680        33
30.690        60
30.700        33
30.710        60
30.720        67
30.730        40
30.740        27
30.750        73
30.760        53
30.770        27
30.780        53
30.790        47
30.800        40
30.810        67
30.820        33
30.830        67
30.840        27
30.850        33
30.860        40
30.870        60
30.880        33
30.890        53
30.900        87
30.910        33
30.920        60
30.930        53
30.940        33
30.950        73
30.960        27
30.970        67
30.980        53
30.990        53
31.000        53
31.010        27
31.020        40
31.030        20
31.040        53
31.050        60
31.060        33
31.070        27
31.080        53
31.090        60
31.100        47
31.110        47
31.120        93
31.130        40
31.140        47
31.150        33
31.160        93
31.170        33
31.180        47
31.190        60
31.200        53
31.210        53
31.220        20
31.230        40
31.240        80
31.250        33
31.260        47
31.270       100
31.280        40
31.290        67
31.300        47
31.310        53
31.320        60
31.330        60
31.340        53
31.350        40
31.360        67
31.370        67
31.380        73
31.390        53
31.400        40
31.410        93
31.420        60
31.430        47
31.440        27
31.450        73
31.460        80
31.470        20
31.480        60
31.490        80
31.500        40
31.510        87
31.520        47
31.530        67
31.540        67
31.550        20
31.560       100
31.570        53
31.580        47
31.590        27
31.600        87
31.610        87
31.620        80
31.630        67
31.640        33
31.650        73
31.660        33
31.670        67
31.680        73
31.690        60
31.700        53
31.710        87
31.720        73
31.730        47
31.740        53
31.750        67
31.760        27
31.770        67
31.780       127
31.790        53
31.800        47
31.810        60
31.820        67
31.830        53
31.840       100
31.850       113
31.860        27
31.870        87
31.880        40
31.890        73
31.900        53
31.910        80
31.920       100
31.930        93
31.940        93
31.950       147
31.960       120
31.970        80
31.980        73
31.990       127
32.000       107
32.010        73
32.020        93
32.030        93
32.040       133
32.050       100
32.060       120
32.070       140
32.080       100
32.090       173
32.100       120
32.110       127
32.120        93
32.130       160
32.140       193
32.150       180
32.160       140
32.170       200
32.180       240
32.190       160
32.200       193
32.210       200
32.220       160
32.230       153
32.240       360
32.250       260
32.260       267
32.270       193
32.280       300
32.290       327
32.300       293
32.310       333
32.320       273
32.330       407
32.340       327
32.350       486
32.360       420
32.370       400
32.380       407
32.390       493
32.400       446
32.410       560
32.420       613
32.430       600
32.440       566
32.450       620
32.460       633
32.470       533
32.480       600
32.490       593
32.500       453
32.510       640
32.520       520
32.530       620
32.540       600
32.550       573
32.560       600
32.570       506
32.580       646
32.590       580
32.600       453
32.610       440
32.620       440
32.630       367
32.640       493
32.650       473
32.660       566
32.670       566
32.680       420
32.690       440
32.700       506
32.710       413
32.720       466
32.730       426
32.740       473
32.750       440
32.760       300
32.770       220
32.780       273
32.790       307
32.800       280
32.810       293
32.820       167
32.830       140
32.840       187
32.850       133
32.860       173
32.870       147
32.880       153
32.890       100
32.900       127
32.910        87
32.920       107
32.930        87
32.940       120
32.950       133
32.960       113
32.970        93
32.980        80
32.990       100
33.000       107
33.010        73
33.020        67
33.030       113
33.040        60
33.050       140
33.060        67
33.070        47
33.080        67
33.090        73
33.100        67
33.110       113
33.120        67
33.130        53
33.140        73
33.150        47
33.160        93
33.170        93
33.180        53
33.190        47
33.200        60
33.210        60
33.220        53
33.230        73
33.240        80
33.250       120
33.260        27
33.270        67
33.280        47
33.290        47
33.300        47
33.310        67
33.320        47
33.330        73
33.340        40
33.350        60
33.360        67
33.370        47
33.380        47
33.390        20
33.400        33
33.410        47
33.420        73
33.430        33
33.440        53
33.450        27
33.460        53
33.470        33
33.480        60
33.490        53
33.500        20
33.510        60
33.520        47
33.530        33
33.540        60
33.550        60
33.560        47
33.570        27
33.580        60
33.590        53
33.600        67
33.610        60
33.620        53
33.630        27
33.640        53
33.650        73
33.660        80
33.670        67
33.680        33
33.690        40
33.700        47
33.710        33
33.720        33
33.730        60
33.740        80
33.750        47
33.760        33
33.770        53
33.780        67
33.790        60
33.800        53
33.810        47
33.820        60
33.830        40
33.840        80
33.850        60
33.860        53
33.870        73
33.880        67
33.890        53
33.900        73
33.910        33
33.920        27
33.930        87
33.940        27
33.950        87
33.960        60
33.970        67
33.980        67
33.990        33
34.000        53
34.010        67
34.020        47
34.030        93
34.040        27
34.050        53
34.060       107
34.070        80
34.080        67
34.090        60
34.100        53
34.110        53
34.120        27
34.130        73
34.140        67
34.150        80
34.160        87
34.170        60
34.180        33
34.190       113
34.200        40
34.210        53
34.220        60
34.230        47
34.240        93
34.250        27
34.260        60
34.270        67
34.280        47
34.290        47
34.300        47
34.310        60
34.320        47
34.330        67
34.340        87
34.350        60
34.360        47
34.370        67
34.380        40
34.390        53
34.400        47
34.410        67
34.420        80
34.430        47
34.440        47
34.450        27
34.460        73
34.470        47
34.480        60
34.490        60
34.500        27
34.510        13
34.520        40
34.530        40
34.540        60
34.550        47
34.560        47
34.570        60
34.580        67
34.590        40
34.600        13
34.610        40
34.620        53
34.630        67
34.640        40
34.650        60
34.660        33
34.670        60
34.680        53
34.690        47
34.700        40
34.710        47
34.720        47
34.730        47
34.740        67
34.750        47
34.760        60
34.770        40
34.780        67
34.790        20
34.800        33
34.810        60
34.820        33
34.830        13
34.840        33
34.850        33
34.860        60
34.870        27
34.880        67
34.890        40
34.900        20
34.910        40
34.920        40
34.930        40
34.940        73
34.950        40
34.960        60
34.970        67
34.980        47
34.990        27
35.000        67
35.010        47
35.020        33
35.030        67
35.040        47
35.050        47
35.060        53
35.070        40
35.080        73
35.090        40
35.100        47
35.110        80
35.120        67
35.130        87
35.140        27
35.150        40
35.160        73
35.170        80
35.180         7
35.190        47
35.200        40
35.210        33
35.220        73
35.230        60
35.240        27
35.250        67
35.260        27
35.270        47
35.280        27
35.290        47
35.300        13
35.310        53
35.320        53
35.330        40
35.340        80
35.350        53
35.360        67
35.370        47
35.380        73
35.390         7
35.400        60
35.410        53
35.420        13
35.430        27
35.440        60
35.450        80
35.460        53
35.470        47
35.480        87
35.490        13
35.500        67
35.510        33
35.520        33
35.530        27
35.540        80
35.550        47
35.560        47
35.570        47
35.580        40
35.590        53
35.600        47
35.610        67
35.620        60
35.630        40
35.640        33
35.650        53
35.660        53
35.670        47
35.680        47
35.690        47
35.700        53
35.710        47
35.720        33
35.730        33
35.740        40
35.750        40
35.760        60
35.770        40
35.780        73
35.790        27
35.800        80
35.810        47
35.820        33
35.830        73
35.840        80
35.850        73
35.860        60
35.870        87
35.880        33
35.890        53
35.900        33
35.910        33
35.920        47
35.930        80
35.940        73
35.950        27
35.960        67
35.970        27
35.980        80
35.990        33
36.000        40
36.010        33
36.020        53
36.030        20
36.040        67
36.050        47
36.060        27
36.070        60
36.080        27
36.090        53
36.100        67
36.110        47
36.120        60
36.130        40
36.140        53
36.150        27
36.160        47
36.170        80
36.180        73
36.190        53
36.200        33
36.210        60
36.220        33
36.230        33
36.240        20
36.250        33
36.260        27
36.270        67
36.280        53
36.290        73
36.300        60
36.310        27
36.320        47
36.330        60
36.340        47
36.350        53
36.360        47
36.370        27
36.380        33
36.390        47
36.400        47
36.410        47
36.420        47
36.430        33
36.440        27
36.450        20
36.460        27
36.470        47
36.480        47
36.490        13
36.500        20
36.510        53
36.520        40
36.530        53
36.540        40
36.550        27
36.560        40
36.570        33
36.580        53
36.590        60
36.600        33
36.610        20
36.620        73
36.630        33
36.640        67
36.650        53
36.660        87
36.670        47
36.680        20
36.690        47
36.700        27
36.710        40
36.720        53
36.730        53
36.740        27
36.750        73
36.760        33
36.770        40
36.780        40
36.790        40
36.800        40
36.810        40
36.820        40
36.830        40
36.840        47
36.850        53
36.860        67
36.870        47
36.880        47
36.890        53
36.900        53
36.910        27
36.920        27
36.930        47
36.940        33
36.950        20
36.960        33
36.970        53
36.980        33
36.990        80
37.000        53
37.010        53
37.020        33
37.030        60
37.040        33
37.050        33
37.060        53
37.070        27
37.080        47
37.090        47
37.100        67
37.110        13
37.120        53
37.130        67
37.140        47
37.150        47
37.160        20
37.170        47
37.180        60
37.190        20
37.200        27
37.210        47
37.220        40
37.230        33
37.240        47
37.250        40
37.260        33
37.270        47
37.280        33
37.290        60
37.300        33
37.310        67
37.320        53
37.330        27
37.340        40
37.350        87
37.360        80
37.370        20
37.380        80
37.390        40
37.400        53
37.410        13
37.420        13
37.430        73
37.440        53
37.450        33
37.460        33
37.470        20
37.480        33
37.490        80
37.500        60
37.510        20
37.520        33
37.530        40
37.540        47
37.550        47
37.560        33
37.570        60
37.580        47
37.590        27
37.600        40
37.610        47
37.620        40
37.630        67
37.640        67
37.650        93
37.660        27
37.670        20
37.680        27
37.690        40
37.700        27
37.710        53
37.720        67
37.730        20
37.740        53
37.750        33
37.760        47
37.770        33
37.780        33
37.790        27
37.800        13
37.810        53
37.820        20
37.830        40
37.840        27
37.850        13
37.860        53
37.870        40
37.880        47
37.890        67
37.900        33
37.910        67
37.920        40
37.930        47
37.940        20
37.950        47
37.960        93
37.970        40
37.980        33
37.990        60
38.000        53
38.010        53
38.020        67
38.030        40
38.040        33
38.050        40
38.060        47
38.070        53
38.080        60
38.090        80
38.100        53
38.110        53
38.120        47
38.130        60
38.140        40
38.150        47
38.160        87
38.170        73
38.180        27
38.190        27
38.200        20
38.210        60
38.220        47
38.230        40
38.240        40
38.250        53
38.260        13
38.270        33
38.280        40
38.290        47
38.300        73
38.310        40
38.320        40
38.330        33
38.340        53
38.350        60
38.360        67
38.370        27
38.380        73
38.390        47
38.400        53
38.410        47
38.420        47
38.430        67
38.440        33
38.450        67
38.460        13
38.470        27
38.480        40
38.490        87
38.500        47
38.510        33
38.520        73
38.530        60
38.540        20
38.550        60
38.560        40
38.570        53
38.580        60
38.590        33
38.600        27
38.610        27
38.620        53
38.630        33
38.640        47
38.650        33
38.660        40
38.670        47
38.680        27
38.690        27
38.700        40
38.710        60
38.720        47
38.730        40
38.740        27
38.750        47
38.760        53
38.770        40
38.780        47
38.790        20
38.800        40
38.810        13
38.820        53
38.830        53
38.840        53
38.850        33
38.860        27
38.870        47
38.880        27
38.890        53
38.900        33
38.910        27
38.920        73
38.930        27
38.940        33
38.950        13
38.960        27
38.970        33
38.980        73
38.990        33
39.000        40
39.010        53
39.020        60
39.030        33
39.040        27
39.050        33
39.060        60
39.070        27
39.080        47
39.090        60
39.100        47
39.110        40
39.120        53
39.130        33
39.140        33
39.150        33
39.160        27
39.170        20
39.180        60
39.190        33
39.200        53
39.210        60
39.220        67
39.230        60
39.240        47
39.250        40
39.260        40
39.270         0
39.280        67
39.290        27
39.300        67
39.310        13
39.320        20
39.330        60
39.340        33
39.350        33
39.360        80
39.370        47
39.380        40
39.390        53
39.400        47
39.410        33
39.420        33
39.430        67
39.440        53
39.450        47
39.460        93
39.470        40
39.480        53
39.490        67
39.500        53
39.510        60
39.520        47
39.530        33
39.540        67
39.550        47
39.560        27
39.570        40
39.580        67
39.590        67
39.600        53
39.610        60
39.620        47
39.630        33
39.640        33
39.650        60
39.660        40
39.670        20
39.680        47
39.690        27
39.700        73
39.710        20
39.720        47
39.730        67
39.740        60
39.750        20
39.760        53
39.770        47
39.780        40
39.790        73
39.800        67
39.810        40
39.820        80
39.830        40
39.840        67
39.850        47
39.860        73
39.870        47
39.880        53
39.890        73
39.900        53
39.910        87
39.920       107
39.930        67
39.940        80
39.950        87
39.960        93
39.970        93
39.980       113
39.990        73
40.000        87
40.010        73
40.020       107
40.030       113
40.040       113
40.050       127
40.060       153
40.070       140
40.080       120
40.090       133
40.100       167
40.110       153
40.120       180
40.130       167
40.140       160
40.150       140
40.160       220
40.170       147
40.180       273
40.190       127
40.200       107
40.210       147
40.220       187
40.230       113
40.240       180
40.250        93
40.260       173
40.270        73
40.280       107
40.290        93
40.300       127
40.310        80
40.320       107
40.330       113
40.340       127
40.350        80
40.360        67
40.370       107
40.380       113
40.390       100
40.400        73
40.410       100
40.420        60
40.430        93
40.440        80
40.450       113
40.460        93
40.470        80
40.480        80
40.490        80
40.500        80
40.510        93
40.520        73
40.530        93
40.540        73
40.550        67
40.560       100
40.570        80
40.580       100
40.590        60
40.600        60
40.610        67
40.620        27
40.630        73
40.640        20
40.650        40
40.660        40
40.670        80
40.680        47
40.690       100
40.700        33
40.710        80
40.720        40
40.730        60
40.740        47
40.750        73
40.760        47
40.770        47
40.780        40
40.790        53
40.800        67
40.810        60
40.820        47
40.830        47
40.840        60
40.850        40
40.860        67
40.870        53
40.880        67
40.890        27
40.900        53
40.910        20
40.920        53
40.930       100
40.940        27
40.950        80
40.960        27
40.970        40
40.980        27
40.990        47
41.000        67
41.010        27
41.020        27
41.030        87
41.040        73
41.050        40
41.060        47
41.070        60
41.080        40
41.090        33
41.100        13
41.110        60
41.120        33
41.130        47
41.140        60
41.150        33
41.160        60
41.170        73
41.180        33
41.190        33
41.200        33
41.210        67
41.220        53
41.230        33
41.240        47
41.250        20
41.260        60
41.270        53
41.280        40
41.290        20
41.300        53
41.310        60
41.320        27
41.330        40
41.340        33
41.350        47
41.360        53
41.370        53
41.380        67
41.390        67
41.400        47
41.410        53
41.420        60
41.430       107
41.440        27
41.450        67
41.460        33
41.470        47
41.480        13
41.490        60
41.500        53
41.510        27
41.520        20
41.530        40
41.540        73
41.550       100
41.560        27
41.570        40
41.580        53
41.590        33
41.600        67
41.610        60
41.620        40
41.630        33
41.640        60
41.650        33
41.660        60
41.670        47
41.680        40
41.690        47
41.700        60
41.710        27
41.720        33
41.730        27
41.740        47
41.750        53
41.760        27
41.770        27
41.780        13
41.790        33
41.800        53
41.810        40
41.820        47
41.830        67
41.840        40
41.850        47
41.860        33
41.870        53
41.880        67
41.890         7
41.900        40
41.910        47
41.920        40
41.930        53
41.940        53
41.950        60
41.960        40
41.970        93
41.980        33
41.990        47
42.000        73
42.010        27
42.020        20
42.030        40
42.040        53
42.050        47
42.060        27
42.070        60
42.080        60
42.090        47
42.100        60
42.110        73
42.120        33
42.130        27
42.140        93
42.150        20
42.160        60
42.170        47
42.180        67
42.190        47
42.200        73
42.210        47
42.220        40
42.230        33
42.240        60
42.250        47
42.260        93
42.270        27
42.280        47
42.290        53
42.300        20
42.310        40
42.320        20
42.330        47
42.340        20
42.350        27
42.360        40
42.370        67
42.380        33
42.390        53
42.400        27
42.410        27
42.420        60
42.430        33
42.440        20
42.450        60
42.460        40
42.470        47
42.480        87
42.490        47
42.500        33
42.510        27
42.520        60
42.530        67
42.540        87
42.550        67
42.560        27
42.570        27
42.580        27
42.590        47
42.600        47
42.610        67
42.620        73
42.630        33
42.640        67
42.650        53
42.660        40
42.670        47
42.680        27
42.690         7
42.700        60
42.710        47
42.720        20
42.730        27
42.740        80
42.750        40
42.760        53
42.770        53
42.780        27
42.790        53
42.800        47
42.810        20
42.820        47
42.830        33
42.840        27
42.850        73
42.860        20
42.870        33
42.880        27
42.890        47
42.900        40
42.910        67
42.920        20
42.930        47
42.940        47
42.950        47
42.960        53
42.970        67
42.980        80
42.990        53
43.000        47
43.010        60
43.020        40
43.030        40
43.040        27
43.050        20
43.060        40
43.070        27
43.080        53
43.090        47
43.100        20
43.110        33
43.120        40
43.130        60
43.140        33
43.150        53
43.160        67
43.170        33
43.180        53
43.190        40
43.200        20
43.210        13
43.220        47
43.230        20
43.240        73
43.250         0
43.260        53
43.270        33
43.280        40
43.290        47
43.300        60
43.310        53
43.320        13
43.330        27
43.340        27
43.350        13
43.360        47
43.370        47
43.380        27
43.390        67
43.400        20
43.410        40
43.420        47
43.430        40
43.440        33
43.450        47
43.460        53
43.470        47
43.480        40
43.490        60
43.500        40
43.510        67
43.520        67
43.530        33
43.540        33
43.550        40
43.560        60
43.570        20
43.580        60
43.590        47
43.600        40
43.610        53
43.620        33
43.630        27
43.640        20
43.650        47
43.660        20
43.670        27
43.680        20
43.690        13
43.700        73
43.710        73
43.720        13
43.730        60
43.740        40
43.750        80
43.760        40
43.770        33
43.780        67
43.790        33
43.800        33
43.810        33
43.820        60
43.830        33
43.840        33
43.850        27
43.860        20
43.870        47
43.880        40
43.890        40
43.900        40
43.910        40
43.920        40
43.930        33
43.940        27
43.950        80
43.960        53
43.970        27
43.980        47
43.990        33
44.000        33
44.010        67
44.020        33
44.030        13
44.040        73
44.050        60
44.060        13
44.070        73
44.080        33
44.090        73
44.100        47
44.110        27
44.120        47
44.130        53
44.140        40
44.150        47
44.160        60
44.170        27
44.180        40
44.190        60
44.200        87
44.210        53
44.220        27
44.230        47
44.240        40
44.250        47
44.260        93
44.270        53
44.280        27
44.290        27
44.300        27
44.310        27
44.320        47
44.330        40
44.340        53
44.350        40
44.360        60
44.370        20
44.380        40
44.390        53
44.400        27
44.410        53
44.420        53
44.430        60
44.440        40
44.450        53
44.460        60
44.470        73
44.480        20
44.490        53
44.500        40
44.510        47
44.520        33
44.530        53
44.540        53
44.550        27
44.560        87
44.570        27
44.580        33
44.590        47
44.600        47
44.610        47
44.620        27
44.630        27
44.640        73
44.650        40
44.660        53
44.670        67
44.680        40
44.690        87
44.700        40
44.710        53
44.720         7
44.730        27
44.740        27
44.750        33
44.760         7
44.770       113
44.780        67
44.790        93
44.800        27
44.810        40
44.820        67
44.830        20
44.840        27
44.850        27
44.860        20
44.870        40
44.880        53
44.890        33
44.900        67
44.910        67
44.920        47
44.930        47
44.940        53
44.950        27
44.960        40
44.970        53
44.980        67
44.990        27
45.000        40
45.010        53
45.020        60
45.030        40
45.040        33
45.050        60
45.060        47
45.070        53
45.080        33
45.090        47
45.100        53
45.110        53
45.120        40
45.130        60
45.140        53
45.150        67
45.160        53
45.170        53
45.180        53
45.190        33
45.200        73
45.210        60
45.220        40
45.230        40
45.240        33
45.250        87
45.260        60
45.270        40
45.280        27
45.290        47
45.300        53
45.310        47
45.320        60
45.330        27
45.340        47
45.350        27
45.360        47
45.370        47
45.380        67
45.390        40
45.400        60
45.410        60
45.420        60
45.430        40
45.440        33
45.450        47
45.460        53
45.470        40
45.480        67
45.490        40
45.500        60
45.510        40
45.520        80
45.530        67
45.540        73
45.550        60
45.560        53
45.570        67
45.580        33
45.590        20
45.600        53
45.610        67
45.620        27
45.630        67
45.640        53
45.650        47
45.660        80
45.670        40
45.680        53
45.690        53
45.700        67
45.710        53
45.720        47
45.730        67
45.740        40
45.750        33
45.760         7
45.770        33
45.780        47
45.790        73
45.800        67
45.810        80
45.820        27
45.830        60
45.840       100
45.850        47
45.860        60
45.870       120
45.880        27
45.890        80
45.900        47
45.910        53
45.920        40
45.930        67
45.940        47
45.950        47
45.960        53
45.970        60
45.980        60
45.990        80
46.000        87
46.010        53
46.020        60
46.030        60
46.040        60
46.050        47
46.060        80
46.070        40
46.080        73
46.090        80
46.100        87
46.110       100
46.120        80
46.130        93
46.140        80
46.150        67
46.160       107
46.170        53
46.180        60
46.190        80
46.200        80
46.210        80
46.220        80
46.230        87
46.240        87
46.250       107
46.260       133
46.270        93
46.280       100
46.290        80
46.300        87
46.310       147
46.320        87
46.330        73
46.340       107
46.350        93
46.360        80
46.370       100
46.380        67
46.390        80
46.400       107
46.410       120
46.420       140
46.430       120
46.440        93
46.450       127
46.460        87
46.470       100
46.480        80
46.490        93
46.500       133
46.510       133
46.520       120
46.530       153
46.540       107
46.550       113
46.560       140
46.570        93
46.580        80
46.590       127
46.600       167
46.610       147
46.620       193
46.630       133
46.640       167
46.650       187
46.660       220
46.670       227
46.680       153
46.690       207
46.700       200
46.710       193
46.720       207
46.730       193
46.740       153
46.750       140
46.760       233
46.770       247
46.780       300
46.790       273
46.800       213
46.810       273
46.820       253
46.830       153
46.840       200
46.850       173
46.860       153
46.870       247
46.880       167
46.890       153
46.900       173
46.910       160
46.920       140
46.930       160
46.940       167
46.950       147
46.960       147
46.970       113
46.980       107
46.990       113
47.000        93
47.010       133
47.020        93
47.030        87
47.040        73
47.050        67
47.060       100
47.070        73
47.080        73
47.090        47
47.100        40
47.110        93
47.120        73
47.130        47
47.140        73
47.150        47
47.160        60
47.170        40
47.180        53
47.190        80
47.200        60
47.210        93
47.220        53
47.230        47
47.240        60
47.250        47
47.260        40
47.270        47
47.280        47
47.290        60
47.300        40
47.310        73
47.320        60
47.330        73
47.340        27
47.350        40
47.360        33
47.370        40
47.380        33
47.390        80
47.400        60
47.410        53
47.420        67
47.430        40
47.440        27
47.450        73
47.460        60
47.470        80
47.480        13
47.490        33
47.500        33
47.510        73
47.520        47
47.530        53
47.540        33
47.550        27
47.560        60
47.570        33
47.580        40
47.590        53
47.600        27
47.610        20
47.620        27
47.630        67
47.640        33
47.650        40
47.660        67
47.670        47
47.680        27
47.690        53
47.700        33
47.710        33
47.720        73
47.730        73
47.740        40
47.750        53
47.760        40
47.770        33
47.780        33
47.790        27
47.800        60
47.810        33
47.820        20
47.830        20
47.840        13
47.850        53
47.860        33
47.870        33
47.880        67
47.890        53
47.900        67
47.910        40
47.920        40
47.930        47
47.940        47
47.950        73
47.960        20
47.970        20
47.980        53
47.990        47
48.000        53
48.010        33
48.020        33
48.030        40
48.040        27
48.050        53
48.060        33
48.070        47
48.080        73
48.090        47
48.100        40
48.110        40
48.120        53
48.130        40
48.140        60
48.150        53
48.160         7
48.170        73
48.180        27
48.190        20
48.200        67
48.210        13
48.220        13
48.230        53
48.240        20
48.250        67
48.260        27
48.270        27
48.280        33
48.290        40
48.300        33
48.310        40
48.320        73
48.330        47
48.340        40
48.350        40
48.360        40
48.370        60
48.380        20
48.390        47
48.400        40
48.410        33
48.420        67
48.430        47
48.440        40
48.450        20
48.460        47
48.470        27
48.480        33
48.490        40
48.500        53
48.510         7
48.520        73
48.530        13
48.540        47
48.550        47
48.560        53
48.570        60
48.580        53
48.590        53
48.600        40
48.610        40
48.620        27
48.630        33
48.640        53
48.650        33
48.660        87
48.670        33
48.680        13
48.690        67
48.700        60
48.710        53
48.720        27
48.730        33
48.740        33
48.750        33
48.760        47
48.770        80
48.780        40
48.790        20
48.800        40
48.810        27
48.820        40
48.830        40
48.840        27
48.850        33
48.860        20
48.870        27
48.880        53
48.890        53
48.900        47
48.910        33
48.920        33
48.930        27
48.940        40
48.950        33
48.960        40
48.970        60
48.980        20
48.990        40
49.000        20
49.010        53
49.020        53
49.030        53
49.040        20
49.050        47
49.060        40
49.070        60
49.080        33
49.090        40
49.100        33
49.110        80
49.120        40
49.130        13
49.140        53
49.150        47
49.160        40
49.170        33
49.180       100
49.190        60
49.200        67
49.210        40
49.220        33
49.230        20
49.240        27
49.250        53
49.260        33
49.270        40
49.280        20
49.290        33
49.300        47
49.310        47
49.320        33
49.330        27
49.340         7
49.350        47
49.360        47
49.370        60
49.380        40
49.390        73
49.400        53
49.410        27
49.420        33
49.430        47
49.440        67
49.450        13
49.460        33
49.470        27
49.480        53
49.490        47
49.500        47
49.510        60
49.520        33
49.530        33
49.540        53
49.550        33
49.560        53
49.570        47
49.580        40
49.590        33
49.600        13
49.610        47
49.620        53
49.630        60
49.640        60
49.650        27
49.660        53
49.670        27
49.680        40
49.690        40
49.700        67
49.710        40
49.720        47
49.730        40
49.740        33
49.750        27
49.760        33
49.770        20
49.780        40
49.790        67
49.800        47
49.810        33
49.820        40
49.830        27
49.840        47
49.850        33
49.860        20
49.870        53
49.880        40
49.890        73
49.900        27
49.910        27
49.920        53
49.930        60
49.940        27
49.950        27
49.960        47
49.970        40
49.980        33
49.990         7
50.000        47
50.010        40
50.020        20
50.030        73
50.040        27
50.050        40
50.060        27
50.070        33
50.080        27
50.090        27
50.100        33
50.110        67
50.120        33
50.130        33
50.140        67
50.150        27
50.160        73
50.170        20
50.180        20
50.190        40
50.200        60
50.210         7
50.220        67
50.230        27
50.240        40
50.250        33
50.260        47
50.270        53
50.280        33
50.290        20
50.300        33
50.310        80
50.320         7
50.330        20
50.340        27
50.350        40
50.360        67
50.370        13
50.380        47
50.390        40
50.400        40
50.410        47
50.420        40
50.430        67
50.440        40
50.450        47
50.460        27
50.470        33
50.480        53
50.490        40
50.500        53
50.510        33
50.520        40
50.530        67
50.540        13
50.550        40
50.560        40
50.570        40
50.580        27
50.590        67
50.600        60
50.610        33
50.620        40
50.630        33
50.640        33
50.650        27
50.660        47
50.670        67
50.680        13
50.690        40
50.700        47
50.710        47
50.720        20
50.730        27
50.740        40
50.750        33
50.760        13
50.770        73
50.780        33
50.790        27
50.800        67
50.810        53
50.820        60
50.830        40
50.840        33
50.850        53
50.860        53
50.870        67
50.880        40
50.890        53
50.900        47
50.910        73
50.920        20
50.930        33
50.940        53
50.950        47
50.960        27
50.970        67
50.980        60
50.990        20
51.000        53
51.010        80
51.020        47
51.030         7
51.040        47
51.050        20
51.060        80
51.070        60
51.080        67
51.090        53
51.100        40
51.110        60
51.120        53
51.130        60
51.140        33
51.150        53
51.160        33
51.170        40
51.180        33
51.190        27
51.200        27
51.210        13
51.220        73
51.230        53
51.240        20
51.250        33
51.260        53
51.270        73
51.280        53
51.290        20
51.300        27
51.310        53
51.320        40
51.330        40
51.340        27
51.350        73
51.360        53
51.370        53
51.380        33
51.390        33
51.400        40
51.410        27
51.420        40
51.430        40
51.440        40
51.450        27
51.460        40
51.470        60
51.480        47
51.490        40
51.500        53
51.510        67
51.520        93
51.530        40
51.540        40
51.550        33
51.560        47
51.570        13
51.580        27
51.590        60
51.600        40
51.610        20
51.620        33
51.630        60
51.640        60
51.650        47
51.660        27
51.670        60
51.680        40
51.690        67
51.700        33
51.710        33
51.720        47
51.730        40
51.740        67
51.750        60
51.760        53
51.770        20
51.780        33
51.790        47
51.800        27
51.810        53
51.820        33
51.830        27
51.840        47
51.850        20
51.860        33
51.870        60
51.880        47
51.890        40
51.900        33
51.910        20
51.920        53
51.930        33
51.940        47
51.950        13
51.960        67
51.970        67
51.980        27
51.990        47
52.000        73
52.010        47
52.020        13
52.030        40
52.040        27
52.050        67
52.060        33
52.070         7
52.080        33
52.090        33
52.100        13
52.110        53
52.120        53
52.130        40
52.140        47
52.150        47
52.160        47
52.170        40
52.180        53
52.190        67
52.200        60
52.210        27
52.220        27
52.230        47
52.240        40
52.250        87
52.260        33
52.270        27
52.280        67
52.290        47
52.300        40
52.310        40
52.320        73
52.330        47
52.340        47
52.350        73
52.360        27
52.370        60
52.380        27
52.390        53
52.400        73
52.410        60
52.420        40
52.430        20
52.440        60
52.450        40
52.460        60
52.470       100
52.480        40
52.490        53
52.500        33
52.510        47
52.520        27
52.530        47
52.540        53
52.550        47
52.560        60
52.570        40
52.580        60
52.590        53
52.600        47
52.610        80
52.620        60
52.630        40
52.640        47
52.650        73
52.660       107
52.670        47
52.680        40
52.690        73
52.700        67
52.710        73
52.720        40
52.730        33
52.740        47
52.750        40
52.760        20
52.770        73
52.780        53
52.790        67
52.800        33
52.810        53
52.820        60
52.830        87
52.840        73
52.850        67
52.860        73
52.870        67
52.880        93
52.890        40
52.900        73
52.910        67
52.920        93
52.930        80
52.940        67
52.950        60
52.960        47
52.970        60
52.980        80
52.990        53
53.000        60
53.010        73
53.020        53
53.030        33
53.040        40
53.050        47
53.060        33
53.070        47
53.080        60
53.090        53
53.100        20
53.110        67
53.120        60
53.130        60
53.140        47
53.150        13
53.160        80
53.170        53
53.180        67
53.190        40
53.200        53
53.210        20
53.220        73
53.230         7
53.240        47
53.250        27
53.260        60
53.270        47
53.280        20
53.290        47
53.300        33
53.310        47
53.320        33
53.330        73
53.340        27
53.350        13
53.360        27
53.370        67
53.380        47
53.390        73
53.400        53
53.410        73
53.420        60
53.430        20
53.440        27
53.450        40
53.460        53
53.470        53
53.480        40
53.490        40
53.500        33
53.510        53
53.520        33
53.530        27
53.540        47
53.550        20
53.560        40
53.570        27
53.580        40
53.590        47
53.600        27
53.610        73
53.620        33
53.630        40
53.640        33
53.650        40
53.660        20
53.670        67
53.680        27
53.690        27
53.700        40
53.710        60
53.720        40
53.730        73
53.740         7
53.750        53
53.760        20
53.770        20
53.780        27
53.790        20
53.800        33
53.810        33
53.820        33
53.830        33
53.840        47
53.850        40
53.860        40
53.870        60
53.880        60
53.890        33
53.900        27
53.910        33
53.920        60
53.930        33
53.940        33
53.950        33
53.960        27
53.970        20
53.980        33
53.990        60
54.000        27
54.010        53
54.020        53
54.030        47
54.040        40
54.050        40
54.060        40
54.070        40
54.080        47
54.090        73
54.100        20
54.110        33
54.120        33
54.130        53
54.140        47
54.150        20
54.160        60
54.170        33
54.180        27
54.190        40
54.200        33
54.210        53
54.220        47
54.230        53
54.240        53
54.250        53
54.260        33
54.270        60
54.280        67
54.290        87
54.300        60
54.310        13
54.320        20
54.330        40
54.340        53
54.350        40
54.360        53
54.370        33
54.380        13
54.390        53
54.400        27
54.410        53
54.420        33
54.430        60
54.440        53
54.450        47
54.460        27
54.470        40
54.480        60
54.490        47
54.500        33
54.510        27
54.520        60
54.530        40
54.540        53
54.550        40
54.560        40
54.570        33
54.580        47
54.590        13
54.600        47
54.610        67
54.620        80
54.630        47
54.640        27
54.650        67
54.660        53
54.670        20
54.680        80
54.690        33
54.700        67
54.710        60
54.720        47
54.730        33
54.740        40
54.750        27
54.760        27
54.770        53
54.780        40
54.790        13
54.800        60
54.810        53
54.820         7
54.830        53
54.840        33
54.850        27
54.860        20
54.870        27
54.880        60
54.890        47
54.900        53
54.910        53
54.920        53
54.930        33
54.940        33
54.950        60
54.960        47
54.970        40
54.980        33
54.990        33
55.000        33
55.010        33
55.020        27
55.030        40
55.040        47
55.050        60
55.060        40
55.070        73
55.080        53
55.090        53
55.100        33
55.110        53
55.120        33
55.130        40
55.140        40
55.150        53
55.160        40
55.170        60
55.180        20
55.190        73
55.200        27
55.210        33
55.220        33
55.230        47
55.240        67
55.250        20
55.260        40
55.270        67
55.280        53
55.290        93
55.300        40
55.310        87
55.320        40
55.330        53
55.340         7
55.350        53
55.360        33
55.370        40
55.380        47
55.390        27
55.400        20
55.410        87
55.420        33
55.430        53
55.440        33
55.450        33
55.460        33
55.470        53
55.480        67
55.490        60
55.500        40
55.510        20
55.520        20
55.530        40
55.540        40
55.550        33
55.560        13
55.570        27
55.580        40
55.590        53
55.600        33
55.610        47
55.620        40
55.630        40
55.640        27
55.650        40
55.660        73
55.670        60
55.680        47
55.690        33
55.700        47
55.710        47
55.720        47
55.730        27
55.740        47
55.750        67
55.760        27
55.770        40
55.780        53
55.790        27
55.800        27
55.810        53
55.820        60
55.830        33
55.840        73
55.850        60
55.860        27
55.870        33
55.880        60
55.890        47
55.900        40
55.910        33
55.920        53
55.930        33
55.940        13
55.950        40
55.960        60
55.970        33
55.980        47
55.990        27
56.000        33
56.010        47
56.020        27
56.030        60
56.040        27
56.050        33
56.060        33
56.070        33
56.080        47
56.090        13
56.100        40
56.110        33
56.120        40
56.130        67
56.140        47
56.150        47
56.160        40
56.170        67
56.180        60
56.190        47
56.200        47
56.210        27
56.220        53
56.230        27
56.240        53
56.250        13
56.260        73
56.270        47
56.280        60
56.290        33
56.300        33
56.310        60
56.320        47
56.330        53
56.340        20
56.350        73
56.360        33
56.370        20
56.380        33
56.390        80
56.400        47
56.410        40
56.420        33
56.430        27
56.440        40
56.450        53
56.460        20
56.470        53
56.480        20
56.490        40
56.500        47
56.510        60
56.520        40
56.530        27
56.540        27
56.550        40
56.560        40
56.570        13
56.580        27
56.590        60
56.600        33
56.610        33
56.620         7
56.630        33
56.640        53
56.650        13
56.660        73
56.670        13
56.680        33
56.690        53
56.700        20
56.710        53
56.720        53
56.730        60
56.740        60
56.750        53
56.760        27
56.770        40
56.780        60
56.790        27
56.800        67
56.810        33
56.820        27
56.830        27
56.840        33
56.850        60
56.860        80
56.870        47
56.880        60
56.890        33
56.900         7
56.910        40
56.920        27
56.930        67
56.940        47
56.950        40
56.960        53
56.970        33
56.980        53
56.990         7
57.000        33
57.010        53
57.020        33
57.030        60
57.040        47
57.050        33
57.060        73
57.070        53
57.080        53
57.090        40
57.100        60
57.110        33
57.120        47
57.130        60
57.140        53
57.150        53
57.160        27
57.170        33
57.180        80
57.190        20
57.200        60
57.210        53
57.220        67
57.230        73
57.240        53
57.250        33
57.260        47
57.270        67
57.280        40
57.290        67
57.300        60
57.310        53
57.320        47
57.330        87
57.340        33
57.350        33
57.360        67
57.370        53
57.380        87
57.390        20
57.400        80
57.410        67
57.420        53
57.430        47
57.440        73
57.450        67
57.460        40
57.470        53
57.480        93
57.490        73
57.500       113
57.510        53
57.520        60
57.530        73
57.540        60
57.550        67
57.560        93
57.570        40
57.580        87
57.590        93
57.600        67
57.610        40
57.620        67
57.630        60
57.640        93
57.650       147
57.660        60
57.670        47
57.680        80
57.690        60
57.700        73
57.710       133
57.720       140
57.730        60
57.740        87
57.750        80
57.760       133
57.770        60
57.780       107
57.790       133
57.800       167
57.810       120
57.820       107
57.830        80
57.840        73
57.850       127
57.860       120
57.870        87
57.880       127
57.890       147
57.900       127
57.910       127
57.920        73
57.930       193
57.940       133
57.950       140
57.960        87
57.970       127
57.980       173
57.990       193
58.000       180
58.010       147
58.020       193
58.030       227
58.040       207
58.050       220
58.060       213
58.070       167
58.080       147
58.090       160
58.100       227
58.110       227
58.120       213
58.130       220
58.140       220
58.150       180
58.160       180
58.170       193
58.180       233
58.190       193
58.200       213
58.210       227
58.220       220
58.230       200
58.240       133
58.250       200
58.260       260
58.270       180
58.280       133
58.290       187
58.300       153
58.310       133
58.320       167
58.330       147
58.340       140
58.350       193
58.360       133
58.370       140
58.380       167
58.390       173
58.400       120
58.410       120
58.420        93
58.430       127
58.440       113
58.450       147
58.460       187
58.470       147
58.480       133
58.490       113
58.500       120
58.510       133
58.520       100
58.530       133
58.540       113
58.550       127
58.560       180
58.570        60
58.580       127
58.590       140
58.600        60
58.610        73
58.620        80
58.630       113
58.640       140
58.650       100
58.660       120
58.670        73
58.680        87
58.690        60
58.700        73
58.710       100
58.720        60
58.730        80
58.740       107
58.750        47
58.760        53
58.770        47
58.780        53
58.790        53
58.800        60
58.810        53
58.820        67
58.830        47
58.840        87
58.850        27
58.860        87
58.870        60
58.880        80
58.890        33
58.900        33
58.910        67
58.920        40
58.930        73
58.940        40
58.950        40
58.960         0
58.970        60
58.980        73
58.990        60
59.000        53
59.010        47
59.020        47
59.030        47
59.040        47
59.050        73
59.060        40
59.070        20
59.080        33
59.090        40
59.100        40
59.110        13
59.120         7
59.130        40
59.140        20
59.150        27
59.160        73
59.170        60
59.180        53
59.190        67
59.200        13
59.210        13
59.220        27
59.230        20
59.240        60
59.250        33
59.260        47
59.270        53
59.280         7
59.290        53
59.300        33
59.310        20
59.320        33
59.330        40
59.340        53
59.350        40
59.360        47
59.370        53
59.380        20
59.390        20
59.400        27
59.410        40
59.420        27
59.430        53
59.440        60
59.450        33
59.460        27
59.470        53
59.480        53
59.490        27
59.500        60
59.510        20
59.520        47
59.530        33
59.540        40
59.550        53
59.560        33
59.570        53
59.580        40
59.590        47
59.600        20
59.610        47
59.620        20
59.630        27
59.640        67
59.650        33
59.660        13
59.670        33
59.680        33
59.690        67
59.700        53
59.710        27
59.720        27
59.730        27
59.740        67
59.750       120
59.760        20
59.770        47
59.780        33
59.790         7
59.800        40
59.810        40
59.820        27
59.830        67
59.840        47
59.850        33
59.860        27
59.870        47
59.880        13
59.890        47
59.900        60
59.910        27
59.920        20
59.930        47
59.940        27
59.950        93
59.960        27
59.970        60
59.980        60
59.990        13
60.000        13
