20.000        47
20.010        47
20.020        33
20.030        73
20.040        87
20.050        80
20.060        47
20.070        87
20.080        80
20.090        40
20.100        33
20.110        47
20.120        60
20.130        67
20.140        33
20.150        67
20.160        13
20.170        40
20.180        73
20.190        80
20.200        27
20.210        73
20.220        73
20.230        87
20.240       100
20.250        60
20.260        47
20.270        53
20.280        60
20.290       120
20.300        40
20.310        60
20.320        53
20.330        60
20.340        80
20.350        13
20.360        87
20.370        60
20.380        60
20.390        33
20.400        60
20.410        33
20.420       100
20.430        80
20.440        33
20.450        67
20.460        67
20.470        47
20.480        60
20.490        73
20.500        60
20.510        60
20.520        33
20.530        53
20.540        60
20.550        27
20.560        47
20.570        53
20.580        27
20.590        40
20.600        60
20.610        33
20.620        53
20.630        67
20.640        53
20.650        53
20.660        33
20.670        47
20.680        47
20.690        73
20.700        87
20.710        60
20.720        40
20.730        40
20.740        40
20.750        80
20.760        33
20.770        60
20.780        73
20.790        20
20.800        73
20.810        53
20.820        53
20.830        47
20.840        53
20.850        60
20.860        60
20.870        20
20.880        40
20.890        67
20.900        33
20.910        40
20.920        40
20.930        80
20.940        33
20.950        73
20.960        27
20.970        53
20.980        47
20.990        27
21.000        73
21.010        33
21.020        13
21.030        60
21.040        40
21.050        13
21.060        47
21.070        53
21.080        40
21.090        53
21.100        53
21.110        67
21.120        33
21.130        53
21.140        53
21.150        73
21.160        87
21.170        60
21.180        53
21.190        53
21.200        47
21.210        40
21.220        47
21.230        47
21.240        93
21.250        27
21.260        60
21.270        80
21.280        33
21.290        53
21.300        80
21.310        53
21.320        60
21.330        47
21.340        47
21.350        47
21.360        93
21.370        67
21.380        27
21.390        60
21.400        40
21.410        53
21.420        67
21.430        33
21.440        33
21.450        87
21.460        53
21.470        13
21.480        60
21.490        47
21.500        67
21.510        80
21.520        40
21.530        80
21.540        40
21.550        60
21.560        27
21.570        80
21.580        33
21.590        33
21.600        67
21.610        27
21.620        80
21.630        73
21.640        40
21.650        60
21.660        13
21.670        40
21.680        53
21.690        33
21.700        20
21.710        73
21.720        67
21.730        67
21.740        67
21.750        53
21.760        53
21.770        73
21.780        47
21.790        33
21.800        73
21.810        27
21.820        53
21.830        27
21.840        53
21.850        67
21.860        87
21.870        80
21.880        40
21.890        53
21.900        60
21.910        80
21.920        33
21.930        73
21.940        67
21.950        67
21.960        53
21.970        53
21.980        47
21.990        27
22.000        67
22.010        47
22.020        47
22.030        27
22.040        60
22.050        40
22.060        60
22.070        40
22.080        40
22.090        73
22.100        60
22.110        87
22.120        33
22.130        60
22.140        93
22.150        73
22.160        53
22.170        67
22.180        53
22.190        20
22.200        80
22.210        93
22.220        67
22.230        47
22.240        53
22.250        53
22.260        27
22.270        60
22.280        53
22.290        67
22.300        67
22.310        60
22.320        33
22.330        40
22.340        67
22.350       113
22.360        47
22.370        53
22.380        80
22.390        87
22.400        53
22.410        27
22.420        93
22.430        87
22.440        67
22.450        93
22.460        53
22.470       107
22.480        53
22.490        53
22.500       100
22.510        80
22.520        33
22.530        80
22.540       120
22.550        53
22.560        73
22.570       113
22.580        80
22.590        87
22.600        73
22.610       140
22.620       207
22.630       107
22.640       140
22.650        80
22.660       120
22.670        93
22.680        93
22.690        93
22.700        80
22.710        93
22.720        80
22.730        87
22.740        80
22.750        87
22.760        87
22.770       120
22.780       100
22.790       120
22.800       120
22.810       113
22.820        73
22.830        73
22.840        53
22.850       120
22.860       120
22.870       100
22.880        80
22.890        73
22.900        60
22.910        53
22.920        60
22.930        73
22.940        53
22.950        33
22.960        73
22.970       100
22.980        40
22.990        80
23.000        47
23.010        33
23.020        53
23.030        60
23.040        80
23.050        67
23.060        73
23.070        60
23.080        53
23.090        87
23.100        60
23.110        47
23.120        87
23.130        33
23.140        60
23.150        47
23.160        67
23.170        60
23.180        53
23.190        53
23.200        47
23.210        60
23.220        27
23.230        47
23.240        47
23.250        47
23.260        47
23.270        47
23.280        40
23.290        73
23.300        53
23.310        53
23.320        87
23.330        33
23.340        40
23.350        47
23.360        60
23.370        80
23.380        47
23.390        73
23.400        40
23.410        67
23.420        53
23.430        40
23.440        40
23.450        67
23.460        47
23.470        60
23.480        47
23.490        53
23.500        33
23.510        33
23.520        13
23.530        67
23.540        40
23.550        53
23.560        60
23.570        20
23.580        53
23.590        47
23.600        53
23.610        47
23.620        47
23.630        40
23.640        27
23.650        47
23.660        40
23.670        40
23.680        80
23.690        47
23.700        40
23.710        73
23.720        27
23.730        67
23.740        33
23.750        53
23.760        47
23.770        60
23.780        47
23.790        40
23.800        60
23.810        40
23.820        67
23.830        60
23.840        27
23.850        13
23.860        73
23.870        47
23.880        47
23.890        33
23.900         7
23.910        47
23.920        33
23.930        47
23.940        40
23.950        60
23.960        47
23.970        53
23.980        27
23.990        40
24.000        60
24.010        60
24.020        53
24.030        27
24.040        33
24.050        60
24.060        33
24.070        27
24.080        20
24.090        73
24.100        80
24.110        40
24.120        33
24.130        27
24.140        27
24.150        27
24.160        47
24.170        27
24.180        40
24.190        80
24.200        27
24.210        33
24.220        47
24.230        47
24.240        40
24.250        40
24.260        40
24.270        33
24.280        87
24.290        27
24.300        33
24.310        20
24.320        60
24.330        33
24.340        47
24.350        53
24.360        47
24.370        80
24.380        27
24.390        40
24.400        27
24.410        47
24.420        13
24.430        60
24.440        53
24.450        47
24.460        60
24.470        67
24.480        53
24.490        33
24.500        67
24.510        73
24.520        33
24.530        40
24.540        60
24.550        33
24.560       107
24.570        40
24.580        73
24.590        47
24.600        60
24.610        60
24.620        87
24.630        67
24.640        40
24.650        67
24.660        53
24.670        53
24.680        47
24.690        47
24.700        27
24.710        47
24.720        60
24.730        47
24.740        20
24.750        47
24.760        27
24.770        40
24.780        60
24.790        47
24.800        47
24.810        87
24.820        80
24.830        13
24.840        73
24.850        20
24.860        60
24.870        60
24.880        27
24.890        47
24.900        47
24.910        67
24.920        40
24.930       107
24.940        40
24.950        53
24.960        27
24.970        27
24.980        27
24.990        53
25.000        47
25.010        33
25.020        73
25.030        47
25.040        67
25.050        60
25.060        73
25.070        47
25.080        60
25.090        27
25.100        53
25.110        87
25.120        47
25.130        60
25.140        40
25.150        20
25.160        47
25.170        47
25.180        40
25.190        40
25.200        53
25.210        27
25.220        53
25.230        47
25.240        27
25.250        80
25.260        27
25.270        53
25.280        53
25.290        27
25.300        20
25.310        40
25.320        73
25.330        27
25.340        53
25.350        47
25.360        47
25.370        33
25.380        53
25.390        33
25.400        40
25.410        47
25.420        27
25.430        73
25.440        60
25.450        67
25.460        53
25.470        33
25.480        93
25.490        40
25.500        87
25.510        80
25.520        60
25.530        47
25.540        47
25.550        73
25.560        73
25.570        33
25.580        53
25.590        47
25.600        27
25.610        27
25.620        53
25.630        53
25.640        40
25.650        67
25.660        47
25.670        47
25.680        40
25.690        40
25.700        60
25.710        47
25.720        20
25.730        40
25.740        73
25.750        20
25.760        27
25.770        27
25.780        40
25.790        47
25.800        40
25.810        33
25.820        27
25.830        47
25.840        13
25.850        67
25.860        20
25.870        53
25.880        47
25.890        67
25.900        40
25.910        33
25.920        47
25.930        87
25.940        67
25.950        27
25.960        73
25.970        60
25.980        40
25.990        80
26.000        13
26.010        53
26.020        13
26.030        47
26.040        40
26.050        87
26.060        53
26.070        27
26.080        33
26.090        47
26.100        60
26.110        40
26.120        60
26.130        47
26.140       120
26.150        53
26.160        60
26.170        47
26.180        60
26.190        33
26.200        47
26.210        60
26.220       107
26.230        20
26.240        20
26.250        47
26.260        40
26.270        67
26.280        67
26.290        47
26.300        53
26.310        33
26.320        13
26.330        73
26.340        47
26.350        27
26.360        13
26.370        47
26.380        27
26.390        33
26.400        20
26.410        27
26.420        47
26.430        20
26.440        27
26.450        47
26.460        40
26.470        47
26.480        20
26.490        40
26.500        40
26.510        67
26.520        33
26.530        40
26.540        27
26.550        80
26.560        40
26.570        33
26.580        67
26.590        47
26.600        47
26.610        47
26.620        33
26.630        27
26.640        33
26.650        60
26.660        53
26.670        53
26.680        33
26.690        47
26.700        27
26.710        27
26.720        13
26.730        27
26.740        13
26.750        33
26.760        20
26.770        53
26.780        53
26.790        47
26.800        67
26.810        60
26.820        67
26.830        40
26.840        33
26.850        47
26.860        40
26.870        80
26.880        47
26.890        27
26.900        27
26.910        40
26.920        27
26.930        27
26.940        53
26.950        40
26.960        60
26.970        60
26.980        40
26.990        20
27.000        53
27.010        67
27.020        13
27.030        27
27.040        20
27.050        60
27.060        20
27.070        60
27.080        47
27.090        33
27.100        47
27.110        27
27.120        40
27.130        47
27.140        27
27.150        53
27.160        40
27.170        47
27.180        53
27.190        53
27.200        53
27.210        53
27.220        27
27.230        67
27.240        53
27.250        40
27.260        73
27.270        67
27.280        47
27.290        67
27.300        27
27.310        13
27.320        40
27.330        40
27.340        40
27.350        27
27.360        60
27.370        53
27.380        20
27.390        47
27.400        67
27.410        20
27.420        40
27.430        47
27.440        33
27.450        20
27.460        80
27.470        47
27.480        53
27.490        87
27.500        60
27.510        47
27.520        47
27.530        40
27.540        53
27.550        60
27.560        27
27.570        80
27.580        53
27.590        67
27.600        67
27.610        53
27.620        40
27.630        33
27.640        33
27.650        40
27.660        60
27.670        27
27.680        80
27.690        53
27.700        53
27.710        20
27.720        27
27.730        47
27.740        47
27.750        40
27.760        67
27.770        33
27.780        67
27.790        60
27.800        40
27.810        53
27.820        47
27.830        33
27.840        53
27.850        60
27.860        33
27.870        60
27.880         7
27.890        13
27.900        27
27.910        47
27.920        53
27.930        73
27.940        73
27.950        67
27.960        27
27.970        40
27.980       107
27.990        53
28.000        60
28.010        47
28.020        53
28.030        47
28.040        60
28.050        73
28.060        20
28.070        40
28.080        53
28.090        47
28.100        67
28.110        60
28.120        27
28.130        80
28.140        53
28.150        47
28.160        47
28.170        40
28.180        47
28.190        40
28.200        67
28.210        80
28.220        47
28.230        40
28.240        40
28.250        53
28.260        67
28.270        47
28.280        47
28.290        60
28.300        40
28.310        53
28.320        47
28.330        53
28.340        20
28.350        33
28.360        67
28.370        53
28.380        60
28.390        20
28.400        20
28.410        40
28.420        53
28.430        60
28.440        40
28.450        60
28.460        33
28.470        53
28.480        60
28.490        33
28.500        40
28.510        27
28.520        73
28.530        47
28.540        67
28.550        67
28.560        53
28.570        20
28.580        13
28.590        27
28.600        13
28.610        40
28.620        67
28.630        27
28.640        53
28.650        73
28.660        27
28.670        40
28.680        67
28.690        47
28.700        53
28.710        60
28.720        47
28.730        53
28.740        53
28.750        47
28.760        73
28.770        40
28.780        40
28.790        73
28.800        33
28.810        47
28.820        27
28.830        60
28.840        13
28.850        53
28.860        47
28.870        73
28.880        40
28.890        40
28.900        53
28.910        47
28.920        53
28.930        27
28.940        33
28.950        80
28.960        60
28.970        20
28.980        40
28.990        60
29.000        20
29.010        20
29.020        73
29.030        60
29.040        47
29.050        47
29.060        73
29.070        40
29.080        80
29.090        80
29.100        47
29.110        20
29.120        60
29.130        80
29.140        40
29.150        93
29.160        53
29.170        27
29.180        60
29.190        33
29.200        53
29.210        47
29.220        53
29.230        73
29.240        80
29.250        27
29.260        47
29.270        53
29.280        93
29.290         7
29.300        60
29.310        40
29.320        47
29.330        73
29.340        33
29.350        33
29.360        60
29.370        33
29.380        33
29.390        47
29.400        47
29.410        27
29.420        53
29.430        53
29.440        33
29.450        47
29.460        33
29.470        67
29.480        67
29.490        20
29.500        27
29.510        27
29.520        73
29.530        73
29.540        80
29.550        27
29.560        47
29.570        40
29.580        33
29.590        33
29.600        73
29.610        53
29.620        53
29.630        20
29.640        40
29.650        53
29.660        20
29.670        67
29.680        53
29.690        60
29.700        20
29.710        33
29.720        53
29.730        53
29.740        67
29.750        60
29.760        47
29.770        53
29.780        27
29.790        60
29.800       113
29.810        47
29.820        60
29.830        40
29.840        40
29.850        27
29.860        27
29.870        53
29.880        53
29.890        27
29.900        73
29.910        47
29.920        67
29.930        60
29.940        40
29.950        33
29.960        73
29.970        47
29.980        73
29.990        53
30.000        73
30.010        40
30.020        73
30.030        33
30.040        67
30.050        33
30.060        67
30.070        40
30.080        87
30.090        33
30.100        67
30.110        60
30.120        53
30.130        53
30.140         7
30.150        67
30.160        40
30.170        80
30.180        33
30.190        27
30.200        33
30.210        47
30.220        47
30.230        40
30.240         7
30.250        47
30.260        33
30.270        73
30.280        20
30.290        27
30.300        67
30.310        80
30.320        40
30.330        60
30.340        67
30.350        33
30.360        53
30.370        53
30.380        40
30.390        53
30.400        33
30.410        40
30.420        47
30.430        33
30.440        67
30.450        40
30.460        53
30.470        60
30.480        13
30.490        60
30.500        47
30.510        40
30.520        53
30.530        47
30.540        20
30.550        53
30.560        13
30.570        60
30.580        27
30.590        40
30.600        40
30.610        40
30.620        47
30.630        67
30.640        53
30.650        73
30.660        33
30.670        60
30.680        33
30.690        60
30.700        60
30.710        27
30.720        47
30.730        20
30.740        67
30.750        47
30.760        87
30.770        13
30.780        60
30.790        60
30.800        53
30.810        40
30.820        40
30.830         7
30.840        67
30.850        53
30.860        47
30.870        20
30.880         7
30.890        73
30.900        20
30.910        47
30.920        27
30.930        27
30.940        20
30.950        67
30.960        40
30.970        33
30.980        80
30.990        73
31.000        27
31.010        33
31.020        33
31.030        20
31.040        53
31.050        47
31.060        33
31.070        20
31.080        27
31.090        27
31.100        47
31.110        53
31.120        40
31.130        33
31.140        53
31.150        40
31.160        40
31.170        40
31.180        40
31.190        33
31.200        53
31.210        60
31.220        33
31.230        93
31.240        47
31.250        67
31.260        60
31.270        53
31.280        60
31.290        53
31.300        20
31.310        60
31.320        47
31.330        33
31.340        33
31.350        27
31.360        53
31.370        27
31.380        67
31.390        33
31.400        47
31.410        33
31.420        73
31.430        60
31.440        67
31.450        53
31.460        27
31.470        47
31.480        73
31.490        73
31.500        27
31.510        60
31.520        27
31.530        60
31.540        60
31.550        60
31.560       113
31.570        80
31.580        47
31.590        80
31.600        40
31.610        60
31.620        40
31.630        60
31.640        67
31.650        80
31.660        80
31.670        67
31.680        53
31.690        40
31.700        53
31.710       113
31.720        80
31.730       113
31.740        87
31.750        47
31.760       100
31.770        60
31.780        87
31.790        60
31.800        67
31.810        93
31.820       107
31.830        53
31.840       127
31.850        93
31.860        67
31.870        80
31.880        87
31.890        67
31.900       127
31.910       107
31.920        93
31.930        73
31.940       113
31.950       107
31.960        87
31.970       153
31.980       127
31.990       200
32.000       167
32.010       167
32.020       160
32.030        93
32.040       113
32.050       133
32.060       133
32.070       180
32.080       233
32.090       280
32.100       300
32.110       193
32.120       253
32.130       247
32.140       293
32.150       260
32.160       227
32.170       300
32.180       333
32.190       360
32.200       387
32.210       367
32.220       493
32.230       420
32.240       486
32.250       526
32.260       486
32.270       407
32.280       486
32.290       486
32.300       586
32.310       480
32.320       660
32.330       493
32.340       606
32.350       720
32.360       613
32.370       540
32.380       660
32.390       466
32.400       606
32.410       566
32.420       533
32.430       486
32.440       480
32.450       546
32.460       387
32.470       407
32.480       360
32.490       280
32.500       293
32.510       267
32.520       173
32.530       247
32.540       267
32.550       327
32.560       253
32.570       247
32.580       287
32.590       280
32.600       280
32.610       327
32.620       240
32.630       333
32.640       320
32.650       260
32.660       393
32.670       207
32.680       320
32.690       220
32.700       247
32.710       160
32.720       213
32.730       207
32.740       153
32.750       187
32.760       153
32.770       100
32.780       133
32.790       140
32.800       140
32.810        80
32.820        87
32.830       120
32.840        87
32.850       107
32.860        87
32.870        47
32.880        60
32.890        80
32.900        60
32.910        53
32.920       100
32.930       100
32.940        73
32.950        93
32.960        67
32.970        87
32.980        53
32.990        60
33.000        53
33.010        53
33.020        73
33.030        40
33.040        73
33.050        67
33.060        33
33.070        60
33.080        47
33.090        27
33.100        47
33.110        60
33.120        27
33.130        60
33.140        67
33.150        60
33.160        33
33.170        67
33.180        40
33.190        60
33.200        20
33.210        73
33.220        67
33.230        60
33.240        60
33.250        27
33.260        53
33.270        20
33.280        40
33.290        20
33.300        80
33.310        47
33.320        27
33.330        47
33.340        40
33.350        53
33.360        40
33.370        13
33.380        47
33.390        60
33.400        33
33.410        40
33.420        53
33.430        33
33.440        33
33.450        67
33.460        33
33.470        53
33.480        20
33.490        53
33.500        67
33.510        27
33.520        33
33.530        40
33.540        67
33.550        73
33.560        60
33.570        40
33.580        60
33.590        33
33.600        40
33.610        33
33.620        60
33.630        40
33.640        27
33.650        33
33.660        40
33.670        73
33.680        60
33.690        40
33.700        20
33.710        47
33.720        13
33.730        40
33.740        40
33.750        53
33.760        53
33.770        33
33.780        33
33.790        80
33.800        60
33.810        53
33.820        67
33.830        60
33.840        60
33.850        53
33.860        80
33.870        33
33.880        53
33.890        47
33.900        40
33.910        80
33.920        27
33.930        53
33.940        67
33.950        27
33.960        33
33.970        27
33.980        27
33.990        73
34.000        47
34.010        60
34.020        60
34.030        53
34.040        60
34.050        47
34.060        33
34.070        40
34.080        60
34.090        40
34.100        87
34.110        47
34.120        13
34.130        27
34.140        33
34.150        93
34.160        33
34.170        33
34.180        60
34.190        33
34.200        67
34.210        40
34.220        27
34.230        33
34.240        53
34.250        20
34.260        40
34.270        53
34.280        67
34.290        47
34.300        27
34.310        53
34.320        47
34.330        53
34.340        53
34.350        60
34.360        27
34.370        27
34.380        40
34.390        40
34.400        33
34.410        47
34.420        27
34.430        40
34.440        53
34.450        40
34.460        27
34.470        53
34.480        53
34.490        27
34.500        73
34.510        33
34.520        60
34.530        60
34.540        40
34.550        33
34.560        27
34.570        40
34.580        53
34.590        47
34.600        47
34.610        40
34.620        53
34.630        87
34.640        40
34.650        40
34.660        47
34.670        27
34.680        27
34.690        60
34.700        27
34.710        47
34.720        27
34.730        47
34.740        40
34.750        27
34.760        20
34.770        47
34.780        33
34.790        73
34.800        33
34.810         7
34.820        47
34.830        40
34.840        20
34.850        53
34.860        53
34.870        27
34.880        40
34.890        33
34.900        53
34.910        80
34.920        60
34.930        40
34.940        40
34.950        53
34.960        53
34.970        27
34.980        20
34.990        53
35.000        27
35.010        20
35.020        53
35.030        47
35.040        27
35.050        47
35.060        13
35.070        40
35.080        53
35.090        53
35.100        53
35.110        67
35.120        20
35.130        33
35.140        40
35.150        13
35.160        27
35.170        27
35.180        73
35.190        53
35.200        40
35.210        60
35.220        40
35.230        60
35.240        60
35.250        27
35.260        40
35.270        53
35.280        27
35.290        27
35.300        47
35.310        40
35.320        27
35.330        27
35.340        40
35.350        40
35.360        40
35.370        47
35.380        40
35.390        47
35.400        67
35.410        80
35.420        47
35.430        33
35.440        67
35.450        60
35.460        67
35.470        33
35.480        33
35.490        67
35.500        33
35.510        40
35.520        47
35.530        27
35.540        27
35.550        67
35.560        33
35.570        33
35.580        47
35.590        33
35.600        40
35.610        27
35.620        33
35.630        40
35.640        27
35.650        40
35.660        27
35.670        40
35.680        40
35.690        33
35.700        47
35.710        47
35.720        20
35.730        33
35.740        27
35.750        20
35.760        27
35.770        53
35.780        33
35.790         7
35.800        47
35.810        33
35.820        40
35.830        40
35.840        20
35.850        20
35.860        60
35.870        47
35.880        20
35.890        13
35.900        40
35.910        47
35.920        60
35.930        27
35.940        80
35.950        27
35.960        20
35.970        73
35.980        47
35.990        60
36.000        47
36.010        67
36.020        40
36.030        40
36.040        27
36.050        47
36.060        47
36.070        73
36.080        53
36.090        27
36.100        47
36.110        40
36.120        73
36.130        60
36.140        60
36.150        40
36.160        40
36.170        13
36.180        53
36.190        40
36.200        40
36.210        53
36.220        27
36.230        33
36.240        40
36.250        60
36.260        87
36.270        20
36.280        53
36.290        53
36.300        40
36.310        40
36.320        53
36.330        53
36.340        33
36.350        33
36.360        47
36.370        73
36.380        67
36.390        53
36.400        33
36.410        40
36.420        40
36.430        47
36.440         7
36.450        33
36.460        80
36.470        40
36.480        13
36.490        47
36.500        13
36.510        60
36.520        27
36.530        20
36.540        33
36.550        27
36.560        27
36.570         7
36.580        67
36.590        13
36.600        33
36.610        33
36.620        33
36.630        33
36.640        33
36.650        53
36.660        20
36.670        27
36.680        53
36.690        27
36.700        27
36.710        13
36.720        27
36.730        67
36.740        33
36.750        47
36.760        33
36.770        47
36.780        40
36.790        53
36.800        27
36.810        53
36.820        20
36.830        47
36.840        33
36.850        33
36.860        33
36.870        27
36.880        53
36.890        53
36.900        60
36.910         7
36.920        27
36.930        47
36.940        40
36.950        67
36.960        40
36.970        47
36.980        27
36.990        53
37.000        27
37.010        40
37.020        27
37.030        20
37.040        33
37.050        67
37.060        33
37.070        27
37.080        20
37.090        27
37.100         7
37.110        33
37.120        80
37.130        13
37.140        27
37.150        20
37.160        33
37.170        33
37.180        33
37.190        60
37.200        60
37.210        20
37.220        40
37.230        60
37.240        40
37.250        33
37.260        33
37.270        33
37.280        53
37.290        40
37.300        40
37.310        53
37.320        27
37.330        27
37.340        40
37.350        40
37.360        47
37.370        20
37.380        47
37.390        27
37.400        47
37.410        33
37.420        33
37.430        33
37.440        47
37.450        27
37.460        27
37.470        53
37.480        67
37.490        53
37.500        33
37.510        80
37.520        27
37.530        27
37.540        33
37.550        27
37.560        67
37.570        60
37.580        73
37.590        53
37.600        33
37.610        53
37.620        47
37.630        40
37.640        47
37.650        53
37.660        40
37.670        27
37.680        40
37.690        53
37.700        40
37.710        60
37.720        47
37.730        40
37.740        60
37.750        33
37.760        40
37.770        73
37.780        60
37.790        60
37.800        73
37.810        60
37.820        13
37.830        47
37.840        53
37.850        73
37.860        53
37.870        47
37.880        33
37.890        53
37.900        80
37.910        40
37.920        33
37.930        20
37.940        67
37.950        20
37.960        20
37.970        40
37.980        33
37.990        40
38.000        47
38.010       100
38.020        60
38.030        47
38.040       113
38.050        80
38.060        20
38.070        33
38.080        20
38.090        27
38.100        53
38.110        33
38.120        20
38.130        40
38.140        67
38.150        40
38.160        27
38.170        53
38.180        27
38.190        47
38.200        27
38.210        33
38.220        53
38.230        27
38.240        53
38.250        47
38.260        20
38.270        40
38.280        73
38.290        40
38.300        27
38.310        27
38.320        27
38.330        40
38.340        33
38.350        33
38.360        20
38.370        60
38.380        53
38.390        40
38.400        13
38.410        40
38.420         7
38.430        20
38.440        53
38.450        53
38.460        27
38.470        20
38.480        33
38.490        53
38.500        60
38.510        73
38.520        27
38.530        53
38.540        20
38.550        67
38.560        53
38.570        33
38.580        20
38.590        53
38.600        47
38.610        53
38.620        33
38.630        33
38.640        27
38.650        13
38.660        53
38.670        13
38.680        53
38.690        20
38.700        60
38.710        67
38.720        40
38.730        27
38.740        33
38.750        20
38.760        40
38.770        33
38.780        40
38.790        73
38.800        47
38.810        40
38.820        47
38.830        73
38.840        53
38.850        33
38.860        40
38.870        27
38.880        60
38.890        60
38.900        33
38.910        47
38.920        33
38.930        53
38.940        47
38.950        67
38.960        47
38.970        40
38.980        20
38.990        67
39.000        40
39.010        33
39.020        47
39.030        40
39.040        53
39.050        47
39.060        67
39.070        40
39.080        40
39.090        27
39.100        53
39.110        60
39.120        33
39.130        27
39.140        53
39.150        47
39.160        67
39.170        47
39.180         7
39.190        27
39.200        20
39.210         0
39.220        53
39.230        47
39.240        40
39.250        60
39.260        53
39.270        47
39.280        67
39.290        33
39.300        47
39.310        40
39.320        53
39.330        67
39.340        40
39.350        47
39.360        80
39.370        60
39.380        80
39.390        33
39.400        13
39.410        80
39.420        27
39.430        60
39.440        87
39.450        47
39.460        87
39.470        40
39.480        60
39.490        53
39.500        40
39.510        47
39.520        40
39.530        60
39.540        47
39.550        47
39.560        40
39.570        47
39.580        20
39.590        53
39.600        33
39.610        47
39.620        73
39.630        40
39.640        53
39.650        53
39.660        27
39.670        80
39.680        53
39.690        93
39.700        53
39.710        60
39.720        73
39.730        80
39.740        80
39.750        73
39.760        33
39.770        93
39.780        47
39.790        87
39.800       113
39.810        73
39.820        67
39.830       127
39.840        93
39.850        93
39.860       160
39.870       107
39.880       127
39.890       113
39.900       220
39.910       153
39.920       120
39.930       127
39.940       147
39.950       207
39.960       193
39.970       187
39.980       207
39.990       140
40.000       213
40.010       207
40.020       180
40.030       180
40.040       153
40.050       153
40.060       107
40.070       187
40.080       113
40.090       140
40.100       120
40.110        93
40.120        87
40.130       100
40.140        60
40.150        60
40.160       100
40.170        27
40.180        80
40.190        93
40.200        33
40.210        53
40.220        53
40.230        67
40.240        40
40.250        67
40.260        67
40.270        73
40.280        47
40.290        80
40.300        67
40.310        67
40.320        67
40.330        93
40.340        40
40.350        67
40.360        33
40.370        40
40.380        67
40.390        27
40.400        40
40.410        27
40.420        47
40.430        47
40.440        33
40.450       113
40.460        40
40.470        53
40.480        47
40.490        60
40.500        93
40.510        47
40.520        93
40.530        33
40.540        60
40.550        60
40.560        73
40.570        40
40.580        67
40.590        87
40.600        40
40.610        40
40.620        53
40.630        67
40.640        53
40.650        47
40.660        60
40.670        33
40.680        13
40.690        47
40.700        33
40.710        27
40.720        20
40.730        47
40.740        53
40.750        33
40.760        67
40.770        47
40.780        33
40.790        13
40.800        73
40.810        33
40.820        60
40.830        27
40.840        47
40.850        27
40.860        47
40.870        20
40.880        13
40.890        40
40.900        40
40.910        47
40.920        20
40.930        20
40.940        20
40.950        27
40.960        47
40.970        33
40.980        33
40.990        40
41.000        40
41.010        33
41.020        27
41.030        60
41.040        27
41.050        53
41.060        13
41.070        53
41.080        27
41.090        40
41.100        40
41.110        27
41.120        13
41.130        73
41.140        27
41.150        53
41.160        67
41.170        47
41.180        40
41.190        27
41.200        33
41.210        13
41.220        13
41.230        60
41.240        47
41.250        13
41.260        53
41.270        27
41.280        13
41.290        27
41.300        33
41.310        53
41.320        33
41.330        40
41.340        67
41.350        53
41.360        33
41.370        33
41.380        60
41.390        67
41.400        33
41.410        33
41.420        13
41.430        27
41.440        67
41.450        27
41.460        13
41.470        53
41.480        40
41.490        40
41.500        40
41.510        33
41.520        27
41.530        33
41.540        20
41.550        40
41.560        60
41.570        73
41.580        47
41.590        60
41.600        53
41.610        93
41.620        47
41.630        27
41.640        20
41.650        67
41.660        40
41.670        40
41.680        40
41.690        40
41.700        53
41.710        20
41.720        40
41.730        33
41.740        33
41.750        33
41.760        27
41.770        47
41.780        40
41.790        27
41.800        47
41.810        60
41.820         7
41.830        20
41.840        73
41.850        47
41.860        13
41.870        33
41.880        73
41.890        27
41.900        53
41.910        40
41.920        47
41.930        33
41.940        27
41.950        33
41.960        13
41.970        40
41.980         7
41.990        40
42.000        60
42.010        33
42.020        60
42.030        53
42.040        47
42.050        73
42.060         7
42.070        33
42.080        40
42.090         7
42.100        40
42.110        20
42.120        53
42.130        53
42.140        47
42.150        53
42.160        20
42.170        53
42.180        47
42.190        27
42.200        33
42.210        27
42.220        40
42.230        27
42.240        47
42.250        13
42.260        47
42.270        27
42.280        33
42.290        33
42.300        47
42.310        27
42.320        67
42.330        53
42.340        20
42.350        33
42.360        60
42.370        40
42.380        20
42.390        53
42.400        20
42.410        40
42.420        60
42.430        67
42.440        40
42.450         7
42.460        33
42.470        20
42.480         0
42.490         7
42.500        33
42.510        33
42.520        33
42.530        40
42.540        20
42.550        20
42.560        27
42.570        60
42.580        27
42.590        27
42.600        60
42.610        20
42.620        40
42.630        27
42.640        27
42.650        47
42.660        47
42.670        60
42.680        27
42.690        53
42.700        67
42.710        40
42.720        33
42.730        33
42.740        13
42.750        33
42.760        60
42.770        20
42.780        33
42.790        53
42.800        27
42.810        20
42.820        33
42.830        67
42.840        40
42.850        33
42.860        33
42.870        13
42.880        27
42.890        33
42.900        40
42.910        20
42.920        27
42.930         7
42.940        33
42.950        40
42.960        73
42.970        40
42.980        27
42.990        27
43.000        40
43.010        20
43.020        20
43.030        20
43.040        27
43.050        53
43.060        27
43.070        67
43.080        33
43.090        27
43.100        27
43.110        40
43.120        47
43.130        53
43.140        27
43.150        67
43.160        20
43.170        33
43.180        27
43.190        33
43.200        40
43.210        33
43.220        60
43.230        53
43.240        60
43.250         7
43.260        13
43.270        47
43.280        47
43.290        13
43.300        33
43.310        40
43.320        33
43.330        20
43.340        60
43.350        40
43.360        27
43.370        27
43.380        27
43.390        47
43.400        53
43.410        33
43.420        40
43.430        40
43.440        73
43.450        47
43.460        47
43.470        27
43.480        40
43.490        73
43.500        20
43.510        20
43.520        60
43.530        13
43.540        60
43.550        73
43.560        47
43.570        47
43.580        33
43.590        27
43.600        33
43.610        33
43.620        40
43.630         7
43.640        20
43.650        47
43.660        53
43.670        33
43.680        20
43.690        33
43.700        40
43.710        53
43.720        60
43.730        60
43.740        27
43.750        40
43.760        27
43.770        40
43.780        47
43.790        40
43.800        47
43.810        20
43.820        13
43.830        33
43.840        47
43.850        47
43.860        27
43.870        40
43.880        20
43.890        40
43.900        53
43.910        40
43.920        27
43.930        27
43.940        53
43.950        33
43.960        53
43.970        40
43.980        13
43.990        67
44.000        33
44.010        33
44.020        20
44.030        53
44.040        33
44.050        27
44.060        13
44.070        33
44.080        33
44.090         7
44.100        27
44.110        53
44.120        20
44.130        53
44.140        53
44.150        27
44.160        60
44.170        33
44.180        67
44.190        53
44.200        33
44.210        60
44.220        33
44.230        53
44.240       113
44.250        53
44.260        33
44.270        47
44.280        13
44.290        20
44.300        33
44.310        47
44.320        33
44.330        20
44.340        73
44.350        40
44.360        67
44.370        40
44.380        67
44.390        60
44.400        53
44.410        33
44.420        33
44.430        33
44.440        40
44.450        47
44.460        47
44.470        33
44.480        40
44.490        27
44.500        33
44.510        47
44.520        53
44.530        20
44.540        47
44.550        67
44.560        40
44.570        33
44.580        80
44.590        27
44.600        47
44.610        27
44.620        27
44.630        40
44.640        27
44.650        33
44.660        13
44.670        27
44.680        73
44.690        40
44.700        40
44.710        67
44.720        20
44.730        80
44.740        27
44.750        53
44.760        27
44.770        33
44.780        40
44.790        27
44.800        60
44.810        13
44.820        27
44.830        33
44.840        13
44.850        27
44.860        40
44.870         0
44.880        27
44.890        47
44.900        53
44.910        33
44.920        13
44.930        60
44.940        40
44.950        33
44.960        27
44.970        33
44.980        13
44.990        53
45.000        67
45.010        40
45.020        20
45.030        53
45.040        33
45.050        67
45.060        27
45.070        33
45.080        40
45.090        80
45.100        60
45.110        20
45.120        20
45.130        40
45.140        53
45.150        33
45.160        53
45.170        33
45.180        60
45.190        20
45.200        40
45.210        47
45.220        33
45.230        33
45.240        53
45.250        60
45.260        40
45.270        33
45.280        53
45.290        47
45.300        67
45.310        27
45.320        40
45.330        53
45.340        27
45.350        13
45.360        53
45.370        53
45.380        40
45.390        47
45.400        47
45.410        73
45.420        20
45.430        20
45.440        13
45.450        27
45.460        40
45.470        53
45.480        47
45.490        40
45.500        20
45.510        53
45.520        53
45.530        47
45.540        53
45.550        40
45.560        80
45.570        33
45.580        80
45.590        47
45.600        60
45.610        40
45.620        60
45.630        67
45.640        67
45.650        67
45.660        47
45.670        47
45.680        53
45.690        40
45.700       113
45.710        47
45.720        47
45.730        33
45.740        40
45.750        73
45.760        60
45.770        67
45.780        80
45.790        33
45.800        60
45.810        67
45.820        80
45.830       113
45.840        67
45.850        73
45.860        53
45.870        73
45.880        87
45.890        47
45.900        33
45.910        93
45.920        87
45.930        87
45.940        73
45.950        33
45.960        67
45.970       120
45.980        53
45.990       100
46.000        60
46.010        73
46.020       100
46.030       107
46.040        73
46.050        87
46.060        53
46.070        33
46.080        40
46.090        40
46.100        87
46.110        60
46.120        80
46.130       133
46.140       140
46.150        80
46.160        40
46.170        80
46.180        93
46.190       133
46.200       107
46.210        73
46.220        73
46.230        80
46.240        80
46.250       107
46.260        73
46.270        73
46.280       100
46.290       107
46.300        60
46.310       113
46.320        73
46.330        80
46.340        67
46.350       127
46.360       120
46.370       167
46.380       107
46.390       100
46.400       133
46.410       120
46.420       160
46.430       133
46.440       147
46.450       147
46.460        87
46.470       187
46.480       120
46.490       127
46.500       227
46.510       180
46.520       220
46.530       167
46.540       207
46.550       173
46.560       260
46.570       227
46.580       247
46.590       333
46.600       247
46.610       300
46.620       253
46.630       227
46.640       233
46.650       253
46.660       193
46.670       187
46.680       173
46.690       247
46.700       260
46.710       153
46.720       213
46.730       240
46.740       133
46.750       200
46.760       260
46.770       127
46.780       187
46.790       100
46.800       107
46.810       120
46.820       107
46.830       107
46.840        67
46.850        40
46.860       100
46.870        80
46.880        53
46.890        47
46.900        80
46.910        67
46.920        60
46.930        53
46.940        53
46.950        60
46.960        27
46.970        20
46.980        47
46.990        60
47.000        40
47.010        60
47.020        47
47.030        53
47.040        20
47.050        13
47.060        60
47.070        40
47.080        40
47.090        40
47.100        47
47.110        33
47.120        40
47.130        53
47.140        20
47.150        27
47.160        40
47.170        40
47.180        27
47.190        33
47.200        53
47.210        33
47.220        67
47.230        53
47.240        53
47.250        40
47.260        33
47.270        67
47.280        13
47.290        47
47.300        47
47.310        53
47.320        60
47.330        27
47.340        40
47.350        33
47.360        40
47.370        53
47.380        60
47.390        20
47.400        60
47.410        47
47.420        60
47.430        60
47.440        27
47.450        33
47.460        40
47.470        20
47.480        33
47.490        53
47.500        60
47.510        60
47.520        20
47.530        47
47.540        67
47.550        47
47.560        33
47.570        60
47.580        47
47.590        60
47.600        27
47.610        20
47.620        67
47.630        53
47.640        40
47.650        60
47.660        27
47.670        40
47.680        33
47.690        60
47.700         7
47.710        27
47.720        27
47.730        40
47.740        47
47.750        13
47.760        27
47.770        47
47.780        20
47.790        53
47.800        53
47.810         7
47.820        40
47.830        47
47.840        47
47.850        33
47.860        60
47.870        67
47.880        53
47.890        60
47.900        47
47.910        47
47.920        20
47.930        80
47.940        40
47.950        60
47.960        27
47.970        20
47.980        27
47.990        27
48.000        33
48.010        53
48.020        47
48.030        27
48.040        60
48.050        20
48.060        47
48.070        53
48.080        87
48.090        47
48.100        87
48.110        13
48.120        33
48.130        40
48.140        27
48.150        53
48.160        47
48.170        13
48.180        33
48.190        27
48.200        40
48.210        60
48.220         7
48.230        47
48.240        33
48.250        20
48.260        47
48.270        73
48.280        20
48.290        40
48.300        27
48.310        80
48.320         7
48.330        47
48.340        27
48.350        47
48.360        40
48.370         7
48.380        27
48.390        40
48.400        33
48.410        47
48.420        40
48.430        20
48.440        60
48.450        53
48.460        33
48.470        13
48.480        27
48.490        20
48.500        53
48.510        20
48.520        27
48.530        13
48.540        47
48.550        60
48.560        20
48.570        27
48.580        33
48.590        40
48.600        27
48.610        40
48.620        27
48.630        27
48.640        53
48.650        33
48.660        53
48.670        40
48.680        47
48.690        33
48.700        33
48.710        40
48.720        60
48.730        33
48.740        20
48.750        20
48.760        40
48.770        33
48.780        73
48.790         7
48.800        60
48.810        20
48.820        53
48.830        20
48.840        67
48.850        67
48.860        67
48.870        33
48.880        27
48.890        33
48.900        60
48.910        33
48.920        40
48.930        27
48.940        47
48.950        33
48.960        47
48.970        53
48.980        40
48.990        73
49.000        27
49.010        53
49.020        53
49.030        47
49.040        67
49.050        33
49.060        60
49.070        27
49.080        20
49.090        13
49.100        20
49.110        53
49.120        20
49.130        27
49.140        40
49.150        67
49.160        73
49.170        13
49.180        33
49.190        27
49.200        27
49.210        40
49.220        27
49.230        27
49.240        27
49.250        33
49.260        27
49.270        13
49.280        60
49.290        13
49.300        40
49.310        40
49.320        33
49.330        60
49.340        33
49.350        47
49.360        33
49.370        47
49.380        60
49.390        13
49.400        20
49.410         0
49.420        13
49.430        33
49.440        33
49.450        40
49.460        33
49.470        20
49.480        33
49.490        27
49.500        13
49.510        20
49.520        60
49.530        47
49.540        33
49.550        67
49.560        67
49.570        13
49.580        40
49.590        73
49.600        20
49.610        33
49.620        20
49.630        40
49.640        53
49.650        20
49.660        47
49.670        40
49.680        27
49.690        47
49.700        13
49.710        13
49.720        27
49.730        53
49.740        73
49.750        60
49.760        60
49.770        27
49.780        40
49.790        13
49.800        20
49.810        53
49.820        27
49.830         7
49.840        20
49.850        53
49.860        53
49.870        53
49.880        33
49.890        40
49.900        20
49.910        40
49.920        27
49.930        27
49.940        47
49.950         7
49.960        33
49.970        20
49.980        27
49.990        20
50.000        20
50.010        47
50.020        60
50.030        40
50.040        40
50.050        60
50.060        60
50.070        27
50.080        27
50.090        33
50.100        27
50.110        20
50.120        47
50.130        47
50.140        47
50.150        73
50.160        20
50.170        33
50.180         7
50.190        53
50.200        27
50.210        47
50.220        33
50.230        40
50.240        40
50.250        40
50.260        67
50.270        27
50.280        33
50.290        33
50.300        73
50.310        47
50.320        27
50.330        33
50.340        47
50.350        33
50.360        67
50.370        33
50.380        33
50.390        60
50.400        33
50.410        27
50.420        60
50.430        27
50.440        87
50.450        27
50.460        27
50.470        27
50.480        27
50.490        20
50.500        40
50.510        33
50.520        27
50.530        40
50.540        27
50.550        27
50.560        33
50.570        27
50.580        67
50.590        13
50.600        27
50.610        33
50.620        53
50.630        33
50.640        33
50.650        53
50.660        47
50.670        53
50.680        40
50.690        33
50.700        47
50.710        27
50.720        13
50.730        33
50.740        47
50.750        33
50.760        20
50.770        27
50.780        33
50.790        33
50.800        27
50.810        13
50.820        40
50.830        40
50.840        20
50.850        47
50.860        47
50.870        60
50.880        53
50.890        27
50.900        33
50.910        40
50.920        47
50.930        13
50.940        40
50.950        73
50.960        27
50.970        53
50.980        33
50.990        33
51.000        33
51.010        20
51.020        20
51.030        60
51.040        27
51.050        40
51.060        13
51.070        47
51.080        27
51.090        40
51.100        80
51.110        67
51.120        47
51.130        40
51.140        53
51.150        40
51.160        60
51.170        47
51.180        47
51.190        47
51.200        40
51.210        53
51.220        47
51.230        33
51.240        40
51.250        20
51.260        53
51.270        33
51.280        60
51.290        27
51.300        60
51.310        60
51.320        33
51.330        40
51.340        60
51.350        33
51.360        27
51.370        67
51.380        20
51.390        47
51.400        87
51.410        33
51.420        27
51.430        40
51.440        20
51.450        53
51.460        67
51.470        33
51.480        40
51.490        47
51.500        40
51.510        67
51.520        33
51.530        40
51.540        33
51.550        27
51.560        53
51.570        47
51.580        33
51.590        53
51.600        47
51.610        40
51.620        33
51.630        60
51.640        47
51.650       107
51.660        53
51.670        40
51.680        53
51.690        67
51.700        33
51.710        47
51.720        40
51.730        27
51.740        87
51.750        33
51.760        40
51.770        33
51.780        33
51.790        73
51.800        40
51.810        73
51.820        53
51.830        27
51.840        47
51.850        47
51.860        27
51.870        20
51.880        67
51.890        33
51.900        33
51.910        60
51.920        67
51.930        53
51.940        40
51.950        33
51.960        60
51.970        53
51.980        87
51.990        40
52.000        67
52.010        33
52.020        40
52.030        47
52.040        47
52.050        47
52.060        87
52.070        53
52.080        73
52.090        53
52.100        53
52.110        73
52.120        53
52.130        47
52.140        67
52.150        67
52.160        87
52.170        53
52.180        60
52.190        27
52.200        53
52.210        60
52.220        33
52.230        40
52.240        53
52.250        80
52.260        80
52.270        33
52.280        40
52.290        67
52.300        53
52.310        73
52.320        73
52.330        73
52.340       113
52.350       113
52.360        73
52.370        53
52.380        80
52.390        73
52.400        53
52.410        47
52.420        60
52.430       107
52.440        87
52.450        13
52.460        53
52.470        40
52.480        47
52.490        53
52.500        27
52.510        60
52.520        20
52.530        27
52.540        67
52.550        67
52.560        67
52.570        27
52.580        27
52.590        33
52.600        47
52.610        53
52.620        47
52.630        40
52.640        40
52.650        33
52.660        20
52.670        73
52.680        33
52.690        67
52.700        73
52.710        53
52.720        40
52.730        40
52.740        40
52.750        33
52.760        47
52.770        73
52.780        47
52.790        53
52.800        40
52.810        27
52.820        40
52.830        53
52.840        40
52.850        93
52.860        33
52.870        20
52.880        80
52.890        47
52.900        47
52.910        40
52.920        33
52.930        47
52.940        53
52.950        53
52.960        40
52.970        13
52.980        47
52.990        27
53.000        33
53.010        40
53.020        47
53.030        53
53.040        20
53.050        27
53.060        33
53.070        33
53.080        27
53.090        53
53.100         0
53.110        47
53.120        67
53.130        20
53.140        53
53.150        33
53.160        47
53.170        33
53.180        53
53.190        13
53.200        27
53.210        20
53.220        27
53.230        27
53.240        20
53.250        20
53.260        33
53.270        13
53.280        33
53.290        13
53.300        33
53.310        47
53.320        20
53.330        27
53.340        20
53.350        33
53.360        33
53.370        33
53.380        27
53.390        40
53.400        40
53.410        27
53.420        33
53.430        20
53.440        33
53.450        20
53.460        20
53.470        20
53.480        13
53.490        33
53.500        47
53.510        53
53.520        53
53.530        27
53.540        53
53.550        53
53.560        13
53.570        20
53.580        67
53.590        27
53.600        40
53.610        40
53.620        27
53.630        53
53.640        47
53.650        47
53.660         7
53.670        27
53.680        40
53.690        47
53.700        20
53.710        20
53.720        13
53.730        60
53.740        60
53.750        40
53.760        33
53.770        40
53.780        40
53.790        33
53.800        53
53.810        40
53.820        33
53.830        67
53.840        47
53.850        27
53.860        40
53.870        27
53.880        27
53.890        20
53.900        47
53.910        20
53.920        40
53.930        33
53.940         7
53.950        33
53.960        27
53.970        60
53.980        53
53.990        20
54.000        20
54.010        33
54.020        13
54.030        33
54.040        47
54.050        53
54.060         0
54.070        33
54.080        33
54.090        20
54.100        33
54.110        13
54.120        20
54.130        53
54.140        60
54.150        47
54.160        73
54.170        67
54.180        20
54.190         7
54.200        33
54.210        40
54.220        33
54.230        27
54.240        20
54.250        27
54.260        33
54.270        33
54.280        33
54.290        27
54.300        67
54.310        20
54.320        20
54.330        20
54.340        40
54.350        20
54.360        40
54.370        53
54.380        40
54.390        33
54.400        33
54.410        80
54.420        20
54.430        20
54.440        33
54.450        47
54.460        33
54.470        33
54.480        60
54.490        73
54.500        27
54.510        47
54.520        40
54.530        27
54.540        47
54.550        27
54.560        60
54.570        27
54.580        20
54.590        53
54.600        40
54.610         7
54.620        40
54.630        67
54.640        27
54.650        40
54.660        13
54.670        67
54.680        27
54.690        40
54.700        33
54.710        20
54.720        20
54.730        47
54.740        47
54.750        13
54.760        53
54.770        33
54.780        40
54.790        20
54.800        40
54.810        53
54.820        40
54.830        33
54.840        13
54.850        20
54.860        60
54.870        33
54.880        13
54.890        27
54.900        47
54.910        53
54.920        47
54.930        27
54.940        27
54.950         7
54.960         0
54.970        40
54.980        53
54.990         7
55.000        40
55.010        20
55.020        33
55.030        73
55.040        33
55.050        27
55.060        47
55.070        27
55.080        20
55.090        27
55.100        47
55.110        40
55.120        67
55.130        33
55.140        47
55.150        27
55.160        20
55.170        53
55.180        20
55.190        47
55.200        53
55.210        47
55.220        33
55.230        40
55.240        40
55.250        60
55.260        27
55.270        33
55.280        27
55.290        27
55.300        27
55.310        13
55.320        40
55.330        33
55.340        40
55.350        53
55.360        47
55.370        33
55.380        60
55.390        60
55.400        53
55.410        20
55.420        33
55.430        47
55.440        27
55.450        20
55.460        40
55.470        33
55.480        27
55.490        47
55.500        33
55.510        33
55.520        40
55.530        33
55.540        67
55.550        27
55.560        40
55.570        40
55.580        27
55.590        27
55.600        20
55.610        47
55.620        33
55.630        27
55.640        60
55.650        47
55.660        27
55.670        33
55.680        47
55.690        27
55.700        47
55.710        33
55.720        40
55.730        13
55.740        60
55.750        13
55.760        33
55.770        20
55.780        40
55.790        47
55.800        53
55.810        27
55.820        27
55.830        33
55.840        27
55.850        47
55.860        33
55.870        47
55.880        27
55.890        40
55.900        20
55.910        47
55.920        33
55.930        33
55.940        20
55.950        67
55.960        47
55.970        27
55.980        27
55.990        53
56.000        20
56.010        60
56.020        47
56.030        33
56.040        60
56.050        27
56.060        33
56.070        47
56.080        40
56.090        27
56.100        20
56.110         7
56.120        53
56.130        20
56.140        20
56.150        67
56.160        13
56.170        53
56.180        27
56.190        20
56.200        40
56.210        60
56.220        40
56.230        27
56.240        13
56.250        27
56.260        33
56.270        27
56.280        33
56.290        53
56.300        47
56.310        80
56.320        33
56.330        47
56.340        53
56.350        47
56.360        40
56.370        27
56.380        47
56.390        13
56.400        40
56.410        27
56.420         7
56.430        47
56.440        27
56.450        47
56.460        40
56.470        33
56.480        47
56.490        20
56.500        53
56.510        40
56.520         7
56.530        13
56.540         7
56.550        27
56.560        60
56.570        53
56.580        33
56.590        53
56.600        53
56.610        60
56.620        53
56.630        40
56.640        33
56.650        47
56.660        27
56.670        33
56.680        40
56.690        20
56.700        87
56.710        27
56.720        87
56.730        47
56.740        33
56.750        27
56.760        60
56.770        20
56.780        73
56.790        47
56.800        20
56.810        73
56.820        40
56.830        73
56.840        33
56.850        27
56.860        20
56.870        40
56.880        53
56.890        67
56.900        47
56.910        67
56.920        80
56.930        20
56.940        40
56.950        47
56.960        20
56.970        47
56.980        60
56.990        47
57.000        73
57.010        60
57.020        67
57.030        13
57.040        53
57.050        27
57.060        60
57.070        73
57.080        40
57.090        47
57.100        33
57.110        60
57.120        27
57.130        40
57.140        80
57.150        60
57.160        33
57.170        40
57.180        33
57.190        87
57.200        73
57.210        60
57.220        47
57.230        53
57.240        93
57.250        80
57.260        60
57.270        73
57.280        40
57.290        40
57.300        60
57.310        47
57.320        53
57.330        47
57.340        20
57.350        87
57.360        80
57.370        93
57.380        80
57.390        93
57.400       107
57.410       107
57.420        67
57.430        53
57.440        73
57.450        80
57.460        93
57.470       100
57.480       107
57.490        93
57.500       100
57.510        93
57.520       113
57.530        53
57.540       113
57.550        87
57.560        47
57.570       180
57.580       113
57.590       100
57.600       107
57.610        87
57.620        87
57.630       193
57.640       153
57.650       127
57.660        93
57.670       193
57.680       200
57.690       213
57.700       173
57.710       153
57.720       167
57.730       160
57.740       160
57.750       200
57.760       187
57.770       113
57.780       160
57.790       133
57.800       167
57.810       153
57.820       213
57.830       260
57.840       200
57.850       213
57.860       233
57.870       293
57.880       213
57.890       227
57.900       233
57.910       220
57.920       153
57.930       273
57.940       167
57.950       233
57.960       180
57.970       160
57.980       113
57.990       227
58.000       127
58.010       113
58.020       140
58.030       140
58.040       167
58.050       120
58.060       173
58.070       127
58.080        93
58.090       120
58.100       107
58.110       127
58.120       107
58.130        67
58.140        93
58.150       120
58.160        87
58.170        73
58.180        87
58.190       113
58.200        93
58.210        93
58.220       127
58.230        80
58.240        53
58.250        47
58.260        93
58.270        93
58.280       107
58.290        67
58.300        47
58.310        73
58.320        60
58.330        73
58.340        53
58.350        67
58.360        67
58.370        80
58.380        93
58.390        47
58.400        53
58.410       127
58.420        93
58.430        80
58.440        47
58.450       100
58.460       100
58.470       127
58.480        93
58.490        93
58.500        53
58.510        93
58.520        47
58.530       113
58.540        27
58.550        87
58.560        40
58.570        87
58.580        67
58.590        67
58.600        47
58.610        87
58.620        47
58.630        93
58.640        47
58.650        60
58.660        67
58.670        67
58.680        73
58.690        53
58.700        33
58.710        27
58.720        40
58.730        40
58.740        67
58.750        13
58.760        20
58.770        47
58.780        20
58.790        60
58.800        60
58.810        47
58.820        60
58.830        87
58.840        67
58.850        27
58.860        87
58.870        73
58.880        73
58.890        73
58.900        47
58.910        20
58.920        47
58.930        33
58.940        27
58.950        27
58.960        67
58.970        47
58.980        53
58.990        47
59.000        40
59.010         7
59.020        33
59.030        60
59.040        47
59.050        53
59.060        27
59.070        33
59.080        33
59.090        60
59.100        33
59.110        13
59.120        40
59.130        47
59.140        20
59.150        20
59.160        27
59.170        27
59.180        53
59.190        13
59.200        47
59.210        40
59.220        47
59.230        40
59.240        60
59.250        47
59.260        47
59.270        13
59.280        47
59.290        47
59.300        47
59.310        40
59.320        47
59.330        47
59.340        27
59.350        40
59.360        13
59.370        20
59.380        67
59.390        67
59.400        20
59.410        33
59.420        27
59.430        40
59.440        73
59.450        47
59.460        20
59.470        40
59.480        13
59.490        40
59.500        27
59.510        40
59.520        27
59.530        20
59.540        27
59.550        53
59.560        27
59.570        27
59.580        33
59.590        27
59.600        40
59.610        27
59.620        33
59.630        20
59.640        27
59.650        27
59.660        33
59.670        47
59.680        40
59.690        33
59.700        27
59.710        27
59.720        33
59.730        60
59.740        27
59.750        40
59.760        40
59.770        20
59.780        33
59.790        20
59.800        73
59.810        20
59.820        27
59.830        33
59.840        40
59.850        40
59.860        33
59.870        33
59.880        40
59.890        47
59.900        53
59.910        40
59.920        20
59.930        27
59.940        33
59.950        20
59.960        33
59.970        33
59.980        13
59.990        20
60.000        20
