20.000        40
20.010        53
20.020        33
20.030        53
20.040        40
20.050        40
20.060       100
20.070        33
20.080        67
20.090        33
20.100        60
20.110        40
20.120        53
20.130        73
20.140        33
20.150        53
20.160        67
20.170        53
20.180        53
20.190        93
20.200        60
20.210        53
20.220        47
20.230        60
20.240        53
20.250        87
20.260        60
20.270        60
20.280        27
20.290        80
20.300        53
20.310        13
20.320        73
20.330        47
20.340        73
20.350        60
20.360        27
20.370        47
20.380        20
20.390        60
20.400        20
20.410        87
20.420        13
20.430        67
20.440        60
20.450        60
20.460        20
20.470        60
20.480        53
20.490        47
20.500        67
20.510        60
20.520        27
20.530        40
20.540        93
20.550        40
20.560        33
20.570        67
20.580        67
20.590        40
20.600        73
20.610        13
20.620        53
20.630        33
20.640        73
20.650        93
20.660        47
20.670        73
20.680        27
20.690        67
20.700        47
20.710        33
20.720        67
20.730        33
20.740        53
20.750         0
20.760        40
20.770        80
20.780        60
20.790        53
20.800        60
20.810        47
20.820        80
20.830        67
20.840        67
20.850        27
20.860        33
20.870       120
20.880        47
20.890        67
20.900        73
20.910        60
20.920        60
20.930        47
20.940        93
20.950        40
20.960        53
20.970        40
20.980        53
20.990        27
21.000        47
21.010        47
21.020        73
21.030        93
21.040        47
21.050        60
21.060        60
21.070        40
21.080        60
21.090        53
21.100        60
21.110        40
21.120        33
21.130        87
21.140        93
21.150        60
21.160        80
21.170        33
21.180        40
21.190        53
21.200        93
21.210        60
21.220        33
21.230        60
21.240        47
21.250        33
21.260        47
21.270        67
21.280        73
21.290        60
21.300        47
21.310        73
21.320        53
21.330        53
21.340        53
21.350        33
21.360        33
21.370        53
21.380        60
21.390        67
21.400        40
21.410        40
21.420        60
21.430        40
21.440        60
21.450        60
21.460        87
21.470        67
21.480        20
21.490        93
21.500        53
21.510        40
21.520        60
21.530        20
21.540        40
21.550        27
21.560        47
21.570        73
21.580        40
21.590        20
21.600        93
21.610        27
21.620        80
21.630        47
21.640        47
21.650        47
21.660        60
21.670        60
21.680        53
21.690        67
21.700        40
21.710        73
21.720        53
21.730        80
21.740        53
21.750        13
21.760        53
21.770        27
21.780        27
21.790        60
21.800        47
21.810        53
21.820        53
21.830        53
21.840        47
21.850        53
21.860        40
21.870        33
21.880        33
21.890        47
21.900        60
21.910        33
21.920        40
21.930        33
21.940        60
21.950        67
21.960        60
21.970        67
21.980        47
21.990        53
22.000        47
22.010        67
22.020        60
22.030        33
22.040       107
22.050        73
22.060        73
22.070        20
22.080        33
22.090        40
22.100        33
22.110        73
22.120        93
22.130        93
22.140        53
22.150        40
22.160        27
22.170        53
22.180        47
22.190        40
22.200        73
22.210        27
22.220        33
22.230        87
22.240        67
22.250        73
22.260        33
22.270        53
22.280        87
22.290        53
22.300        67
22.310        53
22.320        67
22.330        73
22.340        73
22.350        47
22.360        60
22.370        20
22.380       100
22.390        53
22.400        60
22.410        87
22.420        33
22.430        60
22.440        80
22.450       113
22.460        67
22.470        73
22.480        67
22.490        60
22.500        53
22.510        87
22.520       107
22.530        80
22.540       100
22.550        40
22.560        73
22.570        73
22.580       100
22.590        87
22.600        73
22.610        87
22.620       107
22.630       107
22.640        73
22.650       107
22.660       113
22.670       120
22.680       133
22.690        87
22.700       120
22.710        60
22.720       107
22.730        67
22.740       100
22.750       120
22.760        80
22.770       100
22.780       100
22.790        93
22.800       107
22.810        60
22.820        80
22.830        80
22.840        73
22.850        87
22.860       100
22.870        53
22.880        53
22.890        93
22.900        53
22.910        60
22.920        80
22.930        73
22.940        67
22.950        33
22.960        73
22.970        87
22.980        27
22.990        80
23.000        40
23.010        53
23.020        53
23.030        67
23.040       100
23.050        73
23.060        40
23.070        73
23.080        60
23.090        47
23.100        53
23.110        33
23.120        33
23.130        67
23.140       107
23.150        87
23.160        20
23.170        87
23.180        60
23.190        53
23.200        47
23.210        53
23.220        27
23.230        33
23.240        53
23.250        47
23.260        27
23.270        47
23.280        27
23.290        47
23.300        13
23.310        47
23.320        27
23.330        60
23.340        20
23.350        60
23.360        20
23.370        73
23.380        53
23.390        47
23.400        47
23.410        53
23.420        33
23.430        33
23.440        53
23.450        53
23.460        67
23.470        60
23.480        47
23.490        53
23.500        20
23.510        73
23.520        27
23.530        13
23.540        40
23.550        60
23.560        40
23.570        40
23.580        47
23.590        53
23.600        67
23.610        47
23.620        13
23.630        33
23.640        20
23.650        47
23.660        33
23.670        60
23.680        33
23.690        60
23.700        33
23.710        53
23.720        53
23.730        67
23.740        33
23.750        53
23.760        47
23.770        27
23.780        33
23.790        33
23.800        33
23.810        53
23.820        40
23.830        73
23.840        33
23.850        47
23.860        33
23.870        60
23.880        67
23.890        27
23.900        53
23.910        67
23.920        53
23.930        53
23.940        33
23.950        47
23.960        47
23.970        20
23.980        53
23.990        67
24.000        47
24.010         7
24.020        93
24.030        13
24.040        60
24.050        40
24.060        67
24.070        13
24.080        53
24.090       100
24.100        67
24.110        40
24.120        67
24.130        33
24.140        27
24.150        53
24.160        53
24.170        73
24.180        33
24.190        40
24.200        60
24.210        53
24.220        73
24.230        47
24.240        53
24.250        60
24.260        67
24.270        27
24.280        33
24.290        80
24.300        27
24.310        33
24.320        40
24.330        47
24.340        60
24.350        40
24.360        73
24.370        53
24.380        67
24.390        47
24.400        73
24.410       100
24.420        47
24.430        27
24.440        53
24.450        53
24.460        67
24.470        13
24.480        40
24.490        67
24.500        67
24.510        67
24.520        47
24.530        13
24.540        47
24.550        67
24.560        60
24.570        73
24.580        67
24.590        13
24.600        47
24.610        47
24.620        27
24.630        40
24.640        47
24.650        80
24.660        40
24.670        40
24.680        13
24.690        40
24.700        80
24.710        33
24.720        53
24.730        40
24.740        67
24.750        73
24.760        80
24.770        60
24.780        53
24.790        47
24.800        27
24.810        47
24.820        67
24.830        80
24.840        47
24.850        33
24.860        40
24.870        33
24.880        40
24.890        40
24.900        60
24.910        47
24.920        33
24.930        47
24.940        47
24.950        27
24.960        60
24.970        33
24.980        47
24.990        40
25.000        67
25.010        33
25.020        47
25.030        60
25.040        27
25.050        33
25.060        40
25.070        40
25.080        60
25.090        20
25.100        47
25.110        33
25.120        47
25.130        47
25.140        47
25.150         7
25.160        40
25.170        20
25.180        33
25.190        27
25.200        40
25.210        53
25.220        27
25.230        27
25.240        47
25.250        67
25.260        47
25.270        60
25.280        47
25.290        40
25.300        13
25.310        53
25.320        53
25.330        27
25.340        53
25.350        53
25.360        40
25.370        47
25.380        33
25.390        40
25.400        20
25.410        40
25.420        40
25.430        53
25.440        40
25.450        80
25.460        40
25.470        40
25.480        13
25.490        87
25.500        40
25.510        53
25.520        67
25.530        20
25.540        47
25.550        13
25.560        20
25.570        27
25.580        93
25.590        27
25.600        40
25.610        27
25.620        67
25.630        47
25.640        53
25.650        33
25.660        27
25.670        27
25.680        53
25.690        53
25.700        53
25.710        33
25.720        47
25.730        53
25.740        40
25.750        53
25.760        40
25.770        80
25.780        47
25.790        13
25.800        60
25.810        53
25.820        67
25.830        67
25.840         7
25.850        47
25.860        53
25.870        53
25.880        53
25.890        93
25.900        80
25.910        33
25.920        60
25.930        60
25.940        60
25.950        47
25.960        93
25.970        67
25.980        33
25.990        53
26.000        40
26.010        40
26.020        40
26.030        67
26.040        27
26.050        67
26.060        33
26.070        67
26.080        47
26.090        47
26.100        80
26.110        47
26.120        40
26.130        47
26.140        47
26.150        40
26.160        73
26.170        20
26.180        33
26.190        47
26.200        93
26.210        73
26.220        47
26.230        40
26.240        47
26.250        80
26.260        67
26.270        20
26.280        40
26.290        40
26.300        80
26.310        53
26.320        33
26.330        40
26.340        60
26.350        47
26.360        73
26.370        53
26.380        60
26.390        20
26.400        40
26.410        53
26.420        20
26.430        53
26.440        60
26.450        53
26.460        53
26.470        60
26.480        73
26.490        53
26.500        47
26.510        40
26.520        73
26.530        47
26.540        27
26.550        33
26.560        60
26.570        33
26.580        27
26.590        33
26.600        33
26.610        47
26.620        33
26.630        73
26.640        60
26.650        47
26.660        60
26.670        47
26.680        87
26.690        80
26.700        40
26.710        40
26.720        47
26.730        47
26.740        33
26.750        33
26.760        87
26.770        27
26.780        60
26.790        47
26.800        53
26.810        40
26.820        33
26.830        47
26.840        40
26.850        40
26.860        33
26.870        53
26.880        53
26.890        53
26.900        20
26.910        13
26.920        27
26.930        13
26.940        80
26.950         7
26.960        47
26.970        40
26.980        40
26.990        40
27.000        40
27.010        20
27.020        67
27.030        27
27.040         7
27.050        53
27.060        47
27.070        33
27.080        47
27.090        27
27.100        40
27.110        47
27.120        33
27.130        33
27.140        60
27.150        40
27.160        53
27.170        47
27.180        60
27.190        60
27.200        47
27.210        67
27.220        33
27.230        80
27.240        53
27.250        67
27.260        47
27.270        20
27.280        33
27.290        47
27.300        40
27.310        40
27.320        53
27.330        80
27.340        73
27.350        40
27.360        47
27.370        80
27.380        53
27.390        47
27.400        60
27.410        53
27.420       100
27.430        53
27.440        53
27.450        20
27.460        73
27.470        27
27.480        47
27.490        67
27.500        53
27.510        67
27.520        13
27.530        27
27.540        60
27.550        40
27.560        93
27.570        40
27.580        53
27.590        27
27.600        20
27.610        40
27.620        27
27.630        47
27.640        27
27.650        40
27.660        33
27.670        53
27.680        47
27.690        47
27.700        47
27.710        27
27.720        60
27.730        33
27.740        60
27.750        40
27.760        20
27.770        33
27.780        33
27.790        27
27.800        33
27.810        47
27.820        47
27.830        60
27.840        27
27.850        60
27.860        27
27.870        60
27.880        33
27.890        33
27.900        80
27.910        40
27.920        27
27.930        33
27.940        33
27.950        40
27.960        60
27.970        20
27.980        20
27.990        80
28.000        60
28.010        60
28.020        60
28.030        40
28.040        67
28.050        87
28.060        13
28.070        20
28.080        20
28.090        60
28.100        73
28.110        67
28.120        47
28.130        27
28.140        53
28.150        60
28.160        40
28.170        40
28.180        53
28.190        40
28.200        40
28.210        40
28.220        53
28.230        20
28.240        47
28.250        47
28.260        33
28.270        73
28.280        33
28.290        53
28.300        47
28.310        40
28.320        27
28.330        40
28.340        33
28.350        40
28.360        53
28.370        53
28.380        27
28.390        40
28.400        60
28.410        47
28.420        20
28.430        53
28.440        40
28.450        33
28.460        33
28.470        33
28.480        40
28.490        33
28.500        27
28.510        40
28.520        33
28.530        40
28.540        60
28.550        67
28.560        40
28.570        33
28.580        47
28.590        93
28.600        60
28.610        40
28.620        20
28.630        40
28.640        47
28.650        33
28.660        40
28.670        53
28.680        60
28.690        20
28.700        47
28.710        33
28.720        40
28.730        53
28.740        40
28.750        33
28.760        40
28.770        33
28.780        80
28.790        47
28.800        53
28.810        33
28.820        33
28.830        80
28.840        40
28.850        47
28.860        40
28.870        60
28.880        33
28.890        80
28.900        33
28.910        60
28.920        33
28.930        20
28.940        53
28.950        40
28.960        27
28.970        47
28.980        40
28.990        47
29.000        47
29.010        47
29.020        40
29.030        60
29.040        73
29.050        27
29.060        40
29.070        73
29.080        53
29.090        47
29.100        40
29.110        53
29.120        27
29.130        53
29.140        47
29.150        67
29.160        53
29.170        60
29.180        40
29.190        93
29.200        53
29.210        47
29.220        73
29.230        20
29.240        53
29.250        47
29.260        67
29.270        13
29.280        20
29.290        47
29.300        33
29.310        53
29.320        87
29.330        33
29.340        27
29.350        53
29.360        40
29.370        73
29.380        27
29.390        47
29.400        47
29.410        33
29.420        47
29.430        47
29.440        47
29.450        33
29.460        40
29.470         7
29.480        47
29.490        33
29.500        40
29.510        60
29.520        33
29.530        47
29.540        47
29.550        60
29.560        60
29.570         0
29.580        53
29.590        20
29.600        47
29.610        47
29.620        47
29.630        33
29.640         7
29.650        40
29.660        33
29.670        33
29.680        47
29.690        47
29.700        47
29.710        60
29.720        47
29.730        40
29.740        47
29.750        20
29.760        47
29.770        47
29.780        33
29.790        73
29.800        60
29.810        93
29.820        53
29.830        73
29.840        93
29.850        33
29.860        53
29.870        67
29.880        40
29.890        33
29.900        60
29.910        47
29.920        53
29.930        33
29.940        80
29.950        47
29.960        40
29.970        20
29.980        33
29.990        73
30.000        67
30.010        33
30.020        40
30.030        40
30.040        87
30.050        33
30.060       113
30.070        67
30.080        13
30.090        33
30.100        33
30.110        60
30.120        87
30.130        40
30.140        33
30.150        33
30.160        20
30.170        73
30.180        47
30.190        40
30.200        33
30.210        53
30.220        47
30.230        53
30.240        20
30.250        40
30.260        40
30.270        53
30.280        33
30.290        47
30.300        47
30.310        80
30.320        60
30.330        27
30.340        47
30.350        47
30.360        40
30.370        47
30.380        40
30.390        80
30.400        40
30.410        33
30.420        20
30.430        33
30.440        13
30.450        47
30.460        53
30.470        33
30.480        60
30.490        33
30.500        33
30.510        47
30.520        33
30.530        40
30.540        33
30.550        53
30.560        73
30.570        13
30.580        87
30.590        20
30.600        40
30.610        33
30.620        80
30.630        33
30.640        47
30.650        40
30.660        67
30.670        47
30.680        60
30.690        47
30.700        33
30.710        33
30.720        40
30.730        80
30.740        47
30.750        27
30.760        60
30.770        73
30.780        33
30.790        73
30.800        40
30.810        27
30.820         7
30.830        40
30.840        40
30.850        40
30.860        40
30.870        40
30.880        53
30.890        40
30.900        20
30.910        60
30.920        27
30.930        27
30.940        33
30.950        40
30.960        33
30.970        33
30.980        53
30.990        53
31.000        27
31.010       107
31.020        33
31.030        67
31.040        33
31.050        20
31.060        47
31.070        33
31.080        33
31.090        27
31.100        67
31.110        27
31.120       100
31.130        67
31.140        53
31.150        47
31.160        27
31.170        40
31.180        73
31.190        80
31.200        60
31.210        20
31.220        33
31.230        40
31.240        27
31.250        13
31.260        33
31.270        53
31.280        47
31.290        13
31.300        60
31.310        67
31.320        53
31.330        67
31.340        67
31.350        73
31.360        67
31.370        80
31.380        60
31.390        47
31.400        47
31.410        27
31.420        73
31.430        60
31.440        53
31.450        60
31.460        40
31.470        73
31.480        47
31.490        33
31.500        47
31.510        67
31.520        67
31.530        47
31.540        47
31.550        87
31.560       113
31.570        40
31.580        47
31.590        53
31.600        40
31.610        53
31.620        47
31.630        40
31.640        87
31.650        67
31.660        80
31.670        20
31.680        67
31.690        60
31.700        67
31.710        60
31.720       113
31.730        80
31.740        93
31.750        60
31.760        73
31.770        60
31.780       120
31.790       127
31.800        73
31.810        80
31.820       133
31.830        60
31.840        80
31.850       120
31.860        93
31.870        93
31.880       133
31.890        73
31.900        87
31.910       160
31.920       153
31.930        93
31.940       127
31.950       140
31.960       120
31.970       213
31.980       207
31.990       153
32.000       187
32.010       173
32.020       240
32.030       233
32.040       267
32.050       240
32.060       180
32.070       220
32.080       347
32.090       313
32.100       240
32.110       327
32.120       327
32.130       273
32.140       373
32.150       433
32.160       367
32.170       426
32.180       446
32.190       413
32.200       407
32.210       513
32.220       466
32.230       540
32.240       560
32.250       646
32.260       606
32.270       600
32.280       666
32.290       626
32.300       586
32.310       520
32.320       580
32.330       506
32.340       513
32.350       460
32.360       460
32.370       413
32.380       460
32.390       393
32.400       340
32.410       360
32.420       313
32.430       313
32.440       247
32.450       200
32.460       327
32.470       233
32.480       193
32.490       220
32.500       147
32.510       227
32.520       227
32.530       287
32.540       200
32.550       280
32.560       260
32.570       240
32.580       167
32.590       280
32.600       253
32.610       313
32.620       207
32.630       233
32.640       300
32.650       320
32.660       227
32.670       280
32.680       233
32.690       220
32.700       153
32.710       167
32.720       147
32.730       173
32.740       160
32.750       153
32.760        80
32.770        80
32.780       113
32.790        80
32.800        93
32.810        73
32.820        93
32.830       113
32.840        60
32.850        60
32.860        60
32.870        73
32.880        73
32.890        53
32.900        47
32.910        60
32.920        67
32.930        67
32.940        27
32.950        53
32.960        33
32.970        47
32.980        53
32.990        33
33.000        53
33.010        60
33.020        93
33.030        13
33.040        40
33.050        93
33.060        60
33.070        80
33.080        33
33.090        60
33.100        53
33.110        53
33.120        53
33.130        47
33.140        47
33.150        40
33.160        20
33.170        47
33.180        53
33.190        33
33.200        73
33.210        80
33.220        53
33.230        60
33.240        33
33.250        60
33.260        47
33.270        53
33.280        33
33.290        40
33.300        40
33.310        53
33.320        60
33.330        53
33.340        33
33.350        80
33.360        27
33.370        53
33.380        47
33.390        27
33.400        13
33.410        40
33.420        33
33.430        67
33.440        27
33.450        53
33.460        33
33.470        67
33.480        20
33.490        40
33.500        53
33.510        73
33.520        53
33.530        60
33.540        33
33.550        47
33.560        67
33.570        67
33.580        93
33.590        27
33.600        40
33.610        47
33.620        53
33.630        20
33.640        67
33.650         7
33.660        33
33.670        20
33.680        53
33.690        53
33.700        33
33.710        47
33.720        53
33.730        47
33.740        40
33.750        27
33.760        80
33.770        20
33.780        53
33.790        27
33.800        33
33.810        40
33.820        27
33.830        47
33.840        53
33.850        27
33.860        53
33.870        27
33.880        53
33.890        27
33.900        40
33.910        60
33.920        40
33.930        40
33.940        47
33.950        13
33.960        33
33.970        47
33.980        33
33.990        40
34.000        40
34.010        40
34.020        27
34.030        53
34.040        20
34.050        40
34.060        67
34.070        53
34.080        13
34.090        47
34.100        60
34.110        27
34.120        20
34.130        87
34.140        53
34.150        53
34.160        40
34.170        53
34.180        60
34.190        20
34.200        27
34.210        53
34.220        47
34.230        53
34.240        27
34.250        47
34.260        40
34.270        20
34.280        13
34.290        47
34.300        47
34.310        47
34.320        60
34.330        40
34.340        47
34.350        13
34.360        47
34.370        47
34.380        47
34.390        67
34.400        53
34.410        40
34.420        33
34.430        47
34.440        13
34.450        13
34.460        40
34.470        73
34.480        93
34.490        40
34.500        60
34.510        40
34.520        33
34.530        53
34.540        40
34.550        40
34.560        20
34.570        27
34.580        33
34.590        20
34.600         7
34.610        13
34.620        33
34.630        33
34.640        27
34.650        40
34.660        27
34.670        47
34.680        40
34.690        40
34.700         0
34.710        53
34.720        20
34.730        40
34.740        60
34.750        27
34.760        20
34.770        20
34.780        47
34.790        47
34.800        67
34.810        27
34.820        53
34.830        60
34.840        13
34.850        33
34.860        27
34.870        53
34.880        27
34.890        47
34.900        40
34.910        53
34.920        53
34.930        53
34.940        27
34.950        60
34.960        53
34.970        33
34.980         7
34.990        53
35.000        53
35.010        47
35.020        53
35.030        53
35.040        33
35.050        40
35.060        33
35.070        40
35.080        40
35.090        40
35.100        27
35.110        40
35.120        47
35.130        40
35.140        27
35.150        20
35.160        20
35.170        67
35.180        33
35.190        27
35.200        40
35.210        13
35.220        60
35.230        40
35.240        53
35.250        73
35.260        47
35.270        47
35.280        67
35.290        33
35.300        60
35.310        27
35.320        33
35.330        13
35.340        20
35.350        40
35.360        67
35.370        60
35.380        47
35.390        33
35.400        20
35.410        60
35.420        40
35.430        47
35.440        33
35.450        40
35.460        20
35.470        53
35.480         7
35.490        53
35.500        87
35.510        53
35.520        60
35.530        20
35.540        40
35.550        53
35.560        60
35.570        33
35.580        40
35.590        60
35.600        40
35.610        40
35.620        20
35.630        20
35.640        67
35.650        40
35.660        53
35.670        27
35.680        40
35.690        47
35.700        40
35.710        40
35.720        47
35.730        47
35.740        60
35.750        33
35.760        20
35.770        27
35.780        33
35.790        33
35.800        33
35.810        53
35.820        33
35.830        33
35.840        67
35.850        13
35.860        33
35.870        47
35.880        13
35.890        60
35.900        53
35.910        53
35.920        40
35.930        53
35.940        33
35.950        53
35.960        87
35.970        20
35.980        40
35.990        47
36.000        20
36.010        60
36.020        73
36.030        47
36.040        27
36.050        27
36.060        20
36.070        60
36.080        27
36.090        40
36.100        13
36.110         7
36.120        20
36.130        67
36.140        53
36.150        33
36.160        40
36.170        27
36.180        13
36.190        53
36.200        27
36.210        47
36.220        27
36.230        33
36.240        67
36.250        40
36.260         0
36.270         7
36.280        53
36.290        33
36.300        27
36.310        47
36.320        47
36.330        20
36.340        20
36.350        20
36.360        20
36.370        13
36.380        33
36.390        27
36.400        27
36.410        47
36.420        67
36.430        20
36.440        40
36.450        27
36.460        53
36.470        27
36.480        20
36.490        73
36.500        60
36.510        80
36.520        53
36.530        67
36.540        40
36.550        47
36.560        20
36.570        27
36.580        47
36.590        20
36.600        47
36.610        27
36.620        67
36.630        27
36.640        60
36.650        47
36.660        27
36.670        73
36.680        40
36.690        47
36.700        13
36.710        47
36.720        27
36.730        53
36.740        53
36.750        40
36.760        33
36.770        33
36.780        47
36.790        20
36.800        47
36.810        27
36.820        20
36.830        53
36.840        33
36.850        33
36.860        27
36.870        27
36.880        60
36.890        13
36.900        80
36.910        47
36.920        13
36.930        33
36.940        27
36.950        33
36.960        13
36.970        73
36.980        53
36.990        47
37.000        53
37.010        13
37.020        33
37.030        13
37.040        27
37.050        20
37.060        33
37.070        27
37.080        20
37.090        33
37.100        33
37.110        60
37.120        27
37.130        20
37.140        60
37.150        60
37.160        13
37.170        67
37.180        80
37.190        27
37.200        27
37.210         0
37.220        27
37.230        40
37.240        27
37.250        33
37.260        93
37.270        27
37.280        73
37.290        27
37.300        27
37.310        40
37.320        27
37.330        40
37.340        80
37.350        20
37.360        13
37.370        60
37.380        33
37.390        27
37.400        47
37.410        27
37.420        20
37.430        13
37.440        33
37.450        27
37.460        13
37.470        20
37.480        13
37.490        47
37.500        27
37.510        27
37.520        33
37.530        53
37.540        47
37.550        47
37.560        33
37.570        20
37.580        20
37.590        13
37.600        40
37.610        33
37.620        40
37.630        47
37.640        53
37.650        33
37.660        13
37.670        27
37.680        13
37.690        20
37.700        27
37.710        73
37.720        47
37.730        40
37.740        53
37.750        47
37.760        60
37.770        33
37.780        20
37.790        60
37.800        40
37.810        60
37.820        13
37.830        13
37.840        40
37.850        53
37.860         7
37.870        13
37.880        47
37.890        13
37.900        47
37.910        47
37.920        33
37.930        67
37.940        20
37.950        60
37.960        60
37.970        33
37.980        53
37.990        47
38.000        33
38.010        47
38.020        33
38.030        47
38.040        40
38.050        67
38.060        40
38.070        60
38.080        60
38.090        27
38.100        40
38.110        33
38.120        27
38.130        20
38.140        73
38.150        40
38.160        60
38.170        40
38.180        27
38.190        20
38.200        27
38.210        40
38.220        27
38.230        47
38.240        27
38.250        67
38.260        13
38.270        40
38.280       100
38.290        53
38.300        67
38.310        67
38.320        27
38.330        33
38.340        53
38.350        47
38.360        13
38.370        53
38.380        40
38.390        40
38.400        13
38.410        60
38.420        40
38.430        20
38.440        67
38.450        60
38.460        80
38.470        53
38.480        73
38.490        27
38.500        60
38.510        27
38.520        53
38.530        27
38.540        80
38.550        33
38.560        53
38.570        53
38.580        60
38.590        27
38.600        60
38.610        47
38.620        40
38.630        40
38.640        47
38.650        53
38.660        47
38.670        40
38.680        20
38.690        60
38.700        53
38.710        60
38.720        93
38.730        13
38.740        60
38.750        13
38.760        27
38.770        33
38.780        60
38.790        47
38.800        27
38.810        47
38.820        33
38.830        53
38.840        33
38.850        33
38.860        27
38.870        53
38.880        60
38.890        20
38.900        20
38.910        40
38.920        60
38.930        40
38.940        53
38.950        33
38.960        33
38.970        13
38.980        40
38.990        47
39.000        13
39.010        47
39.020        53
39.030        20
39.040        33
39.050        33
39.060        33
39.070        20
39.080        47
39.090        20
39.100        33
39.110        33
39.120        47
39.130        27
39.140        53
39.150        60
39.160        67
39.170        40
39.180        47
39.190        33
39.200        60
39.210        27
39.220        60
39.230        53
39.240        60
39.250        27
39.260        20
39.270        40
39.280        60
39.290        33
39.300        47
39.310        33
39.320        87
39.330        47
39.340        40
39.350        60
39.360        60
39.370        40
39.380        33
39.390        67
39.400        53
39.410        40
39.420        53
39.430        40
39.440        47
39.450        53
39.460        80
39.470        47
39.480       107
39.490        53
39.500        53
39.510        47
39.520        67
39.530        60
39.540        53
39.550        73
39.560        60
39.570        47
39.580        73
39.590        87
39.600        93
39.610        67
39.620        73
39.630        67
39.640        40
39.650        73
39.660        53
39.670        33
39.680        27
39.690        87
39.700       107
39.710       127
39.720        80
39.730        40
39.740        73
39.750        73
39.760        93
39.770        73
39.780       127
39.790       120
39.800       120
39.810       100
39.820       120
39.830       153
39.840       187
39.850       107
39.860       140
39.870       187
39.880       253
39.890       200
39.900       187
39.910       167
39.920       213
39.930       247
39.940       160
39.950       167
39.960       140
39.970       213
39.980       187
39.990       153
40.000       147
40.010       140
40.020       100
40.030       107
40.040       133
40.050       100
40.060        73
40.070        73
40.080        67
40.090        80
40.100        53
40.110        53
40.120        67
40.130        60
40.140       100
40.150        67
40.160        53
40.170        87
40.180        60
40.190        40
40.200        20
40.210        73
40.220        40
40.230        47
40.240        20
40.250        53
40.260        47
40.270        47
40.280        20
40.290        47
40.300        67
40.310        67
40.320        33
40.330        47
40.340        87
40.350        67
40.360        67
40.370        53
40.380        53
40.390        80
40.400        40
40.410        67
40.420        40
40.430        27
40.440        53
40.450        67
40.460       100
40.470        67
40.480        60
40.490        53
40.500       107
40.510        87
40.520        13
40.530        53
40.540        40
40.550        20
40.560        27
40.570        53
40.580       113
40.590        40
40.600        13
40.610        20
40.620        33
40.630        47
40.640        47
40.650        13
40.660        20
40.670        60
40.680        33
40.690        40
40.700        53
40.710        20
40.720        40
40.730        33
40.740        33
40.750        47
40.760        27
40.770        47
40.780        13
40.790        47
40.800        47
40.810        60
40.820        47
40.830        33
40.840        20
40.850        53
40.860        20
40.870        40
40.880        67
40.890        40
40.900        67
40.910        27
40.920        13
40.930        27
40.940        80
40.950        33
40.960        13
40.970        33
40.980       100
40.990        60
41.000        33
41.010        53
41.020        27
41.030        53
41.040        53
41.050        33
41.060        60
41.070        27
41.080        27
41.090        53
41.100        47
41.110        53
41.120        27
41.130        40
41.140        20
41.150        53
41.160        27
41.170        47
41.180        47
41.190        60
41.200        33
41.210        20
41.220        13
41.230        40
41.240        60
41.250        47
41.260        27
41.270        33
41.280        27
41.290        40
41.300        20
41.310        27
41.320        27
41.330        47
41.340        40
41.350        40
41.360        47
41.370        47
41.380        47
41.390        27
41.400        33
41.410        60
41.420        80
41.430        40
41.440        20
41.450        27
41.460        27
41.470        60
41.480        60
41.490        33
41.500        33
41.510        47
41.520        27
41.530        47
41.540        47
41.550        40
41.560        27
41.570        67
41.580        13
41.590        20
41.600        67
41.610        33
41.620        27
41.630        40
41.640        33
41.650        40
41.660        53
41.670        27
41.680        33
41.690        27
41.700        80
41.710        27
41.720        53
41.730        33
41.740        27
41.750        33
41.760        73
41.770        40
41.780        40
41.790        47
41.800        40
41.810        53
41.820        47
41.830        33
41.840        20
41.850        33
41.860        33
41.870        20
41.880        53
41.890        60
41.900        53
41.910        27
41.920        60
41.930        53
41.940        60
41.950        33
41.960        27
41.970        67
41.980        53
41.990        20
42.000        60
42.010        53
42.020        20
42.030        40
42.040        13
42.050         7
42.060        60
42.070        33
42.080        13
42.090        20
42.100        27
42.110        33
42.120        13
42.130        27
42.140        33
42.150        27
42.160        33
42.170        80
42.180        60
42.190        20
42.200        33
42.210        33
42.220        47
42.230        40
42.240        40
42.250        47
42.260        33
42.270        13
42.280        20
42.290        47
42.300        47
42.310        33
42.320        33
42.330        40
42.340        53
42.350        33
42.360        47
42.370        73
42.380        67
42.390        47
42.400        27
42.410        33
42.420        33
42.430        40
42.440        53
42.450        67
42.460        53
42.470        13
42.480        20
42.490        33
42.500        53
42.510        20
42.520        67
42.530        47
42.540        13
42.550        33
42.560        13
42.570        27
42.580        40
42.590        13
42.600        33
42.610        60
42.620        40
42.630        33
42.640         7
42.650        40
42.660        27
42.670        20
42.680        13
42.690         7
42.700        27
42.710        60
42.720        40
42.730        73
42.740        13
42.750        47
42.760        33
42.770        47
42.780        73
42.790        40
42.800        60
42.810        27
42.820        33
42.830        47
42.840        60
42.850        20
42.860        33
42.870        47
42.880        47
42.890        20
42.900        33
42.910        27
42.920        47
42.930        47
42.940        27
42.950        47
42.960        40
42.970        53
42.980        27
42.990        20
43.000        20
43.010        20
43.020        47
43.030        20
43.040        33
43.050        53
43.060        47
43.070        53
43.080        33
43.090        33
43.100        60
43.110        27
43.120        73
43.130        53
43.140        20
43.150        73
43.160         7
43.170        67
43.180        60
43.190        53
43.200        47
43.210        20
43.220        47
43.230        73
43.240        27
43.250        40
43.260        33
43.270        60
43.280        53
43.290        33
43.300        47
43.310        47
43.320        27
43.330        33
43.340        20
43.350        40
43.360        47
43.370        60
43.380        27
43.390        47
43.400        13
43.410        20
43.420        33
43.430        33
43.440        27
43.450        27
43.460        67
43.470        27
43.480        13
43.490        40
43.500        27
43.510        27
43.520        40
43.530        33
43.540        53
43.550        67
43.560        20
43.570        67
43.580        27
43.590        53
43.600        20
43.610        33
43.620        47
43.630        53
43.640        47
43.650        13
43.660        67
43.670        20
43.680        40
43.690        60
43.700         7
43.710        27
43.720        47
43.730        40
43.740        33
43.750        33
43.760        67
43.770        47
43.780        33
43.790        20
43.800        27
43.810        13
43.820         7
43.830        47
43.840        13
43.850        20
43.860         7
43.870        47
43.880        20
43.890        40
43.900        40
43.910        33
43.920        33
43.930        53
43.940        27
43.950        73
43.960        27
43.970        47
43.980        47
43.990        47
44.000        33
44.010        53
44.020        60
44.030        27
44.040        27
44.050        40
44.060        33
44.070        40
44.080        53
44.090        53
44.100        53
44.110        53
44.120        33
44.130        33
44.140        40
44.150        33
44.160        40
44.170        53
44.180        53
44.190        53
44.200        27
44.210        33
44.220        53
44.230        33
44.240        60
44.250        60
44.260         0
44.270        40
44.280         7
44.290        40
44.300         7
44.310        27
44.320        27
44.330        47
44.340        33
44.350        33
44.360        53
44.370        13
44.380        27
44.390        27
44.400        67
44.410        60
44.420        40
44.430        20
44.440        20
44.450        47
44.460        40
44.470        40
44.480        47
44.490        27
44.500        13
44.510        27
44.520        33
44.530        47
44.540        40
44.550        33
44.560         7
44.570        40
44.580        60
44.590        93
44.600        40
44.610        47
44.620        47
44.630        27
44.640        20
44.650        40
44.660        13
44.670        47
44.680        47
44.690        33
44.700        67
44.710        40
44.720        27
44.730        33
44.740        27
44.750        40
44.760        40
44.770        47
44.780        40
44.790        47
44.800        40
44.810        40
44.820        53
44.830        27
44.840        20
44.850        27
44.860        27
44.870        33
44.880        33
44.890        53
44.900        73
44.910        27
44.920        40
44.930        33
44.940        33
44.950        47
44.960        33
44.970        40
44.980        47
44.990        13
45.000        33
45.010        13
45.020        53
45.030        60
45.040        53
45.050        33
45.060        33
45.070        20
45.080        67
45.090        13
45.100        27
45.110        53
45.120        13
45.130        40
45.140        27
45.150        73
45.160        67
45.170        33
45.180        20
45.190        47
45.200        40
45.210        47
45.220        47
45.230        60
45.240        47
45.250        20
45.260        47
45.270        27
45.280        47
45.290        53
45.300        47
45.310        33
45.320        47
45.330        27
45.340        33
45.350        53
45.360        27
45.370        67
45.380        40
45.390        27
45.400        53
45.410        40
45.420        60
45.430        53
45.440        47
45.450        47
45.460         7
45.470        53
45.480       107
45.490        60
45.500        53
45.510        33
45.520        87
45.530        47
45.540        47
45.550        67
45.560        60
45.570        87
45.580        47
45.590        27
45.600        47
45.610        53
45.620        33
45.630        67
45.640        73
45.650        27
45.660        47
45.670        53
45.680        47
45.690        47
45.700        47
45.710        53
45.720        53
45.730        73
45.740        80
45.750        60
45.760        53
45.770        33
45.780        93
45.790        67
45.800        73
45.810        80
45.820        40
45.830        73
45.840        87
45.850        87
45.860        40
45.870        67
45.880        73
45.890        93
45.900        87
45.910        73
45.920        60
45.930        53
45.940        87
45.950        73
45.960        87
45.970        67
45.980        67
45.990        80
46.000        60
46.010        53
46.020       107
46.030       100
46.040        60
46.050        53
46.060        73
46.070        80
46.080       120
46.090        93
46.100        53
46.110        93
46.120        80
46.130        87
46.140       147
46.150        93
46.160        53
46.170        93
46.180        87
46.190       100
46.200        60
46.210       113
46.220        87
46.230       133
46.240       107
46.250       113
46.260        87
46.270       127
46.280        60
46.290       127
46.300       153
46.310       120
46.320       147
46.330       107
46.340       113
46.350       120
46.360       113
46.370       147
46.380        93
46.390       160
46.400       173
46.410       160
46.420       153
46.430       173
46.440       187
46.450       193
46.460       173
46.470       107
46.480       200
46.490       160
46.500       220
46.510       173
46.520       213
46.530       200
46.540       247
46.550       260
46.560       173
46.570       280
46.580       233
46.590       233
46.600       207
46.610       213
46.620       220
46.630       193
46.640       140
46.650       220
46.660       167
46.670       193
46.680       167
46.690       180
46.700       133
46.710       213
46.720        93
46.730       113
46.740        60
46.750       113
46.760        87
46.770        80
46.780        53
46.790       127
46.800       133
46.810        73
46.820        40
46.830        87
46.840        80
46.850        53
46.860        73
46.870        13
46.880        53
46.890        73
46.900        73
46.910        53
46.920        53
46.930        40
46.940        47
46.950        33
46.960        80
46.970        53
46.980        47
46.990        47
47.000        47
47.010        33
47.020        47
47.030        53
47.040        53
47.050        53
47.060        13
47.070        53
47.080        40
47.090        33
47.100        20
47.110        40
47.120        27
47.130        60
47.140        27
47.150        47
47.160        47
47.170        60
47.180        20
47.190        60
47.200        40
47.210        67
47.220        60
47.230        80
47.240        40
47.250        20
47.260        27
47.270        13
47.280        40
47.290        73
47.300        47
47.310        40
47.320        80
47.330        40
47.340        40
47.350        40
47.360        20
47.370        20
47.380        60
47.390        47
47.400        67
47.410        27
47.420        47
47.430        40
47.440        27
47.450        33
47.460        33
47.470        53
47.480        40
47.490        47
47.500        40
47.510        47
47.520        53
47.530        47
47.540        20
47.550        27
47.560        47
47.570        53
47.580        40
47.590         7
47.600        27
47.610        33
47.620        47
47.630        60
47.640        27
47.650        60
47.660        67
47.670        67
47.680        33
47.690        20
47.700        33
47.710        33
47.720        33
47.730        47
47.740        33
47.750        60
47.760        60
47.770        60
47.780        67
47.790        40
47.800        47
47.810        40
47.820        47
47.830         7
47.840        40
47.850        33
47.860        40
47.870        13
47.880        20
47.890        60
47.900        47
47.910        33
47.920        47
47.930        47
47.940        13
47.950        13
47.960        13
47.970        47
47.980        47
47.990        33
48.000        27
48.010        13
48.020        40
48.030        40
48.040        33
48.050        33
48.060        33
48.070        53
48.080        27
48.090        27
48.100        20
48.110        33
48.120        27
48.130        40
48.140        47
48.150        20
48.160        60
48.170        73
48.180        40
48.190        53
48.200        60
48.210        53
48.220         7
48.230        27
48.240        47
48.250        33
48.260        53
48.270        47
48.280        40
48.290        27
48.300        20
48.310        27
48.320        20
48.330        47
48.340        33
48.350        27
48.360        53
48.370        27
48.380         7
48.390        33
48.400        27
48.410        13
48.420        27
48.430        47
48.440        27
48.450        13
48.460        40
48.470        27
48.480        27
48.490        33
48.500        40
48.510        53
48.520        27
48.530        33
48.540        27
48.550        53
48.560        33
48.570        40
48.580        27
48.590        40
48.600        40
48.610        33
48.620        27
48.630        27
48.640        40
48.650        20
48.660        33
48.670        27
48.680        80
48.690        60
48.700        47
48.710        40
48.720        33
48.730        33
48.740        60
48.750        40
48.760        33
48.770        40
48.780        20
48.790        13
48.800        47
48.810        13
48.820        53
48.830        20
48.840        20
48.850        33
48.860        40
48.870        40
48.880        13
48.890        33
48.900         7
48.910        27
48.920        33
48.930        27
48.940        20
48.950        27
48.960        40
48.970        27
48.980        40
48.990        27
49.000        40
49.010        27
49.020        53
49.030        40
49.040        33
49.050         7
49.060        60
49.070        27
49.080        33
49.090        60
49.100         7
49.110        20
49.120        20
49.130        67
49.140        53
49.150        20
49.160        47
49.170        20
49.180        13
49.190        47
49.200        27
49.210        20
49.220        60
49.230        33
49.240        13
49.250        27
49.260        20
49.270        13
49.280        53
49.290        27
49.300        27
49.310        47
49.320        67
49.330        53
49.340        20
49.350        13
49.360        53
49.370        47
49.380        20
49.390        47
49.400        20
49.410        47
49.420        60
49.430        27
49.440        33
49.450        20
49.460        53
49.470        53
49.480        33
49.490        40
49.500        47
49.510        33
49.520        13
49.530        33
49.540        53
49.550        27
49.560        20
49.570        27
49.580        33
49.590        60
49.600        53
49.610        40
49.620        33
49.630        40
49.640        20
49.650        20
49.660        33
49.670        47
49.680        33
49.690        40
49.700        20
49.710        60
49.720        73
49.730        40
49.740        47
49.750        27
49.760        20
49.770        47
49.780        40
49.790        33
49.800        20
49.810        60
49.820        53
49.830        40
49.840        47
49.850        33
49.860        33
49.870        20
49.880        33
49.890        20
49.900        20
49.910        13
49.920        13
49.930        47
49.940        60
49.950        40
49.960        13
49.970        33
49.980        40
49.990         7
50.000        53
50.010        13
50.020        60
50.030        47
50.040        13
50.050        33
50.060        33
50.070        20
50.080        27
50.090        53
50.100        27
50.110        33
50.120        33
50.130        20
50.140         7
50.150        27
50.160        53
50.170        27
50.180        47
50.190        13
50.200        60
50.210        47
50.220        47
50.230        40
50.240        20
50.250        40
50.260        53
50.270        60
50.280        40
50.290        53
50.300        40
50.310        33
50.320        40
50.330        27
50.340        33
50.350        33
50.360        33
50.370         7
50.380        60
50.390        27
50.400        27
50.410        33
50.420        13
50.430        20
50.440         7
50.450        20
50.460        33
50.470        40
50.480        47
50.490        27
50.500        13
50.510        40
50.520        53
50.530        27
50.540        33
50.550        47
50.560        40
50.570        27
50.580        33
50.590         7
50.600        40
50.610        40
50.620        40
50.630        27
50.640        53
50.650        40
50.660        33
50.670        47
50.680        73
50.690        27
50.700        53
50.710        40
50.720        33
50.730        47
50.740        53
50.750        20
50.760        53
50.770        40
50.780        27
50.790        33
50.800        33
50.810        20
50.820        47
50.830        20
50.840        40
50.850        27
50.860        20
50.870        33
50.880        33
50.890        47
50.900        40
50.910        33
50.920        20
50.930        53
50.940        33
50.950        27
50.960        27
50.970        40
50.980        20
50.990        33
51.000        27
51.010        13
51.020        53
51.030        40
51.040        20
51.050        20
51.060        33
51.070        20
51.080        13
51.090        53
51.100        40
51.110        53
51.120        40
51.130        67
51.140        27
51.150        33
51.160        33
51.170        27
51.180        40
51.190        33
51.200        20
51.210        13
51.220        27
51.230        27
51.240        13
51.250        13
51.260        47
51.270        20
51.280        60
51.290        33
51.300        47
51.310        67
51.320        67
51.330        33
51.340        27
51.350        40
51.360        33
51.370        67
51.380        20
51.390        33
51.400        20
51.410        27
51.420        33
51.430        27
51.440        20
51.450        33
51.460        47
51.470        20
51.480        13
51.490        53
51.500        13
51.510        33
51.520        13
51.530        67
51.540        67
51.550        20
51.560        27
51.570        67
51.580        47
51.590        60
51.600        47
51.610        40
51.620        27
51.630        13
51.640        33
51.650        20
51.660         7
51.670        60
51.680        47
51.690        67
51.700        40
51.710        60
51.720        67
51.730        40
51.740        33
51.750        60
51.760        40
51.770        27
51.780        67
51.790        80
51.800        40
51.810        40
51.820       100
51.830        40
51.840        47
51.850        60
51.860        27
51.870        27
51.880        47
51.890        53
51.900        60
51.910        40
51.920        53
51.930        53
51.940        20
51.950        40
51.960        33
51.970        47
51.980        73
51.990        47
52.000        53
52.010        40
52.020        87
52.030        27
52.040        60
52.050       107
52.060        47
52.070        33
52.080        67
52.090        67
52.100        33
52.110        53
52.120       100
52.130        67
52.140        73
52.150        53
52.160        60
52.170        73
52.180        40
52.190        60
52.200        73
52.210        47
52.220        87
52.230        47
52.240        47
52.250        73
52.260        40
52.270        60
52.280        67
52.290        93
52.300        60
52.310        67
52.320        60
52.330        47
52.340        53
52.350        27
52.360        33
52.370        60
52.380        60
52.390        73
52.400        40
52.410        60
52.420        27
52.430        47
52.440        47
52.450        20
52.460        33
52.470        60
52.480        53
52.490        20
52.500        60
52.510        60
52.520        60
52.530        47
52.540        33
52.550        53
52.560        73
52.570        27
52.580        53
52.590        80
52.600        47
52.610        33
52.620        33
52.630        20
52.640        47
52.650        33
52.660        80
52.670        47
52.680        47
52.690        33
52.700        47
52.710        47
52.720        53
52.730        40
52.740        73
52.750        33
52.760        73
52.770        47
52.780        60
52.790        53
52.800        73
52.810        47
52.820        27
52.830        47
52.840        13
52.850        33
52.860        47
52.870        40
52.880        40
52.890        73
52.900        47
52.910        60
52.920         7
52.930        60
52.940        33
52.950        80
52.960        27
52.970        27
52.980        40
52.990        40
53.000        60
53.010        67
53.020        40
53.030        27
53.040        33
53.050        33
53.060        20
53.070        53
53.080        40
53.090        47
53.100        13
53.110        33
53.120        53
53.130        33
53.140        40
53.150        53
53.160        53
53.170        33
53.180        47
53.190        40
53.200        20
53.210        73
53.220         7
53.230        13
53.240        33
53.250        87
53.260        33
53.270        27
53.280        53
53.290        27
53.300        27
53.310        20
53.320        33
53.330        27
53.340        13
53.350        27
53.360        33
53.370        53
53.380        67
53.390         7
53.400         7
53.410        40
53.420        27
53.430        47
53.440        33
53.450        27
53.460        47
53.470        20
53.480        27
53.490         7
53.500        60
53.510        20
53.520        40
53.530        47
53.540        47
53.550        27
53.560         7
53.570        33
53.580        33
53.590        33
53.600         7
53.610        33
53.620        67
53.630        40
53.640        33
53.650        27
53.660        40
53.670        47
53.680        47
53.690        20
53.700        53
53.710        27
53.720        73
53.730        53
53.740        20
53.750        27
53.760        27
53.770        27
53.780        20
53.790        33
53.800        40
53.810        53
53.820        47
53.830        33
53.840        20
53.850        33
53.860        33
53.870        20
53.880        20
53.890        27
53.900        40
53.910        33
53.920        27
53.930        33
53.940        20
53.950        53
53.960        40
53.970        40
53.980        33
53.990        20
54.000        40
54.010        40
54.020        60
54.030        53
54.040        27
54.050        47
54.060        20
54.070         7
54.080        40
54.090        27
54.100        27
54.110        47
54.120        27
54.130         0
54.140        27
54.150        20
54.160        47
54.170        40
54.180         7
54.190        33
54.200        53
54.210         7
54.220         7
54.230        27
54.240         0
54.250         7
54.260        33
54.270        60
54.280        13
54.290        20
54.300        20
54.310        47
54.320        53
54.330        47
54.340        33
54.350        33
54.360        53
54.370        40
54.380        20
54.390        27
54.400        20
54.410        33
54.420        27
54.430        20
54.440        33
54.450        67
54.460        33
54.470        27
54.480        60
54.490        27
54.500        33
54.510        47
54.520        40
54.530         7
54.540        53
54.550        40
54.560        33
54.570        20
54.580        13
54.590        27
54.600        27
54.610        67
54.620        27
54.630        73
54.640        53
54.650        20
54.660        60
54.670        40
54.680        87
54.690        27
54.700        27
54.710        53
54.720        27
54.730        47
54.740        27
54.750        27
54.760        40
54.770        27
54.780        47
54.790        53
54.800        20
54.810        40
54.820        27
54.830        40
54.840        33
54.850        27
54.860        33
54.870        40
54.880        20
54.890        33
54.900        60
54.910        60
54.920        33
54.930        27
54.940        33
54.950        20
54.960        27
54.970        33
54.980        40
54.990        20
55.000        20
55.010        40
55.020        53
55.030        27
55.040        53
55.050        27
55.060        27
55.070        20
55.080        40
55.090        33
55.100        33
55.110        60
55.120        47
55.130        33
55.140        47
55.150        53
55.160        53
55.170        13
55.180        53
55.190        27
55.200        20
55.210        33
55.220        40
55.230        40
55.240        40
55.250        33
55.260        33
55.270        40
55.280        40
55.290         7
55.300        40
55.310        73
55.320        20
55.330        20
55.340        33
55.350        40
55.360        60
55.370        47
55.380        33
55.390        27
55.400        20
55.410        67
55.420        33
55.430        13
55.440        20
55.450        20
55.460        40
55.470        27
55.480        33
55.490        27
55.500        13
55.510        27
55.520        33
55.530         7
55.540        40
55.550        47
55.560        47
55.570        53
55.580        40
55.590         7
55.600        53
55.610        47
55.620        60
55.630        53
55.640        27
55.650        13
55.660        13
55.670        47
55.680        33
55.690        20
55.700        13
55.710        33
55.720        20
55.730        47
55.740        47
55.750        13
55.760        73
55.770        27
55.780        40
55.790        27
55.800        47
55.810        47
55.820        27
55.830        33
55.840        27
55.850        33
55.860         7
55.870        47
55.880        33
55.890        20
55.900        33
55.910        53
55.920        27
55.930        47
55.940        40
55.950        33
55.960        13
55.970        40
55.980        27
55.990        40
56.000        53
56.010        27
56.020        20
56.030        33
56.040        33
56.050        60
56.060        33
56.070        20
56.080        20
56.090        13
56.100        60
56.110        33
56.120        27
56.130        47
56.140        20
56.150        33
56.160        40
56.170        20
56.180        53
56.190        53
56.200        60
56.210        47
56.220        40
56.230        53
56.240        53
56.250        27
56.260        47
56.270        27
56.280        40
56.290        47
56.300        20
56.310        40
56.320        20
56.330        33
56.340        33
56.350        40
56.360        40
56.370        60
56.380        27
56.390        20
56.400        33
56.410        40
56.420        60
56.430        47
56.440        47
56.450        67
56.460        27
56.470        27
56.480        20
56.490        33
56.500        33
56.510        53
56.520        20
56.530        33
56.540        20
56.550         7
56.560        53
56.570        20
56.580        13
56.590        27
56.600        33
56.610        33
56.620        60
56.630        33
56.640        13
56.650        40
56.660         7
56.670        47
56.680        67
56.690        33
56.700        33
56.710        27
56.720        53
56.730        40
56.740        13
56.750        47
56.760        27
56.770        27
56.780        40
56.790        40
56.800        47
56.810        53
56.820        27
56.830        53
56.840        13
56.850        53
56.860        47
56.870        40
56.880        27
56.890        53
56.900        40
56.910        33
56.920        47
56.930        47
56.940        67
56.950        73
56.960        47
56.970        47
56.980        53
56.990        40
57.000        47
57.010       113
57.020        33
57.030        60
57.040        33
57.050        60
57.060        73
57.070        33
57.080        53
57.090        47
57.100        40
57.110        40
57.120        67
57.130        47
57.140        40
57.150        53
57.160        33
57.170        80
57.180        47
57.190        60
57.200        67
57.210        47
57.220        67
57.230        73
57.240        53
57.250        93
57.260        73
57.270       107
57.280       113
57.290        93
57.300        87
57.310        93
57.320       113
57.330        60
57.340       100
57.350        80
57.360        47
57.370        80
57.380        67
57.390       133
57.400        60
57.410       127
57.420        67
57.430        87
57.440       107
57.450        93
57.460       120
57.470       167
57.480        40
57.490       120
57.500       100
57.510       173
57.520       173
57.530       113
57.540       167
57.550       167
57.560       207
57.570       180
57.580       193
57.590       160
57.600       160
57.610       153
57.620       167
57.630       153
57.640       147
57.650       193
57.660       113
57.670       173
57.680       207
57.690       193
57.700       147
57.710       207
57.720       240
57.730       220
57.740       220
57.750       187
57.760       287
57.770       260
57.780       147
57.790       240
57.800       260
57.810       240
57.820       280
57.830       227
57.840       240
57.850       247
57.860       153
57.870       167
57.880       247
57.890       207
57.900       207
57.910       160
57.920       180
57.930       213
57.940       127
57.950       180
57.960       140
57.970       180
57.980       167
57.990       140
58.000       207
58.010       160
58.020        80
58.030        93
58.040       120
58.050       127
58.060        87
58.070        87
58.080       107
58.090        47
58.100       120
58.110        53
58.120        67
58.130        73
58.140       100
58.150        73
58.160        47
58.170        40
58.180        73
58.190        87
58.200        47
58.210        27
58.220        60
58.230        53
58.240        40
58.250        87
58.260        47
58.270        47
58.280        53
58.290        33
58.300        27
58.310        47
58.320        40
58.330       113
58.340        53
58.350       100
58.360        47
58.370        73
58.380        60
58.390        73
58.400        67
58.410        93
58.420       107
58.430       100
58.440       140
58.450        60
58.460        80
58.470        80
58.480        60
58.490        40
58.500        67
58.510        87
58.520       113
58.530        47
58.540        87
58.550        73
58.560        80
58.570        53
58.580        67
58.590        40
58.600        87
58.610        73
58.620        53
58.630        67
58.640        27
58.650        53
58.660        40
58.670        53
58.680        33
58.690        27
58.700        40
58.710        27
58.720        80
58.730        60
58.740        27
58.750        40
58.760        27
58.770        40
58.780        40
58.790        20
58.800        87
58.810        40
58.820        27
58.830        20
58.840        33
58.850        27
58.860        53
58.870        33
58.880        33
58.890        27
58.900        33
58.910        20
58.920        27
58.930        47
58.940         0
58.950        20
58.960        53
58.970        67
58.980        27
58.990         7
59.000        27
59.010        13
59.020        27
59.030        27
59.040        47
59.050        40
59.060        60
59.070        27
59.080        40
59.090        93
59.100        20
59.110        33
59.120        27
59.130        40
59.140        53
59.150        13
59.160        13
59.170        47
59.180        33
59.190        47
59.200         0
59.210        27
59.220        20
59.230        60
59.240        47
59.250        20
59.260        27
59.270        33
59.280         7
59.290        47
59.300         7
59.310        13
59.320        53
59.330        13
59.340        27
59.350        33
59.360        40
59.370        33
59.380        33
59.390        40
59.400        33
59.410        40
59.420        47
59.430        33
59.440        27
59.450        27
59.460        47
59.470        47
59.480         7
59.490        20
59.500        27
59.510        40
59.520        60
59.530        20
59.540        27
59.550        60
59.560        27
59.570        67
59.580        27
59.590        40
59.600        20
59.610        60
59.620        47
59.630        27
59.640        13
59.650        33
59.660        27
59.670        33
59.680        40
59.690        13
59.700        27
59.710        13
59.720        33
59.730        27
59.740        53
59.750        33
59.760        27
59.770        40
59.780        27
59.790        47
59.800        40
59.810        40
59.820        13
59.830        20
59.840        53
59.850        53
59.860        20
59.870        33
59.880        40
59.890        67
59.900        27
59.910        33
59.920        33
59.930         0
59.940        33
59.950        13
59.960        13
59.970        40
59.980        13
59.990        20
60.000        20
