20.000        40
20.010        40
20.020        20
20.030        73
20.040        67
20.050        27
20.060        73
20.070        67
20.080        27
20.090        73
20.100        60
20.110        40
20.120        73
20.130       107
20.140        40
20.150        73
20.160        47
20.170        47
20.180        73
20.190         7
20.200        40
20.210        53
20.220        47
20.230        40
20.240        67
20.250        47
20.260        73
20.270        47
20.280        87
20.290        73
20.300        47
20.310        53
20.320        33
20.330        47
20.340        33
20.350        20
20.360        80
20.370        40
20.380        53
20.390        67
20.400        40
20.410        40
20.420        33
20.430        60
20.440        53
20.450        47
20.460        40
20.470        27
20.480        80
20.490        60
20.500        47
20.510        73
20.520        13
20.530        60
20.540        80
20.550        80
20.560        47
20.570        40
20.580        60
20.590        33
20.600        33
20.610        60
20.620        53
20.630        60
20.640        60
20.650        40
20.660        40
20.670        27
20.680        60
20.690        33
20.700        40
20.710        47
20.720        53
20.730        33
20.740        53
20.750        33
20.760        87
20.770        53
20.780        53
20.790        13
20.800        53
20.810        20
20.820        60
20.830        67
20.840        67
20.850        60
20.860        47
20.870        60
20.880        40
20.890        47
20.900        47
20.910        87
20.920        47
20.930        40
20.940        40
20.950        60
20.960        33
20.970        33
20.980        33
20.990        67
21.000        20
21.010        13
21.020        20
21.030        60
21.040        33
21.050        47
21.060        33
21.070        53
21.080        80
21.090        53
21.100        40
21.110        53
21.120        33
21.130        47
21.140        47
21.150        47
21.160        87
21.170        53
21.180        67
21.190        20
21.200        47
21.210        40
21.220        13
21.230        67
21.240        60
21.250        47
21.260        33
21.270        73
21.280        67
21.290        47
21.300        40
21.310        33
21.320        80
21.330        53
21.340        47
21.350        80
21.360        20
21.370        60
21.380        87
21.390        67
21.400        73
21.410        33
21.420        33
21.430        53
21.440        60
21.450        27
21.460        60
21.470        53
21.480        33
21.490        20
21.500        27
21.510        60
21.520        60
21.530        27
21.540        53
21.550        40
21.560        20
21.570        40
21.580        53
21.590        40
21.600        27
21.610        27
21.620        67
21.630        67
21.640        40
21.650        27
21.660        53
21.670        20
21.680        20
21.690        27
21.700        80
21.710        53
21.720        27
21.730        80
21.740        27
21.750        67
21.760        73
21.770        40
21.780        47
21.790        67
21.800        33
21.810        47
21.820        40
21.830        20
21.840        27
21.850        67
21.860        27
21.870        27
21.880        60
21.890        73
21.900        67
21.910        53
21.920        60
21.930        87
21.940        53
21.950        60
21.960        20
21.970        47
21.980        33
21.990        27
22.000        40
22.010        53
22.020        33
22.030        40
22.040        20
22.050        53
22.060        80
22.070        60
22.080        60
22.090        53
22.100        60
22.110        60
22.120        67
22.130        27
22.140        93
22.150        47
22.160        27
22.170        33
22.180        13
22.190        27
22.200        47
22.210        73
22.220        40
22.230        27
22.240        33
22.250        53
22.260       100
22.270        60
22.280        53
22.290        60
22.300        73
22.310        33
22.320        60
22.330        60
22.340        67
22.350        47
22.360        67
22.370        60
22.380        47
22.390        67
22.400        40
22.410        53
22.420        73
22.430        60
22.440       100
22.450        60
22.460        67
22.470        67
22.480        80
22.490        73
22.500        93
22.510        60
22.520        40
22.530        60
22.540        67
22.550        67
22.560        87
22.570        87
22.580        67
22.590       127
22.600        80
22.610        73
22.620       120
22.630        80
22.640       107
22.650       100
22.660       100
22.670       113
22.680        80
22.690        87
22.700        87
22.710       113
22.720        67
22.730        67
22.740       100
22.750       147
22.760       120
22.770        80
22.780        53
22.790       147
22.800       127
22.810        60
22.820       113
22.830       127
22.840        67
22.850       120
22.860       107
22.870        47
22.880        60
22.890        80
22.900        47
22.910        60
22.920        47
22.930        73
22.940        40
22.950        20
22.960        33
22.970        33
22.980        53
22.990        60
23.000        60
23.010        53
23.020        47
23.030        67
23.040        40
23.050        60
23.060        33
23.070        67
23.080        33
23.090        47
23.100        40
23.110        40
23.120        33
23.130        27
23.140        87
23.150        20
23.160        27
23.170        27
23.180        53
23.190        33
23.200        47
23.210        33
23.220        47
23.230        53
23.240        53
23.250        47
23.260        60
23.270        67
23.280        67
23.290        53
23.300        80
23.310        33
23.320        40
23.330        40
23.340        40
23.350        33
23.360        87
23.370        13
23.380        27
23.390        27
23.400        47
23.410        40
23.420        33
23.430        73
23.440        60
23.450        67
23.460        40
23.470        47
23.480        33
23.490        53
23.500        33
23.510        40
23.520        47
23.530        47
23.540        27
23.550        20
23.560        53
23.570        53
23.580        53
23.590        27
23.600        67
23.610        53
23.620        60
23.630        47
23.640        13
23.650        33
23.660        40
23.670        33
23.680        40
23.690        33
23.700        40
23.710        33
23.720        80
23.730        40
23.740        47
23.750        73
23.760        47
23.770        47
23.780        53
23.790        53
23.800        40
23.810        67
23.820        33
23.830        73
23.840        60
23.850        20
23.860        27
23.870        20
23.880        93
23.890        27
23.900        53
23.910        53
23.920        27
23.930        67
23.940        67
23.950        53
23.960        33
23.970        67
23.980        53
23.990        27
24.000        27
24.010        20
24.020        33
24.030        47
24.040         0
24.050        60
24.060        60
24.070        33
24.080        40
24.090        47
24.100       100
24.110        60
24.120        67
24.130        27
24.140        47
24.150        67
24.160        47
24.170        40
24.180        33
24.190        33
24.200        27
24.210        27
24.220        47
24.230        87
24.240        60
24.250        27
24.260        40
24.270        60
24.280        60
24.290        47
24.300        20
24.310        53
24.320        73
24.330        33
24.340        27
24.350        53
24.360        40
24.370        27
24.380        80
24.390        53
24.400        60
24.410        20
24.420        27
24.430        40
24.440        40
24.450        33
24.460        47
24.470        13
24.480        73
24.490        87
24.500        27
24.510        20
24.520         7
24.530        73
24.540        60
24.550        53
24.560        67
24.570        13
24.580        67
24.590        53
24.600        80
24.610        53
24.620        60
24.630        47
24.640        40
24.650        53
24.660        40
24.670        47
24.680        27
24.690        60
24.700        40
24.710        67
24.720        53
24.730        47
24.740        40
24.750        47
24.760        53
24.770        13
24.780        53
24.790        33
24.800        47
24.810        40
24.820        60
24.830        60
24.840        13
24.850        33
24.860        40
24.870        40
24.880        27
24.890        67
24.900        67
24.910        40
24.920        13
24.930        47
24.940        33
24.950        40
24.960        40
24.970        33
24.980        27
24.990        40
25.000        13
25.010        40
25.020        53
25.030        47
25.040        53
25.050        47
25.060        33
25.070        40
25.080        73
25.090        47
25.100        47
25.110        67
25.120        67
25.130        33
25.140        20
25.150        13
25.160        40
25.170        47
25.180        27
25.190        60
25.200        80
25.210        40
25.220        40
25.230        73
25.240        47
25.250        60
25.260        20
25.270        73
25.280        47
25.290        80
25.300        33
25.310        47
25.320        27
25.330        53
25.340        67
25.350        53
25.360        27
25.370        73
25.380        47
25.390        40
25.400        20
25.410        33
25.420        47
25.430        53
25.440        47
25.450        40
25.460        47
25.470        53
25.480        60
25.490        40
25.500         7
25.510        47
25.520        33
25.530        47
25.540        27
25.550        53
25.560        47
25.570        13
25.580        27
25.590        33
25.600        47
25.610        40
25.620        73
25.630        33
25.640        53
25.650        40
25.660        40
25.670        40
25.680        53
25.690        47
25.700        40
25.710        47
25.720        40
25.730        27
25.740        53
25.750        53
25.760        53
25.770        53
25.780        67
25.790        27
25.800        20
25.810        27
25.820        67
25.830        27
25.840        40
25.850        47
25.860        60
25.870        53
25.880        33
25.890        13
25.900        40
25.910        40
25.920        20
25.930        40
25.940        33
25.950        33
25.960        27
25.970        33
25.980        20
25.990        47
26.000        60
26.010        13
26.020        27
26.030        33
26.040        33
26.050        27
26.060        47
26.070        40
26.080        40
26.090        40
26.100         7
26.110        67
26.120        33
26.130        67
26.140        47
26.150        33
26.160        73
26.170        53
26.180        53
26.190        60
26.200        13
26.210        20
26.220        40
26.230        47
26.240        20
26.250        33
26.260        40
26.270        67
26.280        87
26.290        27
26.300        40
26.310        33
26.320        60
26.330        47
26.340        20
26.350        40
26.360        40
26.370        47
26.380         7
26.390        27
26.400        33
26.410        33
26.420        33
26.430        40
26.440        60
26.450        40
26.460        40
26.470         7
26.480        33
26.490        53
26.500        53
26.510        40
26.520        67
26.530        53
26.540        47
26.550        40
26.560        20
26.570        33
26.580        20
26.590        27
26.600        60
26.610        20
26.620        53
26.630        40
26.640        73
26.650        27
26.660        47
26.670        40
26.680        33
26.690        40
26.700        60
26.710        33
26.720        47
26.730        27
26.740        20
26.750        27
26.760        67
26.770        40
26.780        40
26.790        27
26.800        47
26.810        47
26.820        40
26.830        40
26.840        47
26.850        47
26.860        33
26.870        33
26.880        73
26.890        33
26.900        40
26.910        53
26.920        33
26.930        40
26.940        47
26.950        60
26.960        27
26.970        80
26.980        40
26.990        27
27.000        27
27.010        53
27.020        53
27.030        80
27.040        47
27.050        13
27.060        53
27.070        47
27.080        40
27.090        53
27.100        27
27.110        20
27.120        53
27.130        27
27.140        47
27.150        40
27.160        47
27.170        40
27.180        53
27.190        60
27.200        33
27.210        27
27.220        33
27.230        53
27.240        27
27.250        20
27.260        47
27.270        33
27.280       100
27.290        53
27.300        40
27.310        40
27.320        47
27.330        27
27.340        20
27.350        40
27.360        33
27.370        47
27.380        40
27.390        40
27.400        47
27.410        53
27.420        27
27.430        13
27.440        20
27.450        40
27.460        47
27.470        33
27.480        40
27.490        40
27.500        27
27.510        53
27.520        47
27.530        40
27.540        53
27.550        27
27.560        47
27.570        47
27.580        33
27.590        27
27.600        60
27.610        27
27.620        47
27.630        53
27.640         7
27.650        27
27.660        80
27.670        20
27.680        40
27.690        40
27.700        27
27.710        13
27.720        33
27.730        20
27.740        13
27.750        53
27.760        13
27.770        27
27.780        47
27.790        47
27.800        53
27.810        33
27.820        53
27.830        53
27.840        33
27.850        33
27.860        20
27.870        27
27.880        33
27.890        67
27.900        60
27.910        40
27.920        33
27.930        60
27.940        40
27.950        53
27.960        33
27.970        20
27.980        20
27.990        40
28.000        33
28.010        27
28.020        53
28.030        40
28.040        40
28.050        33
28.060        53
28.070        33
28.080        60
28.090        60
28.100        40
28.110        53
28.120        67
28.130        13
28.140        20
28.150        47
28.160        60
28.170        13
28.180        60
28.190        53
28.200        67
28.210        33
28.220        53
28.230        27
28.240        33
28.250         7
28.260        33
28.270        80
28.280        53
28.290        53
28.300        60
28.310        40
28.320        33
28.330        60
28.340        27
28.350        40
28.360        47
28.370        40
28.380        13
28.390        60
28.400        53
28.410        33
28.420        20
28.430        27
28.440        27
28.450         7
28.460        27
28.470        27
28.480        27
28.490        40
28.500        13
28.510        60
28.520        33
28.530        40
28.540        20
28.550        40
28.560        33
28.570        47
28.580         7
28.590        33
28.600        20
28.610        33
28.620        47
28.630        40
28.640        20
28.650        93
28.660        20
28.670        47
28.680        27
28.690        80
28.700        93
28.710        27
28.720        47
28.730        20
28.740        53
28.750        33
28.760        40
28.770        13
28.780        33
28.790        27
28.800        20
28.810        73
28.820        33
28.830        20
28.840        33
28.850        47
28.860        20
28.870        33
28.880        27
28.890        33
28.900        20
28.910        27
28.920        53
28.930        53
28.940        33
28.950        40
28.960        40
28.970        67
28.980        47
28.990        33
29.000        27
29.010        33
29.020        40
29.030        33
29.040        33
29.050        27
29.060        40
29.070        33
29.080        27
29.090        67
29.100        60
29.110        40
29.120        20
29.130        20
29.140        33
29.150        13
29.160        27
29.170        40
29.180        67
29.190        47
29.200        47
29.210        47
29.220        33
29.230        27
29.240        27
29.250        40
29.260        33
29.270        33
29.280        47
29.290        60
29.300        33
29.310        47
29.320        20
29.330        47
29.340        40
29.350        40
29.360        47
29.370        40
29.380        47
29.390        47
29.400        40
29.410        73
29.420        53
29.430        40
29.440        80
29.450        47
29.460        47
29.470        80
29.480        20
29.490        33
29.500        27
29.510        13
29.520        53
29.530        60
29.540        40
29.550        27
29.560        40
29.570        33
29.580        27
29.590        13
29.600        20
29.610        27
29.620        27
29.630        40
29.640        20
29.650        47
29.660        47
29.670        73
29.680        33
29.690        47
29.700         7
29.710        33
29.720        33
29.730        53
29.740        67
29.750        73
29.760        27
29.770        47
29.780        53
29.790        20
29.800        33
29.810        60
29.820        40
29.830        40
29.840        53
29.850        40
29.860        40
29.870        60
29.880         7
29.890        67
29.900        87
29.910        60
29.920        93
29.930        20
29.940        47
29.950        73
29.960        93
29.970        53
29.980        60
29.990        53
30.000        27
30.010        40
30.020        40
30.030        27
30.040        60
30.050        47
30.060        47
30.070        47
30.080        67
30.090        80
30.100        67
30.110        53
30.120        40
30.130        20
30.140        27
30.150        47
30.160        67
30.170        40
30.180        73
30.190        33
30.200        33
30.210        27
30.220        40
30.230        40
30.240         7
30.250        27
30.260        53
30.270        33
30.280        67
30.290        27
30.300        40
30.310        20
30.320        27
30.330        33
30.340        33
30.350        60
30.360        20
30.370        47
30.380        53
30.390        33
30.400        53
30.410        60
30.420        20
30.430        60
30.440        53
30.450        67
30.460        13
30.470        40
30.480        47
30.490        27
30.500        67
30.510        20
30.520        60
30.530        33
30.540        33
30.550        47
30.560        53
30.570        20
30.580        47
30.590        40
30.600        47
30.610        27
30.620        73
30.630        47
30.640        13
30.650        47
30.660        47
30.670        47
30.680        67
30.690        47
30.700        40
30.710        13
30.720        53
30.730        47
30.740         7
30.750        33
30.760        27
30.770        40
30.780         7
30.790        47
30.800        33
30.810        27
30.820        20
30.830        40
30.840        33
30.850        80
30.860        27
30.870        20
30.880        33
30.890        27
30.900        20
30.910        47
30.920        53
30.930        33
30.940        53
30.950        33
30.960        33
30.970        47
30.980        13
30.990        33
31.000         7
31.010        67
31.020        40
31.030        67
31.040         7
31.050        20
31.060        67
31.070        27
31.080        27
31.090        40
31.100        40
31.110        27
31.120        33
31.130        40
31.140        33
31.150        33
31.160        13
31.170        27
31.180        53
31.190        40
31.200        73
31.210        47
31.220        27
31.230        73
31.240        40
31.250        20
31.260        47
31.270        40
31.280        20
31.290        60
31.300        53
31.310        47
31.320        33
31.330        27
31.340        33
31.350        47
31.360        20
31.370        27
31.380        67
31.390        67
31.400        73
31.410        47
31.420        47
31.430        67
31.440        53
31.450        67
31.460        40
31.470        33
31.480        27
31.490        40
31.500        73
31.510        47
31.520        33
31.530        47
31.540        73
31.550        47
31.560        47
31.570        80
31.580        33
31.590        67
31.600        33
31.610        67
31.620        40
31.630        93
31.640        27
31.650        40
31.660        27
31.670        80
31.680        60
31.690        73
31.700       100
31.710        60
31.720        27
31.730        60
31.740        80
31.750        87
31.760        60
31.770        53
31.780        47
31.790        93
31.800        60
31.810        93
31.820       133
31.830        87
31.840        67
31.850       120
31.860        73
31.870        73
31.880        60
31.890       133
31.900        73
31.910        67
31.920        93
31.930       100
31.940       140
31.950       147
31.960       127
31.970       153
31.980       167
31.990       100
32.000       153
32.010       207
32.020       167
32.030       147
32.040       113
32.050       180
32.060       207
32.070       140
32.080       220
32.090       227
32.100       273
32.110       327
32.120       287
32.130       247
32.140       253
32.150       353
32.160       367
32.170       280
32.180       333
32.190       367
32.200       446
32.210       407
32.220       387
32.230       440
32.240       533
32.250       546
32.260       546
32.270       513
32.280       367
32.290       553
32.300       453
32.310       420
32.320       460
32.330       446
32.340       473
32.350       420
32.360       546
32.370       433
32.380       506
32.390       426
32.400       426
32.410       513
32.420       600
32.430       500
32.440       493
32.450       546
32.460       513
32.470       426
32.480       440
32.490       466
32.500       420
32.510       433
32.520       473
32.530       320
32.540       247
32.550       293
32.560       300
32.570       307
32.580       247
32.590       193
32.600       180
32.610       193
32.620       173
32.630       153
32.640       147
32.650       160
32.660        87
32.670       140
32.680       107
32.690       153
32.700        73
32.710        73
32.720        80
32.730       113
32.740        40
32.750        60
32.760        60
32.770        60
32.780        47
32.790        80
32.800        27
32.810        60
32.820        87
32.830        33
32.840        33
32.850        73
32.860       100
32.870        40
32.880        47
32.890        53
32.900        53
32.910        53
32.920        53
32.930        67
32.940        60
32.950        47
32.960        27
32.970        20
32.980        33
32.990        67
33.000        67
33.010        87
33.020        27
33.030        40
33.040        53
33.050        40
33.060        27
33.070        67
33.080        27
33.090        60
33.100        33
33.110        27
33.120        40
33.130        47
33.140        80
33.150        53
33.160        53
33.170        27
33.180        20
33.190        33
33.200        13
33.210        60
33.220        27
33.230        47
33.240        33
33.250        33
33.260        60
33.270        27
33.280        40
33.290        53
33.300        67
33.310        33
33.320        33
33.330        33
33.340        47
33.350        33
33.360        60
33.370        60
33.380        67
33.390        47
33.400        60
33.410        47
33.420        60
33.430        20
33.440        60
33.450        33
33.460        20
33.470        73
33.480        20
33.490        13
33.500        47
33.510        27
33.520        27
33.530        67
33.540        60
33.550        20
33.560        47
33.570        27
33.580        40
33.590        47
33.600        47
33.610        60
33.620        33
33.630        20
33.640        53
33.650        33
33.660        47
33.670        40
33.680         7
33.690        33
33.700        33
33.710        20
33.720        40
33.730        47
33.740        33
33.750        47
33.760        40
33.770        73
33.780        27
33.790        60
33.800        47
33.810        40
33.820        60
33.830        73
33.840        40
33.850        40
33.860        27
33.870        20
33.880        33
33.890        40
33.900        60
33.910        27
33.920         7
33.930        67
33.940        47
33.950        27
33.960        20
33.970        73
33.980        53
33.990        27
34.000        47
34.010        33
34.020        47
34.030        67
34.040        20
34.050        27
34.060        40
34.070        33
34.080        20
34.090        47
34.100        67
34.110        33
34.120        40
34.130        20
34.140        47
34.150        60
34.160        27
34.170        40
34.180        33
34.190        53
34.200        53
34.210        60
34.220        20
34.230        33
34.240        33
34.250        27
34.260        20
34.270        20
34.280        40
34.290        40
34.300        33
34.310        40
34.320        47
34.330        33
34.340        40
34.350        40
34.360        67
34.370        47
34.380        47
34.390        60
34.400        40
34.410        33
34.420        33
34.430        33
34.440        27
34.450        27
34.460        27
34.470        47
34.480        40
34.490        13
34.500        27
34.510        47
34.520        27
34.530        33
34.540        67
34.550        33
34.560        40
34.570        13
34.580        33
34.590        67
34.600        13
34.610        33
34.620        27
34.630        47
34.640        53
34.650        53
34.660        27
34.670        33
34.680        27
34.690        13
34.700        53
34.710        20
34.720        20
34.730        40
34.740        33
34.750        53
34.760        27
34.770        33
34.780        47
34.790        47
34.800        40
34.810        40
34.820        53
34.830        33
34.840        33
34.850        53
34.860        47
34.870        27
34.880        47
34.890        27
34.900        47
34.910        67
34.920        27
34.930        47
34.940        47
34.950        27
34.960        40
34.970        40
34.980        67
34.990        20
35.000        33
35.010        13
35.020        47
35.030        13
35.040        47
35.050        40
35.060         7
35.070        20
35.080        27
35.090        47
35.100        27
35.110        33
35.120        13
35.130        20
35.140        20
35.150        27
35.160        33
35.170        33
35.180        27
35.190        47
35.200         0
35.210        60
35.220        20
35.230        33
35.240        40
35.250        13
35.260         7
35.270         0
35.280        47
35.290        20
35.300        20
35.310        53
35.320        33
35.330        27
35.340        53
35.350        27
35.360        40
35.370        53
35.380        33
35.390        40
35.400        13
35.410        33
35.420        27
35.430        47
35.440        27
35.450        27
35.460        80
35.470        40
35.480        47
35.490        13
35.500        40
35.510        27
35.520        47
35.530        33
35.540        40
35.550        67
35.560        20
35.570        40
35.580        53
35.590        33
35.600         0
35.610        20
35.620        27
35.630        53
35.640        40
35.650        40
35.660         7
35.670        47
35.680        40
35.690        13
35.700        27
35.710        27
35.720        13
35.730        80
35.740        20
35.750        13
35.760        47
35.770        27
35.780        20
35.790        47
35.800        53
35.810        20
35.820        47
35.830        33
35.840        33
35.850        53
35.860        13
35.870        47
35.880        13
35.890        20
35.900        60
35.910        33
35.920        40
35.930        20
35.940        47
35.950        20
35.960        53
35.970        67
35.980        47
35.990        53
36.000        47
36.010        27
36.020        67
36.030        20
36.040        73
36.050        40
36.060        20
36.070        13
36.080        40
36.090        27
36.100        27
36.110        27
36.120        13
36.130        47
36.140        87
36.150        20
36.160        20
36.170        40
36.180        60
36.190        67
36.200        60
36.210        33
36.220        33
36.230        33
36.240        60
36.250        47
36.260        20
36.270        13
36.280        27
36.290        47
36.300        33
36.310        40
36.320        20
36.330        47
36.340        33
36.350        87
36.360        27
36.370        20
36.380        27
36.390        53
36.400        40
36.410        13
36.420        33
36.430        40
36.440        20
36.450        33
36.460        33
36.470        47
36.480        40
36.490        33
36.500        80
36.510        27
36.520        20
36.530        27
36.540        27
36.550        20
36.560        33
36.570        20
36.580        13
36.590        53
36.600        27
36.610        33
36.620        20
36.630        53
36.640        67
36.650        27
36.660        47
36.670        20
36.680        33
36.690        40
36.700        40
36.710        27
36.720        40
36.730        40
36.740        27
36.750        40
36.760        53
36.770        53
36.780        20
36.790        27
36.800        33
36.810        60
36.820        40
36.830         7
36.840        40
36.850        27
36.860        33
36.870        13
36.880         7
36.890        27
36.900        33
36.910        27
36.920        20
36.930        27
36.940        33
36.950        13
36.960        33
36.970        33
36.980        47
36.990        47
37.000        67
37.010        73
37.020        40
37.030        60
37.040         7
37.050        67
37.060        40
37.070        53
37.080        33
37.090        27
37.100        60
37.110        27
37.120        47
37.130        20
37.140        33
37.150        53
37.160        47
37.170        47
37.180        40
37.190        20
37.200        20
37.210        40
37.220        67
37.230        13
37.240        60
37.250        40
37.260        53
37.270        33
37.280        40
37.290        47
37.300        40
37.310        40
37.320        53
37.330        20
37.340        33
37.350        33
37.360        53
37.370        27
37.380        27
37.390        20
37.400        13
37.410        47
37.420        47
37.430        40
37.440        47
37.450        27
37.460        33
37.470        33
37.480        40
37.490        13
37.500        67
37.510        40
37.520        47
37.530        47
37.540        53
37.550        40
37.560        53
37.570         7
37.580        47
37.590        27
37.600        13
37.610        33
37.620        33
37.630        33
37.640        33
37.650        40
37.660        27
37.670        40
37.680        60
37.690        53
37.700        60
37.710        20
37.720        67
37.730        33
37.740        60
37.750        20
37.760        47
37.770        33
37.780        20
37.790        40
37.800        33
37.810        53
37.820        33
37.830        47
37.840        47
37.850        20
37.860        33
37.870        33
37.880        40
37.890        27
37.900        40
37.910        13
37.920        47
37.930        20
37.940        40
37.950        27
37.960        53
37.970        27
37.980        47
37.990        53
38.000        33
38.010        40
38.020        53
38.030        33
38.040        33
38.050        40
38.060        67
38.070        20
38.080        60
38.090        60
38.100        73
38.110        47
38.120        53
38.130        33
38.140        53
38.150        27
38.160        47
38.170        20
38.180        60
38.190        53
38.200        40
38.210        33
38.220        73
38.230        53
38.240        33
38.250        33
38.260        33
38.270        40
38.280        13
38.290        60
38.300        60
38.310        47
38.320        33
38.330        67
38.340        53
38.350        53
38.360        47
38.370        27
38.380        47
38.390        27
38.400         7
38.410        13
38.420        60
38.430        13
38.440        20
38.450        33
38.460        47
38.470        47
38.480        33
38.490        67
38.500        33
38.510        33
38.520        40
38.530        20
38.540        27
38.550        20
38.560        27
38.570        47
38.580        13
38.590        47
38.600        27
38.610         7
38.620        60
38.630        27
38.640        60
38.650        60
38.660        13
38.670        13
38.680        20
38.690        20
38.700        33
38.710        73
38.720        53
38.730        53
38.740        40
38.750        67
38.760        27
38.770        33
38.780        60
38.790        40
38.800        40
38.810        27
38.820        40
38.830        20
38.840        20
38.850        73
38.860        47
38.870        33
38.880        40
38.890        40
38.900        27
38.910        13
38.920        27
38.930        27
38.940        40
38.950        40
38.960        33
38.970        33
38.980        33
38.990        67
39.000        47
39.010        60
39.020        40
39.030        40
39.040        33
39.050        20
39.060        47
39.070        20
39.080        47
39.090        33
39.100        47
39.110        40
39.120        27
39.130        60
39.140        40
39.150        60
39.160        13
39.170        33
39.180        40
39.190        33
39.200        47
39.210        20
39.220        47
39.230        40
39.240        47
39.250        67
39.260        20
39.270        27
39.280        53
39.290        33
39.300        27
39.310        27
39.320        47
39.330        20
39.340        27
39.350        47
39.360        33
39.370        60
39.380        53
39.390        47
39.400        40
39.410        33
39.420        33
39.430        47
39.440        53
39.450        27
39.460        73
39.470        47
39.480        60
39.490        73
39.500        47
39.510        27
39.520        67
39.530        53
39.540        60
39.550        40
39.560        40
39.570        40
39.580        67
39.590        47
39.600        60
39.610        60
39.620        73
39.630        60
39.640        60
39.650        53
39.660        40
39.670        47
39.680        53
39.690        53
39.700       107
39.710       127
39.720        93
39.730        73
39.740        60
39.750        73
39.760        60
39.770       100
39.780        87
39.790        93
39.800       120
39.810        93
39.820       140
39.830       100
39.840       153
39.850       220
39.860       153
39.870       107
39.880       120
39.890       160
39.900       173
39.910       140
39.920       207
39.930       173
39.940       133
39.950       120
39.960       100
39.970        73
39.980       120
39.990       120
40.000       133
40.010       153
40.020       133
40.030       147
40.040       107
40.050       133
40.060       127
40.070       107
40.080        80
40.090        67
40.100        67
40.110        87
40.120        87
40.130       140
40.140       113
40.150        67
40.160       100
40.170        80
40.180       127
40.190        53
40.200        47
40.210        93
40.220        33
40.230        47
40.240        47
40.250        13
40.260        60
40.270         7
40.280        53
40.290        27
40.300        33
40.310        40
40.320        27
40.330        13
40.340        47
40.350        27
40.360        47
40.370        40
40.380        33
40.390        33
40.400        40
40.410        33
40.420        33
40.430        47
40.440        53
40.450         7
40.460        27
40.470        47
40.480        53
40.490        20
40.500        53
40.510        47
40.520        33
40.530        40
40.540        73
40.550        33
40.560        33
40.570        33
40.580        27
40.590        20
40.600        13
40.610        47
40.620        40
40.630        67
40.640        33
40.650        53
40.660        20
40.670        20
40.680        27
40.690         0
40.700        27
40.710        33
40.720        27
40.730        67
40.740        60
40.750        33
40.760        27
40.770        47
40.780        40
40.790         7
40.800        33
40.810        93
40.820        47
40.830        33
40.840        20
40.850        13
40.860        60
40.870        20
40.880        27
40.890        20
40.900        67
40.910        53
40.920        53
40.930        27
40.940        53
40.950        27
40.960        27
40.970        53
40.980        33
40.990        13
41.000        20
41.010        27
41.020        20
41.030        40
41.040        40
41.050        40
41.060        47
41.070        27
41.080        53
41.090         7
41.100        33
41.110        27
41.120        20
41.130        60
41.140        33
41.150        40
41.160        53
41.170        40
41.180        40
41.190        20
41.200        27
41.210        67
41.220        47
41.230        27
41.240        47
41.250        47
41.260        13
41.270        27
41.280        40
41.290        13
41.300        40
41.310        60
41.320        33
41.330        20
41.340        13
41.350        33
41.360        33
41.370        40
41.380        27
41.390        33
41.400        20
41.410        27
41.420        33
41.430        20
41.440        33
41.450        20
41.460        20
41.470        27
41.480        60
41.490        33
41.500        40
41.510        40
41.520        13
41.530        67
41.540        87
41.550        20
41.560        27
41.570        60
41.580        53
41.590        47
41.600        53
41.610        40
41.620        33
41.630        27
41.640        20
41.650        40
41.660        60
41.670         7
41.680        13
41.690        80
41.700        20
41.710        67
41.720        53
41.730        27
41.740        40
41.750        27
41.760        60
41.770        53
41.780        27
41.790        20
41.800        47
41.810         7
41.820        47
41.830        60
41.840        27
41.850        33
41.860        27
41.870        40
41.880        20
41.890        40
41.900        47
41.910        13
41.920        27
41.930        33
41.940        27
41.950        40
41.960        13
41.970        40
41.980        27
41.990        47
42.000        47
42.010        40
42.020        13
42.030        33
42.040        20
42.050        60
42.060        27
42.070        27
42.080        47
42.090        40
42.100        13
42.110        27
42.120        47
42.130        47
42.140        20
42.150        40
42.160        60
42.170        33
42.180         0
42.190        27
42.200        53
42.210        60
42.220        20
42.230        13
42.240        33
42.250        33
42.260        40
42.270        53
42.280        60
42.290        33
42.300        27
42.310        33
42.320        40
42.330        20
42.340        33
42.350        27
42.360        27
42.370        60
42.380        27
42.390        27
42.400        20
42.410        33
42.420        60
42.430        67
42.440        53
42.450        33
42.460        47
42.470        33
42.480        27
42.490        33
42.500        53
42.510        33
42.520        33
42.530        40
42.540        13
42.550        60
42.560        20
42.570         7
42.580        47
42.590        40
42.600        53
42.610        47
42.620        40
42.630        47
42.640        60
42.650        13
42.660        20
42.670        13
42.680        40
42.690        40
42.700        27
42.710        33
42.720        40
42.730        53
42.740        40
42.750        67
42.760        20
42.770        33
42.780        33
42.790        53
42.800        27
42.810        33
42.820        27
42.830        47
42.840        20
42.850        20
42.860        47
42.870        20
42.880        67
42.890        73
42.900        53
42.910        33
42.920        13
42.930        20
42.940        40
42.950        27
42.960        20
42.970        53
42.980         7
42.990        33
43.000        33
43.010        27
43.020        27
43.030        40
43.040        47
43.050        47
43.060        40
43.070        33
43.080        40
43.090        20
43.100        27
43.110        53
43.120        40
43.130        20
43.140        33
43.150        27
43.160        40
43.170        27
43.180        47
43.190        47
43.200         0
43.210        60
43.220         7
43.230        40
43.240        47
43.250        13
43.260        33
43.270        33
43.280        20
43.290        13
43.300        33
43.310        33
43.320        33
43.330        47
43.340        13
43.350        20
43.360        33
43.370        60
43.380        20
43.390        60
43.400        20
43.410        33
43.420        33
43.430        40
43.440        53
43.450        33
43.460        13
43.470        40
43.480         7
43.490        33
43.500        20
43.510        53
43.520        27
43.530        33
43.540        20
43.550        33
43.560        13
43.570        47
43.580        47
43.590        13
43.600        33
43.610        27
43.620        47
43.630        13
43.640        33
43.650        27
43.660        40
43.670        53
43.680        40
43.690        40
43.700        40
43.710        13
43.720        20
43.730        33
43.740        27
43.750         7
43.760        27
43.770        27
43.780        33
43.790        20
43.800        33
43.810        40
43.820        13
43.830        40
43.840        20
43.850        40
43.860        20
43.870        53
43.880         0
43.890        47
43.900        40
43.910         7
43.920        27
43.930        67
43.940        20
43.950        27
43.960        40
43.970        27
43.980        40
43.990        53
44.000        33
44.010        20
44.020        33
44.030        13
44.040        40
44.050        20
44.060        27
44.070        53
44.080        80
44.090        27
44.100        20
44.110        33
44.120        27
44.130        47
44.140        27
44.150        33
44.160        27
44.170        47
44.180        47
44.190        40
44.200        27
44.210        40
44.220        40
44.230        40
44.240        33
44.250        33
44.260        20
44.270        27
44.280        67
44.290        27
44.300        27
44.310        40
44.320        27
44.330        27
44.340         0
44.350        33
44.360        20
44.370        27
44.380        27
44.390        60
44.400        27
44.410        13
44.420        27
44.430        20
44.440        33
44.450        47
44.460        53
44.470        13
44.480        53
44.490        40
44.500        40
44.510         7
44.520        20
44.530        27
44.540        20
44.550        40
44.560        27
44.570        47
44.580        40
44.590        20
44.600        20
44.610        20
44.620        53
44.630        40
44.640        47
44.650        20
44.660        47
44.670        27
44.680        27
44.690        33
44.700        33
44.710        33
44.720        20
44.730        20
44.740        27
44.750        20
44.760        33
44.770        33
44.780        40
44.790        27
44.800        40
44.810        33
44.820        47
44.830        47
44.840        53
44.850        27
44.860        33
44.870        27
44.880        47
44.890        40
44.900        40
44.910         0
44.920        67
44.930        80
44.940        33
44.950        33
44.960        40
44.970        20
44.980        20
44.990        40
45.000        27
45.010        40
45.020        20
45.030        20
45.040        27
45.050        60
45.060        27
45.070        40
45.080        60
45.090        27
45.100        13
45.110        40
45.120        53
45.130        40
45.140        33
45.150        33
45.160        20
45.170        40
45.180        27
45.190        20
45.200        80
45.210        47
45.220        40
45.230        47
45.240        33
45.250        27
45.260        80
45.270        47
45.280        40
45.290        13
45.300        60
45.310        67
45.320        40
45.330        67
45.340        13
45.350        20
45.360        33
45.370        67
45.380        47
45.390        53
45.400        40
45.410        33
45.420        40
45.430        60
45.440        80
45.450        40
45.460         7
45.470        27
45.480        20
45.490        13
45.500        27
45.510        33
45.520        80
45.530        47
45.540        27
45.550        40
45.560        27
45.570        40
45.580        47
45.590        33
45.600        33
45.610        40
45.620        73
45.630        53
45.640        53
45.650        13
45.660        60
45.670        73
45.680        87
45.690        40
45.700        27
45.710        73
45.720        47
45.730        33
45.740        20
45.750        47
45.760        53
45.770        47
45.780        47
45.790        20
45.800        33
45.810        67
45.820        67
45.830        27
45.840        33
45.850        40
45.860        27
45.870        93
45.880        40
45.890       107
45.900        67
45.910        40
45.920       107
45.930        27
45.940        40
45.950        53
45.960        73
45.970        60
45.980        87
45.990        60
46.000        60
46.010        87
46.020        60
46.030        53
46.040        33
46.050        47
46.060        53
46.070        67
46.080        67
46.090        53
46.100        80
46.110        80
46.120        60
46.130        87
46.140        67
46.150        67
46.160        53
46.170        40
46.180        93
46.190       133
46.200        93
46.210        40
46.220       107
46.230       113
46.240        53
46.250        93
46.260       120
46.270        93
46.280        73
46.290       113
46.300       120
46.310       133
46.320       180
46.330       100
46.340       140
46.350       167
46.360       153
46.370       213
46.380       220
46.390       167
46.400       160
46.410       160
46.420       253
46.430       260
46.440       260
46.450       193
46.460       167
46.470       220
46.480       227
46.490       233
46.500       220
46.510       173
46.520       187
46.530       167
46.540       120
46.550       247
46.560       160
46.570       227
46.580       100
46.590       193
46.600       173
46.610       220
46.620       153
46.630       113
46.640       167
46.650       187
46.660       127
46.670       127
46.680       147
46.690        87
46.700        53
46.710       107
46.720       100
46.730       140
46.740       153
46.750        93
46.760        60
46.770        80
46.780        80
46.790        80
46.800        67
46.810        53
46.820       107
46.830        80
46.840        33
46.850        40
46.860        33
46.870        53
46.880        40
46.890        13
46.900        53
46.910        40
46.920        33
46.930        40
46.940        33
46.950        33
46.960        27
46.970        40
46.980        47
46.990        33
47.000        40
47.010        60
47.020        33
47.030        53
47.040        47
47.050        13
47.060        13
47.070        93
47.080        27
47.090        47
47.100        20
47.110        40
47.120        47
47.130        33
47.140        33
47.150        33
47.160        40
47.170         7
47.180        20
47.190        27
47.200        47
47.210        33
47.220        33
47.230        47
47.240        20
47.250        67
47.260        40
47.270        87
47.280        13
47.290        13
47.300        60
47.310        40
47.320        47
47.330        67
47.340        40
47.350        33
47.360        40
47.370        53
47.380        40
47.390        27
47.400        20
47.410        33
47.420        20
47.430        27
47.440        20
47.450        27
47.460        47
47.470        20
47.480        40
47.490         7
47.500        33
47.510        27
47.520        27
47.530        40
47.540        13
47.550        33
47.560        47
47.570         7
47.580        27
47.590        33
47.600        47
47.610        40
47.620        40
47.630        27
47.640        13
47.650         7
47.660        20
47.670        33
47.680        53
47.690         7
47.700        60
47.710        27
47.720        27
47.730        67
47.740        20
47.750        27
47.760        20
47.770        13
47.780        20
47.790        67
47.800        40
47.810        40
47.820        60
47.830        27
47.840        20
47.850        40
47.860         7
47.870        33
47.880        40
47.890        40
47.900        60
47.910        53
47.920        40
47.930        47
47.940        33
47.950        40
47.960        33
47.970        33
47.980        47
47.990        67
48.000        40
48.010        27
48.020        33
48.030        27
48.040        40
48.050        60
48.060        60
48.070        40
48.080        53
48.090        60
48.100        20
48.110        33
48.120        33
48.130        13
48.140        20
48.150        67
48.160        33
48.170        53
48.180        27
48.190        53
48.200        40
48.210        20
48.220        60
48.230        27
48.240        33
48.250        73
48.260        47
48.270        20
48.280        53
48.290        53
48.300        40
48.310        47
48.320        33
48.330        20
48.340        47
48.350        13
48.360        27
48.370        53
48.380        20
48.390        13
48.400        53
48.410        40
48.420        40
48.430        20
48.440        20
48.450        60
48.460        27
48.470        47
48.480        20
48.490        20
48.500        40
48.510        27
48.520        27
48.530         7
48.540        40
48.550        20
48.560        13
48.570        53
48.580        60
48.590        20
48.600        20
48.610        33
48.620        40
48.630        20
48.640         7
48.650        27
48.660        13
48.670        13
48.680        27
48.690        33
48.700        33
48.710        53
48.720        13
48.730        40
48.740        27
48.750        20
48.760        27
48.770        53
48.780        13
48.790        27
48.800        40
48.810         7
48.820        33
48.830        20
48.840        40
48.850        33
48.860        20
48.870        33
48.880        33
48.890        27
48.900        20
48.910        27
48.920        33
48.930        20
48.940        33
48.950        27
48.960        27
48.970        13
48.980        73
48.990        20
49.000        40
49.010        33
49.020        27
49.030        60
49.040        47
49.050        40
49.060        20
49.070        40
49.080        13
49.090        33
49.100        33
49.110        47
49.120        20
49.130        13
49.140        33
49.150        20
49.160        53
49.170        27
49.180        20
49.190        47
49.200        27
49.210        47
49.220        13
49.230        13
49.240        20
49.250        27
49.260        20
49.270        13
49.280        33
49.290        53
49.300        33
49.310        27
49.320        33
49.330        47
49.340        20
49.350        27
49.360        20
49.370        47
49.380        13
49.390        40
49.400         7
49.410        47
49.420        47
49.430        20
49.440        20
49.450        20
49.460        20
49.470        27
49.480        33
49.490        33
49.500        40
49.510        40
49.520        20
49.530        27
49.540        40
49.550        40
49.560        20
49.570        20
49.580        20
49.590        60
49.600        27
49.610        53
49.620        20
49.630        33
49.640        20
49.650        47
49.660        40
49.670        47
49.680        40
49.690        27
49.700        27
49.710        33
49.720        20
49.730        13
49.740        27
49.750        27
49.760        20
49.770        13
49.780        47
49.790        40
49.800        33
49.810        20
49.820        47
49.830        47
49.840        47
49.850         7
49.860        13
49.870         7
49.880        40
49.890         7
49.900        33
49.910        47
49.920        47
49.930        47
49.940        13
49.950        53
49.960        33
49.970        27
49.980        33
49.990        13
50.000        33
50.010        20
50.020        27
50.030         0
50.040        47
50.050        40
50.060        40
50.070        20
50.080        27
50.090        20
50.100        20
50.110        20
50.120        27
50.130        13
50.140        20
50.150        13
50.160        27
50.170        53
50.180        20
50.190        20
50.200        40
50.210        33
50.220        47
50.230        33
50.240        13
50.250        60
50.260         7
50.270        53
50.280        20
50.290        20
50.300        33
50.310        60
50.320        53
50.330        27
50.340        33
50.350        33
50.360        27
50.370        13
50.380        53
50.390        20
50.400        27
50.410        53
50.420        27
50.430        40
50.440        13
50.450        60
50.460        40
50.470        13
50.480        47
50.490        33
50.500        47
50.510        40
50.520        40
50.530        20
50.540        13
50.550        53
50.560        13
50.570        40
50.580        13
50.590        33
50.600        33
50.610        60
50.620        20
50.630        20
50.640        53
50.650        20
50.660         0
50.670        40
50.680        20
50.690        27
50.700        60
50.710         7
50.720        20
50.730        40
50.740        40
50.750        13
50.760         7
50.770        47
50.780        20
50.790        47
50.800        27
50.810        47
50.820        33
50.830         7
50.840        33
50.850        33
50.860        60
50.870        47
50.880        33
50.890        20
50.900        33
50.910        27
50.920        13
50.930        20
50.940        27
50.950        60
50.960        40
50.970        20
50.980        27
50.990        20
51.000        33
51.010        13
51.020        33
51.030        67
51.040        27
51.050        33
51.060        20
51.070        27
51.080        33
51.090        60
51.100        33
51.110        33
51.120        40
51.130        53
51.140        47
51.150        20
51.160        27
51.170         7
51.180        33
51.190        13
51.200        20
51.210        27
51.220        53
51.230        40
51.240        40
51.250        47
51.260        20
51.270        33
51.280        40
51.290        20
51.300        27
51.310        20
51.320        40
51.330        40
51.340        20
51.350        27
51.360        20
51.370        33
51.380        47
51.390        13
51.400        33
51.410        53
51.420        33
51.430        33
51.440        47
51.450        33
51.460        33
51.470        60
51.480        33
51.490        33
51.500        40
51.510        40
51.520        27
51.530        13
51.540        27
51.550        20
51.560        20
51.570        33
51.580        33
51.590        47
51.600        47
51.610        53
51.620        60
51.630        33
51.640        27
51.650        53
51.660        20
51.670        33
51.680        47
51.690        40
51.700        27
51.710        47
51.720        33
51.730        33
51.740        47
51.750        40
51.760        20
51.770        27
51.780        73
51.790        53
51.800        33
51.810        33
51.820        27
51.830        33
51.840        40
51.850        20
51.860        20
51.870        67
51.880        33
51.890        20
51.900        13
51.910        47
51.920        67
51.930        60
51.940        13
51.950        73
51.960        27
51.970        13
51.980        27
51.990        60
52.000        20
52.010        33
52.020        27
52.030        67
52.040        27
52.050        53
52.060        67
52.070        47
52.080        67
52.090        27
52.100        27
52.110        67
52.120        73
52.130        47
52.140        20
52.150        60
52.160        73
52.170        27
52.180        33
52.190        47
52.200        67
52.210        27
52.220        87
52.230        40
52.240        53
52.250        40
52.260        80
52.270        40
52.280        33
52.290        60
52.300        47
52.310        60
52.320        47
52.330        53
52.340        53
52.350        67
52.360        27
52.370        73
52.380        87
52.390        40
52.400        67
52.410        67
52.420        67
52.430        53
52.440        53
52.450        73
52.460        73
52.470        80
52.480        40
52.490        53
52.500        60
52.510        40
52.520        60
52.530        33
52.540        47
52.550        33
52.560        27
52.570        40
52.580        53
52.590        53
52.600        73
52.610        40
52.620        47
52.630        13
52.640        27
52.650        87
52.660        40
52.670        80
52.680        27
52.690        73
52.700        67
52.710        27
52.720        40
52.730        33
52.740        27
52.750        27
52.760        27
52.770        40
52.780        20
52.790        47
52.800        40
52.810        27
52.820        80
52.830        47
52.840        27
52.850        27
52.860        33
52.870        13
52.880        27
52.890        67
52.900        20
52.910        73
52.920        13
52.930        27
52.940        27
52.950        40
52.960        60
52.970        13
52.980        40
52.990        40
53.000        27
53.010        27
53.020        27
53.030        20
53.040        27
53.050        27
53.060        33
53.070        33
53.080        27
53.090        27
53.100        33
53.110        27
53.120        33
53.130        13
53.140        47
53.150        20
53.160        33
53.170        27
53.180         7
53.190        27
53.200        27
53.210         7
53.220        53
53.230        47
53.240        33
53.250        20
53.260        27
53.270        40
53.280        47
53.290        40
53.300        13
53.310        20
53.320         7
53.330        20
53.340        27
53.350        60
53.360        27
53.370        40
53.380        33
53.390        20
53.400        27
53.410        20
53.420        20
53.430        13
53.440        27
53.450        13
53.460        20
53.470        33
53.480        47
53.490        33
53.500        73
53.510        20
53.520        27
53.530        60
53.540        33
53.550        33
53.560        27
53.570        40
53.580        40
53.590        20
53.600        13
53.610        27
53.620        13
53.630        27
53.640        60
53.650        33
53.660        40
53.670        33
53.680        27
53.690        33
53.700        33
53.710        33
53.720        60
53.730        53
53.740        60
53.750        33
53.760        53
53.770        40
53.780        40
53.790        47
53.800        27
53.810        27
53.820        13
53.830        13
53.840        33
53.850        20
53.860        33
53.870        33
53.880        47
53.890        47
53.900        33
53.910        47
53.920        33
53.930        40
53.940        20
53.950        40
53.960        40
53.970        20
53.980        33
53.990        40
54.000        33
54.010        27
54.020        40
54.030        20
54.040        33
54.050        20
54.060        73
54.070        13
54.080        27
54.090        20
54.100        33
54.110        40
54.120        27
54.130        47
54.140        27
54.150        67
54.160        33
54.170        13
54.180        20
54.190        40
54.200        27
54.210        20
54.220        60
54.230        27
54.240        27
54.250        33
54.260        33
54.270        20
54.280        33
54.290        20
54.300        20
54.310        20
54.320        33
54.330         0
54.340        27
54.350        27
54.360        40
54.370        33
54.380        27
54.390        27
54.400        40
54.410        33
54.420        20
54.430        33
54.440        13
54.450        20
54.460        33
54.470        13
54.480        27
54.490        27
54.500        33
54.510        53
54.520        27
54.530        40
54.540        20
54.550        27
54.560        20
54.570        40
54.580         7
54.590         7
54.600        20
54.610        33
54.620        20
54.630        20
54.640        40
54.650        33
54.660        27
54.670        47
54.680        20
54.690         7
54.700        20
54.710        13
54.720        13
54.730        13
54.740        20
54.750        40
54.760        13
54.770        33
54.780        13
54.790        53
54.800        20
54.810        13
54.820        47
54.830        33
54.840        47
54.850        47
54.860        27
54.870        13
54.880        40
54.890        13
54.900        40
54.910        20
54.920        33
54.930        47
54.940        13
54.950        13
54.960        47
54.970        40
54.980        47
54.990        33
55.000        20
55.010        40
55.020        60
55.030        20
55.040        20
55.050        13
55.060        40
55.070        47
55.080        40
55.090        33
55.100        33
55.110        27
55.120        67
55.130        20
55.140        33
55.150        47
55.160        13
55.170         7
55.180        13
55.190        53
55.200        53
55.210        27
55.220        27
55.230        13
55.240        20
55.250        27
55.260        40
55.270        47
55.280        27
55.290        27
55.300        27
55.310        33
55.320        47
55.330        40
55.340        20
55.350        33
55.360        33
55.370        53
55.380        27
55.390        13
55.400        33
55.410        20
55.420        20
55.430        27
55.440        20
55.450        13
55.460        20
55.470        47
55.480        13
55.490        13
55.500        27
55.510        47
55.520        47
55.530         7
55.540        33
55.550        20
55.560        40
55.570        20
55.580        20
55.590        27
55.600        33
55.610        20
55.620        33
55.630        53
55.640        27
55.650        40
55.660        33
55.670        20
55.680        80
55.690        20
55.700        40
55.710        13
55.720        33
55.730        33
55.740        13
55.750        20
55.760        33
55.770        20
55.780        20
55.790        33
55.800        33
55.810        27
55.820        33
55.830        20
55.840        27
55.850        27
55.860        73
55.870        27
55.880         7
55.890        33
55.900        33
55.910        27
55.920        47
55.930        40
55.940        47
55.950        40
55.960        27
55.970        20
55.980        13
55.990        40
56.000        60
56.010        40
56.020        13
56.030         7
56.040        40
56.050         0
56.060        47
56.070        40
56.080        47
56.090        40
56.100        20
56.110        33
56.120        40
56.130        20
56.140        20
56.150        20
56.160        20
56.170        40
56.180        47
56.190        40
56.200        20
56.210        20
56.220        47
56.230        27
56.240        47
56.250        47
56.260        13
56.270         7
56.280        27
56.290        27
56.300        20
56.310        47
56.320        47
56.330        33
56.340        27
56.350        53
56.360        53
56.370         7
56.380        13
56.390        47
56.400        53
56.410        40
56.420        47
56.430        20
56.440        27
56.450        33
56.460        40
56.470        13
56.480        53
56.490        20
56.500        40
56.510        20
56.520        27
56.530        13
56.540        27
56.550        47
56.560        13
56.570        33
56.580        27
56.590        60
56.600        20
56.610        27
56.620        60
56.630        20
56.640        33
56.650        27
56.660        20
56.670        67
56.680        47
56.690        20
56.700        20
56.710        33
56.720        27
56.730        40
56.740        60
56.750        27
56.760        40
56.770        53
56.780        33
56.790        40
56.800        27
56.810        47
56.820        20
56.830        13
56.840        33
56.850        33
56.860        40
56.870        53
56.880        33
56.890        47
56.900        20
56.910        33
56.920        33
56.930        67
56.940        60
56.950        40
56.960         7
56.970        27
56.980        20
56.990        33
57.000        20
57.010        33
57.020        53
57.030        40
57.040        20
57.050        13
57.060        20
57.070        33
57.080        67
57.090        60
57.100        53
57.110        53
57.120        87
57.130        93
57.140        13
57.150        73
57.160        67
57.170        47
57.180        67
57.190        13
57.200        40
57.210        40
57.220        93
57.230        20
57.240        47
57.250        67
57.260        73
57.270        60
57.280        40
57.290        60
57.300        53
57.310        33
57.320        67
57.330        53
57.340        67
57.350       100
57.360        27
57.370        80
57.380        60
57.390       107
57.400        40
57.410        80
57.420        73
57.430        47
57.440        60
57.450       100
57.460        87
57.470        67
57.480       147
57.490        80
57.500       107
57.510       160
57.520       140
57.530        93
57.540       200
57.550       113
57.560       153
57.570       200
57.580       247
57.590       213
57.600       193
57.610       187
57.620       253
57.630       247
57.640       220
57.650       187
57.660       200
57.670       240
57.680       193
57.690       200
57.700       200
57.710       213
57.720       173
57.730       167
57.740       127
57.750       213
57.760       173
57.770       187
57.780       153
57.790       127
57.800       180
57.810       147
57.820       193
57.830       233
57.840       187
57.850       160
57.860       187
57.870       140
57.880       133
57.890       167
57.900       207
57.910       187
57.920       240
57.930       193
57.940       193
57.950       113
57.960       200
57.970       180
57.980       160
57.990       227
58.000       113
58.010       153
58.020       100
58.030       133
58.040       180
58.050       140
58.060       113
58.070       173
58.080        87
58.090        93
58.100       113
58.110       107
58.120       127
58.130       100
58.140       107
58.150       100
58.160       100
58.170        80
58.180        93
58.190        73
58.200        33
58.210        87
58.220        53
58.230        80
58.240        60
58.250        67
58.260        53
58.270        47
58.280        27
58.290        53
58.300        20
58.310        20
58.320        47
58.330        40
58.340        27
58.350        33
58.360        40
58.370        40
58.380        53
58.390        47
58.400        20
58.410        27
58.420        33
58.430        33
58.440        67
58.450        60
58.460        33
58.470        53
58.480        27
58.490        87
58.500        47
58.510        33
58.520        20
58.530        40
58.540        60
58.550        27
58.560        60
58.570        53
58.580        20
58.590        67
58.600        33
58.610        33
58.620        27
58.630        20
58.640        33
58.650        40
58.660        33
58.670        47
58.680         7
58.690        33
58.700         7
58.710        33
58.720        27
58.730         7
58.740        33
58.750        33
58.760        20
58.770        40
58.780        33
58.790        20
58.800        60
58.810        33
58.820        60
58.830        47
58.840        13
58.850        27
58.860        33
58.870        33
58.880        33
58.890        27
58.900        20
58.910        27
58.920        33
58.930        13
58.940        47
58.950        13
58.960        40
58.970        33
58.980        40
58.990        20
59.000        20
59.010        40
59.020        27
59.030        20
59.040        20
59.050        27
59.060        33
59.070         7
59.080        13
59.090        27
59.100        33
59.110        33
59.120        60
59.130        40
59.140        40
59.150        33
59.160        13
59.170        53
59.180        47
59.190        47
59.200        60
59.210        33
59.220        20
59.230        33
59.240        27
59.250        20
59.260        53
59.270        47
59.280        33
59.290        47
59.300        13
59.310        33
59.320        27
59.330        40
59.340        33
59.350        13
59.360        13
59.370        20
59.380        47
59.390        27
59.400        27
59.410        27
59.420        40
59.430        40
59.440        13
59.450        27
59.460        47
59.470        47
59.480        33
59.490        20
59.500        20
59.510         7
59.520        13
59.530        27
59.540        27
59.550        53
59.560        40
59.570        27
59.580        13
59.590        40
59.600        13
59.610        40
59.620        47
59.630        33
59.640        13
59.650        20
59.660        60
59.670         0
59.680        47
59.690        40
59.700        20
59.710        47
59.720        27
59.730        53
59.740        33
59.750        13
59.760        27
59.770        40
59.780        60
59.790        20
59.800        33
59.810        53
59.820        20
59.830        27
59.840        27
59.850        13
59.860        20
59.870        20
59.880        33
59.890        33
59.900        33
59.910        33
59.920        33
59.930        33
59.940        20
59.950        27
59.960        27
59.970        73
59.980        40
59.990        60
60.000        33
