20.000         0
20.010         0
20.020         7
20.030        33
20.040        60
20.050        60
20.060        67
20.070        33
20.080        53
20.090        47
20.100        47
20.110        47
20.120        33
20.130        27
20.140        53
20.150        67
20.160        67
20.170        40
20.180        40
20.190        40
20.200        27
20.210        33
20.220        73
20.230        67
20.240        53
20.250        60
20.260        40
20.270        80
20.280        60
20.290        60
20.300        60
20.310        60
20.320        53
20.330        33
20.340        60
20.350        73
20.360        33
20.370        47
20.380        60
20.390        53
20.400        93
20.410        93
20.420        67
20.430        67
20.440        47
20.450        40
20.460        60
20.470        93
20.480        53
20.490        67
20.500        80
20.510        80
20.520        47
20.530       107
20.540        87
20.550        73
20.560        53
20.570        33
20.580        47
20.590        60
20.600        40
20.610       107
20.620        47
20.630        47
20.640        53
20.650        73
20.660        33
20.670        53
20.680        33
20.690        53
20.700        67
20.710        60
20.720        67
20.730        80
20.740        60
20.750        33
20.760        93
20.770        73
20.780        20
20.790        60
20.800        93
20.810        87
20.820        67
20.830        60
20.840        60
20.850        47
20.860        67
20.870        53
20.880        53
20.890        67
20.900        80
20.910        87
20.920        40
20.930        40
20.940        40
20.950        20
20.960        93
20.970        67
20.980        53
20.990        73
21.000        53
21.010        60
21.020        53
21.030        13
21.040        87
21.050        60
21.060        87
21.070        73
21.080        60
21.090        73
21.100        67
21.110        80
21.120        87
21.130        73
21.140        33
21.150        80
21.160        80
21.170        53
21.180        53
21.190        53
21.200        87
21.210        60
21.220       107
21.230        20
21.240        73
21.250        47
21.260        53
21.270        73
21.280        47
21.290        13
21.300        73
21.310        40
21.320        53
21.330        87
21.340        60
21.350        80
21.360        53
21.370        87
21.380        33
21.390        60
21.400        73
21.410        33
21.420        80
21.430        60
21.440        60
21.450        40
21.460        93
21.470        47
21.480        33
21.490        80
21.500        40
21.510        27
21.520        60
21.530        40
21.540        40
21.550        60
21.560        80
21.570        60
21.580        67
21.590        60
21.600        60
21.610        60
21.620        27
21.630        40
21.640        53
21.650        47
21.660        27
21.670        73
21.680        60
21.690        67
21.700        53
21.710        53
21.720        80
21.730        40
21.740        73
21.750        60
21.760        67
21.770        60
21.780        73
21.790        73
21.800        60
21.810        40
21.820        47
21.830        60
21.840        33
21.850        47
21.860        60
21.870        60
21.880        87
21.890        47
21.900        67
21.910        87
21.920        53
21.930        33
21.940        27
21.950        40
21.960        60
21.970        67
21.980        87
21.990        33
22.000        93
22.010        60
22.020        80
22.030        60
22.040        73
22.050        67
22.060        93
22.070        80
22.080        80
22.090        47
22.100        93
22.110        60
22.120        33
22.130        73
22.140        67
22.150        40
22.160        73
22.170        80
22.180        87
22.190        67
22.200        73
22.210        47
22.220        47
22.230        40
22.240        20
22.250        53
22.260        73
22.270        80
22.280        47
22.290        53
22.300        67
22.310        40
22.320        53
22.330        73
22.340        67
22.350        87
22.360        40
22.370        73
22.380        67
22.390        60
22.400        40
22.410        53
22.420        27
22.430        60
22.440        80
22.450        40
22.460        53
22.470        47
22.480       107
22.490        60
22.500        47
22.510        47
22.520        27
22.530       107
22.540        47
22.550        40
22.560        73
22.570        73
22.580        87
22.590        67
22.600       100
22.610        67
22.620       120
22.630        67
22.640        53
22.650        53
22.660        40
22.670        47
22.680        40
22.690        53
22.700        47
22.710        33
22.720        53
22.730        27
22.740        67
22.750        67
22.760        53
22.770        80
22.780        73
22.790        60
22.800        40
22.810        33
22.820        87
22.830        73
22.840        47
22.850        47
22.860        53
22.870        53
22.880        27
22.890        53
22.900        53
22.910        93
22.920        40
22.930        73
22.940        80
22.950        47
22.960        20
22.970        47
22.980        40
22.990        80
23.000        33
23.010        47
23.020        53
23.030        67
23.040        60
23.050        73
23.060       100
23.070        80
23.080        67
23.090        93
23.100        67
23.110        53
23.120        53
23.130        60
23.140        67
23.150        47
23.160        53
23.170        60
23.180        27
23.190        80
23.200        40
23.210        40
23.220        40
23.230        33
23.240        60
23.250       107
23.260        53
23.270        67
23.280        53
23.290        73
23.300        93
23.310        73
23.320        33
23.330        33
23.340        47
23.350        80
23.360        53
23.370        73
23.380        73
23.390        47
23.400        47
23.410        33
23.420        47
23.430        53
23.440        80
23.450        80
23.460        47
23.470        33
23.480        33
23.490        87
23.500        40
23.510        53
23.520        33
23.530        33
23.540        40
23.550        87
23.560        73
23.570        60
23.580        33
23.590        47
23.600        93
23.610        80
23.620        40
23.630        60
23.640        20
23.650        53
23.660        20
23.670        33
23.680        47
23.690        53
23.700        40
23.710        60
23.720        53
23.730        27
23.740         7
23.750        67
23.760        80
23.770        80
23.780        60
23.790        47
23.800        80
23.810        47
23.820        53
23.830        33
23.840        20
23.850        60
23.860        40
23.870        73
23.880        47
23.890        33
23.900        20
23.910        33
23.920        47
23.930        47
23.940        47
23.950        73
23.960        33
23.970        60
23.980        80
23.990        67
24.000        40
24.010        73
24.020        47
24.030        47
24.040        47
24.050        60
24.060        60
24.070        33
24.080        60
24.090        73
24.100        20
24.110        33
24.120        67
24.130        60
24.140        67
24.150       113
24.160        93
24.170        53
24.180        40
24.190        40
24.200        67
24.210        67
24.220        47
24.230        53
24.240        73
24.250        33
24.260        40
24.270        47
24.280        47
24.290        80
24.300        60
24.310        20
24.320        33
24.330        53
24.340        40
24.350        67
24.360        80
24.370        93
24.380        80
24.390        47
24.400        40
24.410        27
24.420        13
24.430        20
24.440        60
24.450        60
24.460        20
24.470        53
24.480        80
24.490        20
24.500        53
24.510        33
24.520        27
24.530        40
24.540        67
24.550        33
24.560        40
24.570        47
24.580       100
24.590        20
24.600        40
24.610        33
24.620        53
24.630        27
24.640        20
24.650        40
24.660        27
24.670        40
24.680        47
24.690        40
24.700        20
24.710        53
24.720        47
24.730        47
24.740        47
24.750        53
24.760        40
24.770        60
24.780        40
24.790       120
24.800        40
24.810        27
24.820        27
24.830        20
24.840        27
24.850        40
24.860        33
24.870        27
24.880        47
24.890        53
24.900        47
24.910        93
24.920        33
24.930        60
24.940        40
24.950        33
24.960        33
24.970        47
24.980        53
24.990        67
25.000        47
25.010        73
25.020        67
25.030        27
25.040        33
25.050        87
25.060        33
25.070        13
25.080        60
25.090        20
25.100       100
25.110        53
25.120        40
25.130        47
25.140        20
25.150        93
25.160        53
25.170       100
25.180        40
25.190        73
25.200        53
25.210        73
25.220        67
25.230        53
25.240        53
25.250        53
25.260        47
25.270        20
25.280        33
25.290        47
25.300        67
25.310        20
25.320        60
25.330        47
25.340        40
25.350        87
25.360        53
25.370        60
25.380        27
25.390        47
25.400        60
25.410        33
25.420        73
25.430        47
25.440        53
25.450        40
25.460        60
25.470        47
25.480        67
25.490        67
25.500        53
25.510        53
25.520        73
25.530        60
25.540        47
25.550        67
25.560       100
25.570        47
25.580       107
25.590        87
25.600       100
25.610        93
25.620        53
25.630        87
25.640        47
25.650       127
25.660        67
25.670        20
25.680        40
25.690        47
25.700        27
25.710        33
25.720        33
25.730        73
25.740        47
25.750        40
25.760        67
25.770        67
25.780        60
25.790        27
25.800        73
25.810        47
25.820        40
25.830        47
25.840        27
25.850        53
25.860        60
25.870        47
25.880        53
25.890        40
25.900        47
25.910        33
25.920        53
25.930        47
25.940        40
25.950        27
25.960        47
25.970        47
25.980        33
25.990        80
26.000        93
26.010        67
26.020        27
26.030        33
26.040        60
26.050        47
26.060        40
26.070         7
26.080        47
26.090        53
26.100        33
26.110        27
26.120        33
26.130        60
26.140        60
26.150        67
26.160        53
26.170        53
26.180        20
26.190        27
26.200        40
26.210        60
26.220        20
26.230        27
26.240        33
26.250        40
26.260        67
26.270         7
26.280        47
26.290        67
26.300        27
26.310        27
26.320        40
26.330        27
26.340        33
26.350        40
26.360        47
26.370        33
26.380        27
26.390        60
26.400        67
26.410        40
26.420        33
26.430        47
26.440        67
26.450        40
26.460        20
26.470        47
26.480        33
26.490        60
26.500        53
26.510        33
26.520        73
26.530        47
26.540        47
26.550        60
26.560       107
26.570        40
26.580        47
26.590        60
26.600        47
26.610        47
26.620        40
26.630        60
26.640        60
26.650        20
26.660        20
26.670        67
26.680        47
26.690        53
26.700        20
26.710        27
26.720        40
26.730        27
26.740        47
26.750        33
26.760        33
26.770        47
26.780        60
26.790        47
26.800        53
26.810        33
26.820        53
26.830        67
26.840        87
26.850        53
26.860        60
26.870        33
26.880        47
26.890        33
26.900        60
26.910        53
26.920        73
26.930        60
26.940        67
26.950        67
26.960        33
26.970        53
26.980        53
26.990        53
27.000        53
27.010        33
27.020        27
27.030        27
27.040        47
27.050        33
27.060        27
27.070        47
27.080        53
27.090        20
27.100        53
27.110        53
27.120        13
27.130        27
27.140        33
27.150        33
27.160        33
27.170        67
27.180        27
27.190        40
27.200        60
27.210        33
27.220        33
27.230        33
27.240        13
27.250        53
27.260        33
27.270        60
27.280        40
27.290        47
27.300        33
27.310        40
27.320        33
27.330        47
27.340        40
27.350        47
27.360        27
27.370        27
27.380        13
27.390        47
27.400        53
27.410        33
27.420        40
27.430        13
27.440        20
27.450        53
27.460        40
27.470        27
27.480        27
27.490        60
27.500        27
27.510        27
27.520        27
27.530        13
27.540        20
27.550        40
27.560        33
27.570        40
27.580        80
27.590        33
27.600        33
27.610        33
27.620        67
27.630        47
27.640        40
27.650        67
27.660        33
27.670        27
27.680        60
27.690        27
27.700        20
27.710        67
27.720        47
27.730        33
27.740        40
27.750        47
27.760        47
27.770        33
27.780        60
27.790        47
27.800        33
27.810        33
27.820        40
27.830        27
27.840        47
27.850        47
27.860        47
27.870        47
27.880        53
27.890        40
27.900        33
27.910        27
27.920        27
27.930        40
27.940        27
27.950        80
27.960        20
27.970        80
27.980        33
27.990        40
28.000        40
28.010        33
28.020        40
28.030        40
28.040        13
28.050        27
28.060        67
28.070        47
28.080        40
28.090        13
28.100        40
28.110        33
28.120        27
28.130        40
28.140        93
28.150        53
28.160        40
28.170        20
28.180         7
28.190        33
28.200        33
28.210         7
28.220        73
28.230        20
28.240        27
28.250        47
28.260        60
28.270        20
28.280        53
28.290         7
28.300        40
28.310        33
28.320        40
28.330        47
28.340        80
28.350        60
28.360        53
28.370        20
28.380        27
28.390        13
28.400        40
28.410        33
28.420        33
28.430        33
28.440        60
28.450        20
28.460        40
28.470        60
28.480        33
28.490        27
28.500        33
28.510        40
28.520        47
28.530        27
28.540        40
28.550        33
28.560        27
28.570        40
28.580        33
28.590        27
28.600        40
28.610        40
28.620        47
28.630        53
28.640        33
28.650        60
28.660        80
28.670        33
28.680        27
28.690        47
28.700        27
28.710        60
28.720        33
28.730        47
28.740        40
28.750        27
28.760        53
28.770        67
28.780        33
28.790        40
28.800        20
28.810        40
28.820        27
28.830        27
28.840        27
28.850        47
28.860        40
28.870        67
28.880        60
28.890        53
28.900        40
28.910        40
28.920        47
28.930        47
28.940        20
28.950         7
28.960        27
28.970        20
28.980        33
28.990         7
29.000        53
29.010        20
29.020        67
29.030        27
29.040        20
29.050        60
29.060        53
29.070        53
29.080        20
29.090        53
29.100        13
29.110        53
29.120        27
29.130        20
29.140        47
29.150        47
29.160        47
29.170        47
29.180        47
29.190        33
29.200        40
29.210        33
29.220        40
29.230        27
29.240        27
29.250        33
29.260        40
29.270         7
29.280        33
29.290        40
29.300        60
29.310        40
29.320        33
29.330        47
29.340        33
29.350        53
29.360        53
29.370        47
29.380        53
29.390        33
29.400        60
29.410        40
29.420        27
29.430        13
29.440        20
29.450        33
29.460        13
29.470        40
29.480        40
29.490        40
29.500        33
29.510        27
29.520        27
29.530        53
29.540        93
29.550        40
29.560        20
29.570        27
29.580        67
29.590        47
29.600        33
29.610        47
29.620        33
29.630        47
29.640        27
29.650        27
29.660        33
29.670        20
29.680        47
29.690        47
29.700        33
29.710        27
29.720        53
29.730        33
29.740        27
29.750        60
29.760         0
29.770        13
29.780         7
29.790        27
29.800        53
29.810        47
29.820        27
29.830        13
29.840        53
29.850        40
29.860        33
29.870        27
29.880        27
29.890        20
29.900        40
29.910        13
29.920        40
29.930        27
29.940        40
29.950        33
29.960        27
29.970        33
29.980        67
29.990        53
30.000        20
30.010        40
30.020        33
30.030        53
30.040        53
30.050        27
30.060         7
30.070        33
30.080        53
30.090        33
30.100        60
30.110        27
30.120        20
30.130        40
30.140        27
30.150        33
30.160        20
30.170        47
30.180        47
30.190        47
30.200        20
30.210        27
30.220        73
30.230        53
30.240        33
30.250        13
30.260        40
30.270        20
30.280        27
30.290        27
30.300        53
30.310        40
30.320        40
30.330        47
30.340        47
30.350        13
30.360        20
30.370        60
30.380        13
30.390        13
30.400        20
30.410        20
30.420        20
30.430        47
30.440        40
30.450         0
30.460        27
30.470        20
30.480        20
30.490        53
30.500        53
30.510        13
30.520        20
30.530        13
30.540        53
30.550        47
30.560        27
30.570        20
30.580        27
30.590        20
30.600        20
30.610        47
30.620        53
30.630        27
30.640        27
30.650        47
30.660        40
30.670        13
30.680        20
30.690        33
30.700         7
30.710        80
30.720        73
30.730        13
30.740        13
30.750        73
30.760        27
30.770        47
30.780        27
30.790        33
30.800        33
30.810        27
30.820        33
30.830        20
30.840        73
30.850        40
30.860        13
30.870        33
30.880         7
30.890        40
30.900        27
30.910         7
30.920        40
30.930        53
30.940        20
30.950        13
30.960        33
30.970        13
30.980         7
30.990        13
31.000        33
31.010        33
31.020        13
31.030        20
31.040        20
31.050        40
31.060        33
31.070        27
31.080        27
31.090        67
31.100        47
31.110        20
31.120        33
31.130        20
31.140        40
31.150        27
31.160         7
31.170        27
31.180        47
31.190        47
31.200        40
31.210        33
31.220        40
31.230        27
31.240        53
31.250        33
31.260        53
31.270        27
31.280        67
31.290        53
31.300        40
31.310        40
31.320        20
31.330        40
31.340        53
31.350        47
31.360        40
31.370        13
31.380        20
31.390        13
31.400        27
31.410        33
31.420        27
31.430        40
31.440        33
31.450        20
31.460        13
31.470        13
31.480        13
31.490        33
31.500        20
31.510        33
31.520        27
31.530        13
31.540        47
31.550        33
31.560        20
31.570        27
31.580        27
31.590        40
31.600        33
31.610        27
31.620        13
31.630        40
31.640        47
31.650        53
31.660        73
31.670        40
31.680        40
31.690        20
31.700        47
31.710        13
31.720        27
31.730        47
31.740        20
31.750        13
31.760        40
31.770        33
31.780        20
31.790        67
31.800        13
31.810        47
31.820        40
31.830        20
31.840        27
31.850        33
31.860        40
31.870        27
31.880        40
31.890        60
31.900        47
31.910        20
31.920        27
31.930         7
31.940        20
31.950        20
31.960        33
31.970        47
31.980        47
31.990        20
32.000        40
32.010         7
32.020        47
32.030        40
32.040        27
32.050        27
32.060        13
32.070        13
32.080        20
32.090        47
32.100        20
32.110        13
32.120        13
32.130        20
32.140        27
32.150        40
32.160        20
32.170        27
32.180        60
32.190        13
32.200        53
32.210         7
32.220        20
32.230        27
32.240        20
32.250        40
32.260        33
32.270         0
32.280        27
32.290        40
32.300        40
32.310        53
32.320         7
32.330        53
32.340        27
32.350        73
32.360        40
32.370        20
32.380        20
32.390        20
32.400        47
32.410        20
32.420        20
32.430        20
32.440         7
32.450        27
32.460        33
32.470        20
32.480        47
32.490        27
32.500        13
32.510        33
32.520        20
32.530        20
32.540        40
32.550        40
32.560        13
32.570         7
32.580        33
32.590         7
32.600        27
32.610        40
32.620        40
32.630        33
32.640        40
32.650        53
32.660        13
32.670        20
32.680        20
32.690        27
32.700        13
32.710        13
32.720        53
32.730        40
32.740         7
32.750        47
32.760        20
32.770         7
32.780        40
32.790        27
32.800        47
32.810        20
32.820        60
32.830        13
32.840        40
32.850        40
32.860        53
32.870        33
32.880        33
32.890        33
32.900        47
32.910        27
32.920        20
32.930        33
32.940        47
32.950        33
32.960        27
32.970        47
32.980         7
32.990        27
33.000        27
33.010        27
33.020        33
33.030        33
33.040        33
33.050        20
33.060        33
33.070        27
33.080        47
33.090        27
33.100        20
33.110        40
33.120        60
33.130        13
33.140        13
33.150        27
33.160        40
33.170        40
33.180        13
33.190        53
33.200        47
33.210        20
33.220        27
33.230        13
33.240        33
33.250        53
33.260        33
33.270        40
33.280        47
33.290        27
33.300         7
33.310        53
33.320        33
33.330        27
33.340        27
33.350        33
33.360        27
33.370        47
33.380        40
33.390        27
33.400         7
33.410        40
33.420        27
33.430        33
33.440        27
33.450        27
33.460        40
33.470        53
33.480        13
33.490        33
33.500        80
33.510         0
33.520        40
33.530        20
33.540        20
33.550        33
33.560        33
33.570        60
33.580        33
33.590        27
33.600        33
33.610        20
33.620        53
33.630        20
33.640        53
33.650        27
33.660        47
33.670        33
33.680        13
33.690        13
33.700        13
33.710        13
33.720        20
33.730        33
33.740        27
33.750        60
33.760        13
33.770        27
33.780        47
33.790        40
33.800        27
33.810        47
33.820        53
33.830        20
33.840        53
33.850        13
33.860        47
33.870        47
33.880        33
33.890        33
33.900        40
33.910        40
33.920        20
33.930        33
33.940        40
33.950        40
33.960        40
33.970        40
33.980        47
33.990        27
34.000        47
34.010        20
34.020        47
34.030        33
34.040        33
34.050        40
34.060        53
34.070         7
34.080        13
34.090        27
34.100        33
34.110        47
34.120        33
34.130        27
34.140        20
34.150        20
34.160        27
34.170        47
34.180        47
34.190        13
34.200        40
34.210        40
34.220        47
34.230        40
34.240        27
34.250        20
34.260        13
34.270        33
34.280        13
34.290        60
34.300        33
34.310        33
34.320        20
34.330        53
34.340        40
34.350         7
34.360        47
34.370        13
34.380         0
34.390        27
34.400        53
34.410        27
34.420        20
34.430        13
34.440        20
34.450        40
34.460        33
34.470        53
34.480        20
34.490         0
34.500        27
34.510        40
34.520        60
34.530        53
34.540        20
34.550        27
34.560        33
34.570        67
34.580        33
34.590        53
34.600        20
34.610        27
34.620        33
34.630        13
34.640        53
34.650        33
34.660        13
34.670        33
34.680        53
34.690        27
34.700         7
34.710        27
34.720        20
34.730        27
34.740        20
34.750        40
34.760        40
34.770        13
34.780        13
34.790        40
34.800        20
34.810        13
34.820        20
34.830        27
34.840        53
34.850        53
34.860        73
34.870        27
34.880        33
34.890        13
34.900        33
34.910         7
34.920        60
34.930        40
34.940        53
34.950        53
34.960        33
34.970        40
34.980        60
34.990        87
35.000        80
35.010       120
35.020       120
35.030       153
35.040       160
35.050       213
35.060       240
35.070       267
35.080       220
35.090       140
35.100       147
35.110       173
35.120       187
35.130       260
35.140       220
35.150       333
35.160       273
35.170       347
35.180       373
35.190       287
35.200       273
35.210       293
35.220       227
35.230       267
35.240       260
35.250       227
35.260       200
35.270       140
35.280       167
35.290       160
35.300       147
35.310       160
35.320       180
35.330       140
35.340       100
35.350        67
35.360        73
35.370        67
35.380        40
35.390        60
35.400        67
35.410        27
35.420        53
35.430        53
35.440        47
35.450        53
35.460        80
35.470        47
35.480        40
35.490        93
35.500        87
35.510        87
35.520        80
35.530        87
35.540        73
35.550        47
35.560        67
35.570        80
35.580        80
35.590        73
35.600        67
35.610       120
35.620        87
35.630        73
35.640        53
35.650        87
35.660        93
35.670       107
35.680       107
35.690        87
35.700        87
35.710       120
35.720        80
35.730        73
35.740        73
35.750       100
35.760        73
35.770       100
35.780        80
35.790        53
35.800        60
35.810        67
35.820        53
35.830        87
35.840        53
35.850        67
35.860        80
35.870        47
35.880        60
35.890        60
35.900        60
35.910        47
35.920        73
35.930        67
35.940       100
35.950        53
35.960        20
35.970        60
35.980        47
35.990        73
36.000        40
36.010        47
36.020        47
36.030        40
36.040        87
36.050        27
36.060        67
36.070        27
36.080        20
36.090        60
36.100        27
36.110        20
36.120        40
36.130        53
36.140        87
36.150        60
36.160        87
36.170        20
36.180        47
36.190        27
36.200        47
36.210        53
36.220        27
36.230        20
36.240        60
36.250        40
36.260        73
36.270        47
36.280        60
36.290        27
36.300        40
36.310        33
36.320        53
36.330        33
36.340        47
36.350        47
36.360        40
36.370        73
36.380        67
36.390        33
36.400        13
36.410         7
36.420        27
36.430        40
36.440        60
36.450        20
36.460        47
36.470        33
36.480        47
36.490        60
36.500        20
36.510        20
36.520         7
36.530         7
36.540        87
36.550        33
36.560        20
36.570        20
36.580        40
36.590        53
36.600        27
36.610        33
36.620        33
36.630        33
36.640        47
36.650        47
36.660        73
36.670        33
36.680        40
36.690        27
36.700        47
36.710        27
36.720        47
36.730        20
36.740        53
36.750        33
36.760        33
36.770        40
36.780        33
36.790        33
36.800        53
36.810        53
36.820        33
36.830        13
36.840        27
36.850        53
36.860        20
36.870        40
36.880        60
36.890        40
36.900        27
36.910        53
36.920        20
36.930        53
36.940        40
36.950        47
36.960        47
36.970        40
36.980        67
36.990        47
37.000        20
37.010        67
37.020        53
37.030       100
37.040        53
37.050        47
37.060        47
37.070        60
37.080        40
37.090        47
37.100        40
37.110        73
37.120        27
37.130        40
37.140        20
37.150        33
37.160        47
37.170        40
37.180        60
37.190        67
37.200        20
37.210        47
37.220        40
37.230        47
37.240        73
37.250        53
37.260        13
37.270        20
37.280        40
37.290        33
37.300        53
37.310        47
37.320        53
37.330        33
37.340        47
37.350        40
37.360        13
37.370        67
37.380        13
37.390        33
37.400        67
37.410        47
37.420        80
37.430        47
37.440        60
37.450        33
37.460        53
37.470        87
37.480        40
37.490        13
37.500        40
37.510        20
37.520        33
37.530        53
37.540        33
37.550        67
37.560        53
37.570        47
37.580        47
37.590        20
37.600        53
37.610        40
37.620        80
37.630       100
37.640        60
37.650       133
37.660       100
37.670        73
37.680        80
37.690        80
37.700        60
37.710        67
37.720        60
37.730        67
37.740        93
37.750        67
37.760        67
37.770        60
37.780        53
37.790        80
37.800       120
37.810        67
37.820        60
37.830       127
37.840       100
37.850       120
37.860       100
37.870       100
37.880        60
37.890        60
37.900        60
37.910        87
37.920       120
37.930        47
37.940        53
37.950        93
37.960       107
37.970        67
37.980       100
37.990        87
38.000        93
38.010       113
38.020        60
38.030        53
38.040        53
38.050        67
38.060        87
38.070       100
38.080       107
38.090        80
38.100       100
38.110       120
38.120        87
38.130        87
38.140        87
38.150        80
38.160       120
38.170        87
38.180       100
38.190       140
38.200        87
38.210       120
38.220       153
38.230       133
38.240        67
38.250       113
38.260        93
38.270        93
38.280       107
38.290        93
38.300       160
38.310       127
38.320       153
38.330       120
38.340       113
38.350       113
38.360       147
38.370       133
38.380       120
38.390       200
38.400       127
38.410       147
38.420       133
38.430       133
38.440       160
38.450       120
38.460       187
38.470       153
38.480       133
38.490       173
38.500       120
38.510       113
38.520       260
38.530       207
38.540       147
38.550       213
38.560       200
38.570       220
38.580       193
38.590       207
38.600       180
38.610       180
38.620       267
38.630       280
38.640       167
38.650       227
38.660       220
38.670       213
38.680       240
38.690       267
38.700       280
38.710       233
38.720       280
38.730       253
38.740       253
38.750       227
38.760       287
38.770       260
38.780       280
38.790       253
38.800       307
38.810       320
38.820       300
38.830       300
38.840       353
38.850       287
38.860       327
38.870       300
38.880       333
38.890       313
38.900       367
38.910       433
38.920       393
38.930       407
38.940       293
38.950       433
38.960       440
38.970       433
38.980       387
38.990       420
39.000       480
39.010       460
39.020       560
39.030       593
39.040       500
39.050       440
39.060       546
39.070       486
39.080       520
39.090       593
39.100       733
39.110       633
39.120       713
39.130       686
39.140       780
39.150       786
39.160       833
39.170      1053
39.180       900
39.190       893
39.200      1033
39.210      1013
39.220       993
39.230      1180
39.240      1200
39.250      1439
39.260      1426
39.270      1546
39.280      1479
39.290      1579
39.300      1739
39.310      1953
39.320      2026
39.330      2066
39.340      2352
39.350      2372
39.360      2459
39.370      2592
39.380      2912
39.390      3079
39.400      3272
39.410      3505
39.420      3752
39.430      3672
39.440      4065
39.450      4265
39.460      4898
39.470      4825
39.480      5231
39.490      5578
39.500      6004
39.510      6178
39.520      6411
39.530      6837
39.540      6697
39.550      7064
39.560      7584
39.570      8117
39.580      8237
39.590      8463
39.600      8230
39.610      8810
39.620      8936
39.630      8870
39.640      9570
39.650      9356
39.660      9596
39.670      8990
39.680      9183
39.690      9589
39.700      9536
39.710      9356
39.720      9030
39.730      9110
39.740      9190
39.750      8597
39.760      8836
39.770      8303
39.780      8290
39.790      7923
39.800      7724
39.810      7930
39.820      7650
39.830      7197
39.840      6717
39.850      6977
39.860      6257
39.870      5811
39.880      5724
39.890      5558
39.900      5464
39.910      4605
39.920      4838
39.930      4758
39.940      4232
39.950      3978
39.960      4418
39.970      3932
39.980      3745
39.990      3652
40.000      3419
40.010      3312
40.020      3472
40.030      3025
40.040      3012
40.050      3005
40.060      2739
40.070      2672
40.080      2592
40.090      2519
40.100      2499
40.110      2592
40.120      2053
40.130      2159
40.140      1866
40.150      1786
40.160      1753
40.170      1933
40.180      1733
40.190      1679
40.200      1459
40.210      1699
40.220      1533
40.230      1533
40.240      1526
40.250      1459
40.260      1253
40.270      1393
40.280      1153
40.290      1306
40.300      1213
40.310      1259
40.320      1266
40.330      1160
40.340      1153
40.350      1153
40.360      1193
40.370      1206
40.380       900
40.390       966
40.400       906
40.410       953
40.420       833
40.430       880
40.440       813
40.450       826
40.460       840
40.470       713
40.480       726
40.490       886
40.500       866
40.510       786
40.520       733
40.530       666
40.540       760
40.550       673
40.560       746
40.570       546
40.580       620
40.590       593
40.600       553
40.610       566
40.620       600
40.630       613
40.640       546
40.650       566
40.660       553
40.670       533
40.680       486
40.690       393
40.700       460
40.710       553
40.720       387
40.730       387
40.740       493
40.750       373
40.760       540
40.770       473
40.780       440
40.790       446
40.800       426
40.810       460
40.820       367
40.830       320
40.840       367
40.850       273
40.860       360
40.870       393
40.880       387
40.890       287
40.900       307
40.910       360
40.920       373
40.930       433
40.940       340
40.950       307
40.960       327
40.970       287
40.980       293
40.990       360
41.000       267
41.010       287
41.020       273
41.030       293
41.040       340
41.050       280
41.060       393
41.070       247
41.080       327
41.090       287
41.100       247
41.110       260
41.120       180
41.130       207
41.140       213
41.150       200
41.160       207
41.170       213
41.180       240
41.190       207
41.200       240
41.210       200
41.220       233
41.230       173
41.240       160
41.250       207
41.260       187
41.270       180
41.280       220
41.290       173
41.300       260
41.310       207
41.320       173
41.330       227
41.340       173
41.350       220
41.360       187
41.370       147
41.380       213
41.390       207
41.400       113
41.410       187
41.420       167
41.430       193
41.440       140
41.450       193
41.460       140
41.470       133
41.480       180
41.490       180
41.500       227
41.510       147
41.520       133
41.530       120
41.540       193
41.550       160
41.560       147
41.570       227
41.580       133
41.590       207
41.600       187
41.610       140
41.620       167
41.630       220
41.640       207
41.650       207
41.660       267
41.670       240
41.680       220
41.690       313
41.700       280
41.710       300
41.720       347
41.730       247
41.740       227
41.750       260
41.760       213
41.770       247
41.780       227
41.790       253
41.800       240
41.810       127
41.820       147
41.830       213
41.840       220
41.850       220
41.860       207
41.870       120
41.880       187
41.890       147
41.900       160
41.910       113
41.920        80
41.930       113
41.940       113
41.950       107
41.960       113
41.970       127
41.980       113
41.990       113
42.000        80
42.010       120
42.020       133
42.030       120
42.040       127
42.050       107
42.060        93
42.070        80
42.080       127
42.090        87
42.100        80
42.110        73
42.120        67
42.130       100
42.140       100
42.150       100
42.160        80
42.170       147
42.180       107
42.190       133
42.200        80
42.210       107
42.220        87
42.230        67
42.240       107
42.250       113
42.260       107
42.270       153
42.280       120
42.290       113
42.300        47
42.310       107
42.320        67
42.330        80
42.340        80
42.350        60
42.360       100
42.370        33
42.380        80
42.390        47
42.400        80
42.410        73
42.420        80
42.430        87
42.440       120
42.450       120
42.460        73
42.470        73
42.480        87
42.490        60
42.500        80
42.510       100
42.520        93
42.530       153
42.540        87
42.550        67
42.560        47
42.570        67
42.580       107
42.590        53
42.600        67
42.610        93
42.620        73
42.630        80
42.640        73
42.650        60
42.660        47
42.670        60
42.680        67
42.690        73
42.700        27
42.710        80
42.720       120
42.730        60
42.740        53
42.750        73
42.760        87
42.770        40
42.780        27
42.790        47
42.800        47
42.810        47
42.820        60
42.830        27
42.840        60
42.850        60
42.860        60
42.870        73
42.880        33
42.890        47
42.900        73
42.910       100
42.920        93
42.930        60
42.940        73
42.950        33
42.960        60
42.970        67
42.980        67
42.990        53
43.000       100
43.010        33
43.020        60
43.030        33
43.040        60
43.050        73
43.060        60
43.070        53
43.080        40
43.090       140
43.100        67
43.110        93
43.120        47
43.130       120
43.140        67
43.150        40
43.160        60
43.170        80
43.180        47
43.190        80
43.200        60
43.210        60
43.220        93
43.230        60
43.240       100
43.250        80
43.260        73
43.270        53
43.280       140
43.290        87
43.300       100
43.310       120
43.320       100
43.330       120
43.340        87
43.350       100
43.360       167
43.370       107
43.380       107
43.390       160
43.400       107
43.410       127
43.420       120
43.430       107
43.440        87
43.450       113
43.460        80
43.470        87
43.480        87
43.490       127
43.500       107
43.510        67
43.520        93
43.530        40
43.540       120
43.550       107
43.560        67
43.570        73
43.580        67
43.590        67
43.600        73
43.610        33
43.620        80
43.630        67
43.640        53
43.650        60
43.660        53
43.670        67
43.680        67
43.690        40
43.700        47
43.710        87
43.720        60
43.730        53
43.740        40
43.750        40
43.760        27
43.770        80
43.780        93
43.790        40
43.800        27
43.810        73
43.820       100
43.830        33
43.840        53
43.850        27
43.860        33
43.870        33
43.880        47
43.890        60
43.900        47
43.910        67
43.920        47
43.930        40
43.940        80
43.950        33
43.960        20
43.970        27
43.980        53
43.990        60
44.000        53
44.010        33
44.020        60
44.030        47
44.040        53
44.050        67
44.060        40
44.070        47
44.080        60
44.090        47
44.100        67
44.110        53
44.120        53
44.130        27
44.140        53
44.150        20
44.160        60
44.170        40
44.180        73
44.190        40
44.200        27
44.210        73
44.220        60
44.230        80
44.240        60
44.250       120
44.260        67
44.270        80
44.280        47
44.290        53
44.300        47
44.310        73
44.320        60
44.330        53
44.340        53
44.350        53
44.360        40
44.370        47
44.380        60
44.390        47
44.400        47
44.410        60
44.420        47
44.430        73
44.440        20
44.450        53
44.460        87
44.470        47
44.480        47
44.490        80
44.500        80
44.510        53
44.520        80
44.530        47
44.540        40
44.550       113
44.560        53
44.570        47
44.580        27
44.590        73
44.600        40
44.610        67
44.620        47
44.630        20
44.640        53
44.650        27
44.660        27
44.670        47
44.680        53
44.690        67
44.700        53
44.710        67
44.720        47
44.730        40
44.740        33
44.750        47
44.760        60
44.770        40
44.780        27
44.790        47
44.800        20
44.810        60
44.820        67
44.830        53
44.840        53
44.850        33
44.860        60
44.870        73
44.880        80
44.890        47
44.900        33
44.910        33
44.920        60
44.930        47
44.940        20
44.950        47
44.960        73
44.970        33
44.980        40
44.990        87
45.000        73
45.010        67
45.020        87
45.030        40
45.040        60
45.050        60
45.060        87
45.070        47
45.080        40
45.090        53
45.100        67
45.110        40
45.120        20
45.130        47
45.140        40
45.150        80
45.160        47
45.170        53
45.180        67
45.190        60
45.200        67
45.210        27
45.220        60
45.230        33
45.240        40
45.250        87
45.260        47
45.270        47
45.280        53
45.290        40
45.300        27
45.310        47
45.320        20
45.330        47
45.340        47
45.350        47
45.360        73
45.370        87
45.380        40
45.390        40
45.400        53
45.410        47
45.420        20
45.430        67
45.440        60
45.450        20
45.460        67
45.470        53
45.480        20
45.490        47
45.500        60
45.510        47
45.520        87
45.530        20
45.540        60
45.550        47
45.560        33
45.570        60
45.580        47
45.590        60
45.600        33
45.610        67
45.620        73
45.630        40
45.640        60
45.650        80
45.660        53
45.670        53
45.680        47
45.690        80
45.700        53
45.710        60
45.720        40
45.730        40
45.740        67
45.750        40
45.760        33
45.770        80
45.780        40
45.790        53
45.800        33
45.810        40
45.820        40
45.830        60
45.840        47
45.850        53
45.860        67
45.870        93
45.880        87
45.890        40
45.900        53
45.910        53
45.920        33
45.930        67
45.940        53
45.950        67
45.960        40
45.970        27
45.980       113
45.990        67
46.000        60
46.010        47
46.020        73
46.030        40
46.040        53
46.050        73
46.060        40
46.070        33
46.080       100
46.090        80
46.100        60
46.110        60
46.120        27
46.130        67
46.140        53
46.150        40
46.160        33
46.170        67
46.180        40
46.190        67
46.200        60
46.210        40
46.220        53
46.230        40
46.240        47
46.250        33
46.260        60
46.270        20
46.280        60
46.290        20
46.300        33
46.310        80
46.320        47
46.330        40
46.340        60
46.350        60
46.360        67
46.370        53
46.380        47
46.390        33
46.400        47
46.410        40
46.420         7
46.430        53
46.440        13
46.450        40
46.460        33
46.470        80
46.480        27
46.490        40
46.500        27
46.510        40
46.520        73
46.530        20
46.540        27
46.550        47
46.560        40
46.570        40
46.580        33
46.590        47
46.600         7
46.610        33
46.620        53
46.630        40
46.640        40
46.650        53
46.660        53
46.670        33
46.680        20
46.690        53
46.700        40
46.710        27
46.720        33
46.730        40
46.740        60
46.750        67
46.760        47
46.770        47
46.780        60
46.790        40
46.800        27
46.810        53
46.820        33
46.830        40
46.840        27
46.850        33
46.860        40
46.870        53
46.880        87
46.890        40
46.900        20
46.910        53
46.920        27
46.930        40
46.940        67
46.950        20
46.960        27
46.970        40
46.980        27
46.990        40
47.000        40
47.010        67
47.020        33
47.030        40
47.040        40
47.050        13
47.060        33
47.070        47
47.080         7
47.090        20
47.100        60
47.110        53
47.120        47
47.130        40
47.140        47
47.150        33
47.160         7
47.170        40
47.180        60
47.190        40
47.200        20
47.210        13
47.220        27
47.230        33
47.240         7
47.250        20
47.260        20
47.270        33
47.280        13
47.290        67
47.300        27
47.310        47
47.320        53
47.330        40
47.340        47
47.350        27
47.360        13
47.370        40
47.380        60
47.390        27
47.400        60
47.410        40
47.420        47
47.430        20
47.440        33
47.450        27
47.460        47
47.470        60
47.480        27
47.490        20
47.500         7
47.510        33
47.520        73
47.530        67
47.540        13
47.550        53
47.560        33
47.570        20
47.580        40
47.590        67
47.600        53
47.610        13
47.620        27
47.630        53
47.640        20
47.650        20
47.660        33
47.670        40
47.680        60
47.690        40
47.700        60
47.710        33
47.720        27
47.730        47
47.740        20
47.750        20
47.760        33
47.770        60
47.780        27
47.790        33
47.800        47
47.810        33
47.820        53
47.830        47
47.840        40
47.850        40
47.860        13
47.870        33
47.880        60
47.890        33
47.900        33
47.910        27
47.920        20
47.930        47
47.940        33
47.950        27
47.960        20
47.970        47
47.980        40
47.990        33
48.000        47
48.010        33
48.020         7
48.030        20
48.040        27
48.050        47
48.060        27
48.070        27
48.080         7
48.090        33
48.100        47
48.110        27
48.120        33
48.130        27
48.140        20
48.150        60
48.160        27
48.170        60
48.180        20
48.190        27
48.200        33
48.210        27
48.220        27
48.230        33
48.240        40
48.250        27
48.260        40
48.270        33
48.280        40
48.290        33
48.300        13
48.310        27
48.320        53
48.330        27
48.340        27
48.350        20
48.360        20
48.370        20
48.380        13
48.390        33
48.400        27
48.410        27
48.420        40
48.430        27
48.440        27
48.450        27
48.460        33
48.470        33
48.480        27
48.490        40
48.500        33
48.510        33
48.520        40
48.530        27
48.540        27
48.550        27
48.560        47
48.570        20
48.580        33
48.590        33
48.600        27
48.610        20
48.620        47
48.630        20
48.640        13
48.650        40
48.660        33
48.670        13
48.680        27
48.690        13
48.700        20
48.710        27
48.720        33
48.730        27
48.740        53
48.750        27
48.760        40
48.770        20
48.780        13
48.790        20
48.800        27
48.810        33
48.820        33
48.830        47
48.840        33
48.850        33
48.860        33
48.870        27
48.880        27
48.890         7
48.900        20
48.910        13
48.920        13
48.930        20
48.940        33
48.950        20
48.960        27
48.970        13
48.980        47
48.990        40
49.000        20
49.010        40
49.020        40
49.030        27
49.040        13
49.050        33
49.060        40
49.070        33
49.080        33
49.090        27
49.100        47
49.110        13
49.120        33
49.130         7
49.140        40
49.150        13
49.160        20
49.170        13
49.180        40
49.190        27
49.200        40
49.210        27
49.220        20
49.230        27
49.240        33
49.250        20
49.260        33
49.270        27
49.280        20
49.290        27
49.300        40
49.310         7
49.320        53
49.330        33
49.340        47
49.350         7
49.360        40
49.370        13
49.380        33
49.390        13
49.400        33
49.410        27
49.420        20
49.430        33
49.440        27
49.450        53
49.460        53
49.470        20
49.480        40
49.490        47
49.500        33
49.510        33
49.520        27
49.530        13
49.540         7
49.550        20
49.560        27
49.570        20
49.580        20
49.590        33
49.600        40
49.610        20
49.620        40
49.630        20
49.640        13
49.650        20
49.660        20
49.670        20
49.680        33
49.690         7
49.700        33
49.710        27
49.720        47
49.730        67
49.740        27
49.750        40
49.760        40
49.770        20
49.780        20
49.790        33
49.800        33
49.810        40
49.820        40
49.830        27
49.840        27
49.850        40
49.860        13
49.870        47
49.880         7
49.890        27
49.900        40
49.910        20
49.920        27
49.930        13
49.940        20
49.950        33
49.960        20
49.970        33
49.980         7
49.990        27
50.000        27
50.010         7
50.020         7
50.030        47
50.040        13
50.050        20
50.060        40
50.070        13
50.080        20
50.090        27
50.100        47
50.110        20
50.120        20
50.130        33
50.140        40
50.150        27
50.160        20
50.170        20
50.180        13
50.190        20
50.200        20
50.210        13
50.220        13
50.230        13
50.240        27
50.250        27
50.260        20
50.270        13
50.280        33
50.290         0
50.300        27
50.310        20
50.320        13
50.330        20
50.340        33
50.350        27
50.360         7
50.370        27
50.380        40
50.390        47
50.400        40
50.410        40
50.420        20
50.430        53
50.440         7
50.450        27
50.460        33
50.470         0
50.480        20
50.490        47
50.500        33
50.510        13
50.520         7
50.530        13
50.540        47
50.550        20
50.560        27
50.570        27
50.580        13
50.590        47
50.600        73
50.610        27
50.620        20
50.630        20
50.640        13
50.650        20
50.660        27
50.670        13
50.680        20
50.690        20
50.700        33
50.710         0
50.720        13
50.730        13
50.740        33
50.750        20
50.760        33
50.770        27
50.780        27
50.790         7
50.800        13
50.810        27
50.820        13
50.830        20
50.840        47
50.850        33
50.860        20
50.870        20
50.880        33
50.890        27
50.900        13
50.910        47
50.920        33
50.930        40
50.940        20
50.950        40
50.960        47
50.970        20
50.980        13
50.990        27
51.000        33
51.010        27
51.020        13
51.030        27
51.040        20
51.050        20
51.060        27
51.070        20
51.080        33
51.090        27
51.100        27
51.110        20
51.120        20
51.130        27
51.140        27
51.150        13
51.160        33
51.170        20
51.180        20
51.190        27
51.200        13
51.210        20
51.220        27
51.230         7
51.240        13
51.250        13
51.260         7
51.270        13
51.280        13
51.290        27
51.300         7
51.310        40
51.320        27
51.330        13
51.340        13
51.350        13
51.360        60
51.370         7
51.380        27
51.390        40
51.400         7
51.410        13
51.420        40
51.430        13
51.440        40
51.450        13
51.460        27
51.470         7
51.480         7
51.490        47
51.500        13
51.510         7
51.520        60
51.530        20
51.540        20
51.550        33
51.560        20
51.570        13
51.580        20
51.590        33
51.600        13
51.610        20
51.620        13
51.630         7
51.640        20
51.650        27
51.660        67
51.670        13
51.680        20
51.690        20
51.700        20
51.710        33
51.720        33
51.730         7
51.740        33
51.750        13
51.760         0
51.770         7
51.780        27
51.790        20
51.800         7
51.810        13
51.820        13
51.830        13
51.840        33
51.850        13
51.860        20
51.870        27
51.880        27
51.890        27
51.900        20
51.910         7
51.920        40
51.930         7
51.940         0
51.950        20
51.960        13
51.970        27
51.980        33
51.990        20
52.000        13
52.010        33
52.020        27
52.030        33
52.040        13
52.050        20
52.060        20
52.070        27
52.080        13
52.090         0
52.100         7
52.110        33
52.120        40
52.130        33
52.140        13
52.150        13
52.160        40
52.170        13
52.180        13
52.190         7
52.200        27
52.210        20
52.220        27
52.230        20
52.240        20
52.250         7
52.260        13
52.270        33
52.280        20
52.290         7
52.300        27
52.310        20
52.320         7
52.330         7
52.340        33
52.350        13
52.360        13
52.370        20
52.380        13
52.390        13
52.400        13
52.410        40
52.420        20
52.430        20
52.440        40
52.450         0
52.460        27
52.470        33
52.480        13
52.490        13
52.500        40
52.510        53
52.520        33
52.530        20
52.540        33
52.550        13
52.560        53
52.570        53
52.580        73
52.590        80
52.600        33
52.610        60
52.620        47
52.630        33
52.640        47
52.650        53
52.660        27
52.670        60
52.680        13
52.690        13
52.700        33
52.710        27
52.720        33
52.730        13
52.740        27
52.750        53
52.760        20
52.770        20
52.780        13
52.790        13
52.800        20
52.810        33
52.820        33
52.830        33
52.840        20
52.850        33
52.860        27
52.870        20
52.880        20
52.890        40
52.900        40
52.910        13
52.920         7
52.930        20
52.940        13
52.950        27
52.960         7
52.970        20
52.980        13
52.990        20
53.000        33
53.010         7
53.020        20
53.030         7
53.040        27
53.050         7
53.060        27
53.070        20
53.080        20
53.090        60
53.100        13
53.110        20
53.120        20
53.130        13
53.140         7
53.150        20
53.160        20
53.170        13
53.180        27
53.190        20
53.200        13
53.210        13
53.220        27
53.230         7
53.240        13
53.250        13
53.260         7
53.270         7
53.280        20
53.290        47
53.300        33
53.310        13
53.320        20
53.330        40
53.340        20
53.350        13
53.360        20
53.370         7
53.380         0
53.390        13
53.400         0
53.410        20
53.420         7
53.430         7
53.440        13
53.450         7
53.460        33
53.470         0
53.480        13
53.490        20
53.500        13
53.510        27
53.520        27
53.530         0
53.540        13
53.550        13
53.560         7
53.570        20
53.580        13
53.590        20
53.600        13
53.610         7
53.620        13
53.630        27
53.640        13
53.650        33
53.660        40
53.670        13
53.680         0
53.690        20
53.700        20
53.710        20
53.720        13
53.730         7
53.740        13
53.750        20
53.760         7
53.770        33
53.780         7
53.790         7
53.800        13
53.810        27
53.820        47
53.830        40
53.840         7
53.850        20
53.860         7
53.870        20
53.880        20
53.890         7
53.900        27
53.910        13
53.920         7
53.930        20
53.940        13
53.950        27
53.960         0
53.970        13
53.980        13
53.990        20
54.000         0
54.010        13
54.020        27
54.030         7
54.040         0
54.050        13
54.060        13
54.070        33
54.080        13
54.090        27
54.100        27
54.110        33
54.120        33
54.130        27
54.140        27
54.150        20
54.160        13
54.170         7
54.180        20
54.190        20
54.200        20
54.210        13
54.220         7
54.230        20
54.240         7
54.250        13
54.260        20
54.270        33
54.280         7
54.290         7
54.300         0
54.310        13
54.320        20
54.330         7
54.340        33
54.350        20
54.360         7
54.370        13
54.380        13
54.390        40
54.400        20
54.410        13
54.420         7
54.430        20
54.440        20
54.450        33
54.460        40
54.470         7
54.480        20
54.490        33
54.500        40
54.510        20
54.520        20
54.530        53
54.540        20
54.550        13
54.560         0
54.570        13
54.580        13
54.590         0
54.600        27
54.610        13
54.620         7
54.630         0
54.640        33
54.650         0
54.660        27
54.670         7
54.680        13
54.690         0
54.700        27
54.710         7
54.720        20
54.730        13
54.740        40
54.750        27
54.760        20
54.770        20
54.780        33
54.790        13
54.800        33
54.810         7
54.820        20
54.830         7
54.840        13
54.850         7
54.860        33
54.870         7
54.880        13
54.890        20
54.900        53
54.910        13
54.920        40
54.930         7
54.940         7
54.950        33
54.960        33
54.970        20
54.980        20
54.990        20
55.000        13
55.010         7
55.020        40
55.030        13
55.040        13
55.050        20
55.060        40
55.070        20
55.080        13
55.090        27
55.100         7
55.110         7
55.120        20
55.130         0
55.140        33
55.150         0
55.160        20
55.170        27
55.180        33
55.190         7
55.200        20
55.210         7
55.220        13
55.230         7
55.240         7
55.250        40
55.260        20
55.270        27
55.280         7
55.290        33
55.300        13
55.310        27
55.320        33
55.330        33
55.340         7
55.350         7
55.360         7
55.370         7
55.380        20
55.390         7
55.400         0
55.410        27
55.420        13
55.430        20
55.440        13
55.450         7
55.460        20
55.470        33
55.480        47
55.490         0
55.500         7
55.510        27
55.520        20
55.530         7
55.540        13
55.550        27
55.560         0
55.570        53
55.580        27
55.590        13
55.600         7
55.610        40
55.620        13
55.630        33
55.640        20
55.650        20
55.660        47
55.670        13
55.680        20
55.690        13
55.700         0
55.710         7
55.720        33
55.730         7
55.740        27
55.750        33
55.760        33
55.770        27
55.780         0
55.790        13
55.800        27
55.810        13
55.820        33
55.830         0
55.840         7
55.850         7
55.860         7
55.870        27
55.880         0
55.890        27
55.900        40
55.910         7
55.920         0
55.930         0
55.940         7
55.950        47
55.960        27
55.970         0
55.980        13
55.990        20
56.000        33
56.010        13
56.020        13
56.030        33
56.040        13
56.050        13
56.060        20
56.070         7
56.080        20
56.090        13
56.100        20
56.110        27
56.120         7
56.130        13
56.140        20
56.150        13
56.160        27
56.170        20
56.180         0
56.190        27
56.200         0
56.210        13
56.220        13
56.230         0
56.240        27
56.250        20
56.260         0
56.270        13
56.280        27
56.290        20
56.300         7
56.310        33
56.320        13
56.330        20
56.340        20
56.350         0
56.360        33
56.370        27
56.380        20
56.390        33
56.400         7
56.410        13
56.420        13
56.430        27
56.440        20
56.450        27
56.460         0
56.470        33
56.480         0
56.490        13
56.500        33
56.510        13
56.520        33
56.530        20
56.540         0
56.550         0
56.560        40
56.570         7
56.580        13
56.590        13
56.600        20
56.610         0
56.620        27
56.630        33
56.640        13
56.650        27
56.660         7
56.670        20
56.680        20
56.690        20
56.700        13
56.710        33
56.720        20
56.730         7
56.740        27
56.750         0
56.760        13
56.770        13
56.780         0
56.790        13
56.800        27
56.810        33
56.820        20
56.830        13
56.840         7
56.850        13
56.860         7
56.870        13
56.880         7
56.890        40
56.900        13
56.910        13
56.920        40
56.930        27
56.940        13
56.950        20
56.960        13
56.970        20
56.980        27
56.990        33
57.000        27
57.010        20
57.020        13
57.030        33
57.040        33
57.050        20
57.060        13
57.070         0
57.080        13
57.090        27
57.100        13
57.110         7
57.120         0
57.130         7
57.140        13
57.150        13
57.160         7
57.170        13
57.180        27
57.190        33
57.200        33
57.210        20
57.220        20
57.230         0
57.240        40
57.250         7
57.260         7
57.270        13
57.280        40
57.290        53
57.300        13
57.310        40
57.320        27
57.330        60
57.340        40
57.350        47
57.360        40
57.370        60
57.380        13
57.390        40
57.400        33
57.410        47
57.420        60
57.430        60
57.440        47
57.450        60
57.460        93
57.470        67
57.480       160
57.490       187
57.500       233
57.510       333
57.520       373
57.530       480
57.540       566
57.550       620
57.560       566
57.570       413
57.580       360
57.590       300
57.600       213
57.610        93
57.620        67
57.630        67
57.640       107
57.650       153
57.660       153
57.670       173
57.680       260
57.690       247
57.700       287
57.710       320
57.720       180
57.730       260
57.740       187
57.750       120
57.760       107
57.770        27
57.780        53
57.790        40
57.800        33
57.810        20
57.820        27
57.830        40
57.840        20
57.850        33
57.860        20
57.870         7
57.880         7
57.890        47
57.900        13
57.910         0
57.920        20
57.930        13
57.940        27
57.950        20
57.960         7
57.970        27
57.980        20
57.990        27
58.000         7
58.010         7
58.020         7
58.030        20
58.040        40
58.050        13
58.060        13
58.070         0
58.080         7
58.090         0
58.100        27
58.110         0
58.120         0
58.130        13
58.140        20
58.150        20
58.160        20
58.170         7
58.180        13
58.190        20
58.200        27
58.210         7
58.220         7
58.230        13
58.240        27
58.250        27
58.260        47
58.270         7
58.280         7
58.290        27
58.300         7
58.310        40
58.320        20
58.330         7
58.340         0
58.350         0
58.360        20
58.370        27
58.380        27
58.390         7
58.400        13
58.410        13
58.420        13
58.430         7
58.440        27
58.450        27
58.460        27
58.470        13
58.480         7
58.490         7
58.500        13
58.510         0
58.520         7
58.530        13
58.540         7
58.550        33
58.560        20
58.570        27
58.580         0
58.590         7
58.600        13
58.610         0
58.620        13
58.630         7
58.640        33
58.650         7
58.660         7
58.670         7
58.680         0
58.690         7
58.700        20
58.710        20
58.720        13
58.730        27
58.740         0
58.750        33
58.760         7
58.770        13
58.780        20
58.790        20
58.800        27
58.810         0
58.820        20
58.830        13
58.840         7
58.850        20
58.860         0
58.870         7
58.880        13
58.890        13
58.900        20
58.910         0
58.920        13
58.930        33
58.940        13
58.950        27
58.960        33
58.970        27
58.980        13
58.990         7
59.000         7
59.010         7
59.020        13
59.030        13
59.040        27
59.050        13
59.060        13
59.070        13
59.080        13
59.090         0
59.100        40
59.110        13
59.120        13
59.130         7
59.140         7
59.150         0
59.160        33
59.170         7
59.180        13
59.190        20
59.200        20
59.210        13
59.220         0
59.230         0
59.240        13
59.250         7
59.260        20
59.270        33
59.280        33
59.290         7
59.300         7
59.310        27
59.320        13
59.330         7
59.340         0
59.350        33
59.360         7
59.370        33
59.380        20
59.390        33
59.400         7
59.410         0
59.420        60
59.430        27
59.440        27
59.450        27
59.460         7
59.470         7
59.480         7
59.490        13
59.500        33
59.510        20
59.520        13
59.530         7
59.540         7
59.550        40
59.560        13
59.570        20
59.580        20
59.590        27
59.600        13
59.610         7
59.620         0
59.630        27
59.640        20
59.650        20
59.660        40
59.670        13
59.680         7
59.690         7
59.700        13
59.710        20
59.720        13
59.730         7
59.740        27
59.750         7
59.760        13
59.770        13
59.780         7
59.790        40
59.800        13
59.810        33
59.820        27
59.830        13
59.840        13
59.850         0
59.860         7
59.870         0
59.880        20
59.890        27
59.900        20
59.910         7
59.920        13
59.930         0
59.940        20
59.950         0
59.960        20
59.970        13
59.980         7
59.990        13
60.000         7
