20.000        87
20.010       107
20.020        73
20.030        47
20.040        33
20.050        47
20.060        93
20.070        67
20.080        60
20.090        53
20.100        67
20.110        87
20.120        93
20.130        40
20.140        73
20.150        53
20.160        27
20.170        80
20.180        60
20.190        60
20.200        67
20.210        47
20.220        47
20.230        40
20.240        60
20.250        60
20.260        87
20.270        73
20.280        80
20.290        27
20.300        53
20.310        80
20.320        53
20.330        93
20.340        73
20.350        67
20.360        73
20.370        53
20.380        67
20.390        27
20.400        67
20.410        27
20.420        60
20.430        73
20.440        27
20.450        53
20.460       100
20.470       100
20.480        73
20.490        33
20.500        60
20.510        60
20.520        67
20.530        60
20.540        60
20.550        40
20.560        80
20.570        20
20.580        60
20.590        40
20.600        60
20.610        60
20.620        60
20.630        53
20.640        80
20.650        80
20.660        47
20.670        47
20.680        27
20.690        53
20.700        67
20.710        67
20.720        53
20.730        47
20.740        73
20.750        53
20.760        33
20.770        80
20.780        40
20.790        60
20.800       113
20.810        67
20.820        87
20.830        33
20.840        47
20.850        60
20.860        67
20.870        27
20.880        73
20.890        87
20.900        60
20.910        20
20.920        73
20.930        27
20.940        80
20.950        27
20.960        60
20.970        40
20.980        60
20.990        80
21.000        47
21.010        53
21.020        73
21.030        87
21.040        40
21.050        80
21.060        60
21.070        67
21.080        73
21.090        80
21.100        67
21.110        33
21.120        93
21.130        53
21.140        47
21.150        80
21.160        87
21.170        93
21.180        53
21.190        67
21.200        73
21.210        73
21.220        53
21.230        87
21.240        47
21.250        73
21.260        73
21.270        67
21.280        73
21.290        47
21.300       120
21.310        87
21.320        60
21.330        33
21.340        27
21.350       100
21.360        60
21.370        33
21.380        53
21.390        33
21.400        80
21.410        40
21.420        80
21.430        60
21.440        53
21.450        40
21.460       100
21.470        80
21.480        40
21.490        47
21.500        73
21.510        60
21.520       100
21.530        40
21.540        53
21.550        47
21.560        87
21.570        60
21.580        53
21.590        67
21.600        47
21.610        67
21.620        33
21.630        33
21.640       127
21.650        93
21.660        60
21.670        47
21.680        60
21.690        67
21.700        93
21.710        80
21.720        67
21.730        53
21.740        80
21.750        27
21.760        47
21.770        67
21.780        93
21.790        40
21.800       100
21.810        47
21.820        60
21.830        80
21.840        87
21.850        60
21.860        73
21.870        47
21.880        80
21.890        53
21.900        33
21.910        67
21.920        47
21.930        20
21.940        67
21.950        60
21.960        53
21.970        87
21.980        33
21.990       100
22.000       100
22.010        80
22.020        40
22.030        53
22.040        80
22.050        27
22.060        53
22.070        60
22.080        60
22.090        47
22.100        93
22.110        20
22.120        60
22.130        87
22.140        80
22.150        53
22.160       120
22.170        73
22.180        53
22.190        80
22.200        33
22.210        33
22.220        40
22.230        53
22.240        73
22.250        73
22.260        80
22.270        47
22.280        87
22.290        60
22.300        47
22.310        60
22.320        27
22.330        73
22.340        67
22.350        60
22.360        47
22.370        87
22.380        40
22.390        40
22.400       133
22.410        80
22.420        20
22.430        73
22.440        53
22.450        47
22.460        33
22.470        27
22.480        40
22.490        67
22.500        47
22.510        73
22.520        73
22.530        53
22.540        60
22.550        40
22.560       107
22.570        53
22.580        27
22.590        80
22.600        40
22.610       107
22.620        47
22.630        53
22.640        47
22.650        67
22.660        40
22.670        73
22.680        20
22.690        60
22.700        47
22.710        47
22.720       107
22.730        93
22.740        40
22.750        73
22.760        47
22.770        60
22.780        87
22.790        40
22.800        73
22.810        40
22.820        47
22.830        87
22.840        87
22.850        47
22.860        40
22.870       120
22.880        40
22.890        60
22.900        40
22.910        73
22.920        80
22.930        47
22.940        67
22.950        47
22.960        47
22.970        33
22.980        67
22.990        73
23.000        53
23.010        80
23.020        67
23.030        27
23.040        53
23.050        73
23.060        73
23.070        60
23.080        80
23.090        87
23.100       100
23.110        40
23.120        47
23.130        53
23.140        53
23.150        47
23.160        60
23.170        47
23.180        47
23.190        27
23.200        80
23.210        87
23.220       100
23.230        87
23.240        40
23.250        40
23.260        60
23.270        67
23.280        73
23.290       140
23.300        40
23.310        67
23.320        53
23.330        33
23.340        73
23.350        53
23.360        60
23.370        60
23.380        40
23.390        20
23.400        87
23.410       100
23.420        33
23.430        60
23.440       107
23.450        93
23.460        53
23.470        40
23.480        40
23.490        87
23.500        40
23.510        67
23.520        33
23.530        47
23.540        40
23.550        47
23.560        40
23.570        47
23.580        87
23.590        47
23.600        87
23.610        40
23.620        67
23.630        67
23.640        53
23.650       120
23.660        53
23.670        80
23.680        73
23.690        33
23.700        73
23.710        33
23.720        33
23.730        20
23.740        40
23.750        67
23.760        47
23.770        93
23.780        67
23.790        40
23.800        47
23.810        60
23.820       120
23.830        60
23.840        20
23.850        33
23.860        33
23.870        53
23.880        53
23.890        40
23.900        53
23.910        53
23.920        67
23.930        33
23.940        60
23.950        33
23.960        33
23.970        47
23.980        20
23.990        13
24.000        93
24.010       100
24.020        53
24.030        33
24.040        27
24.050        27
24.060        47
24.070        67
24.080        60
24.090        80
24.100        47
24.110        53
24.120        53
24.130        40
24.140       100
24.150        60
24.160        73
24.170        73
24.180       133
24.190        13
24.200        53
24.210        60
24.220        27
24.230        53
24.240        40
24.250        33
24.260        40
24.270        53
24.280        33
24.290        53
24.300        33
24.310        27
24.320        40
24.330        40
24.340        47
24.350        67
24.360        67
24.370        53
24.380        33
24.390        73
24.400       107
24.410        53
24.420        40
24.430        40
24.440        80
24.450        47
24.460        20
24.470        73
24.480        40
24.490        80
24.500        40
24.510        53
24.520        73
24.530        93
24.540        40
24.550        33
24.560        60
24.570        53
24.580        20
24.590        47
24.600       107
24.610        27
24.620        67
24.630        40
24.640        47
24.650        27
24.660        40
24.670        73
24.680        67
24.690        87
24.700        40
24.710        47
24.720        27
24.730        73
24.740        53
24.750        33
24.760        47
24.770        60
24.780        73
24.790        33
24.800        20
24.810        53
24.820        60
24.830        67
24.840        53
24.850        47
24.860        27
24.870        40
24.880        40
24.890        47
24.900        67
24.910        27
24.920        67
24.930        47
24.940        33
24.950        27
24.960        40
24.970        27
24.980        27
24.990        27
25.000        53
25.010        47
25.020        33
25.030        47
25.040        67
25.050        87
25.060        27
25.070        53
25.080        47
25.090        67
25.100        27
25.110        60
25.120        33
25.130        20
25.140        60
25.150        60
25.160        60
25.170        33
25.180        87
25.190        80
25.200        33
25.210        27
25.220        53
25.230        73
25.240        40
25.250        60
25.260        80
25.270        53
25.280        33
25.290        40
25.300        47
25.310        73
25.320        87
25.330        47
25.340        40
25.350        33
25.360        33
25.370        73
25.380        87
25.390        53
25.400        73
25.410        40
25.420        73
25.430        47
25.440        67
25.450        67
25.460        60
25.470        80
25.480        73
25.490        27
25.500        73
25.510        47
25.520        33
25.530        67
25.540       100
25.550       100
25.560        80
25.570        73
25.580        87
25.590        80
25.600       120
25.610        47
25.620       100
25.630        73
25.640        53
25.650        93
25.660        80
25.670        87
25.680        47
25.690        60
25.700        67
25.710        33
25.720        60
25.730        47
25.740        60
25.750        27
25.760        67
25.770        47
25.780        73
25.790        40
25.800        53
25.810        47
25.820        40
25.830        53
25.840        27
25.850        40
25.860        40
25.870        33
25.880        53
25.890        33
25.900        73
25.910        40
25.920        33
25.930        53
25.940        67
25.950        40
25.960        60
25.970        40
25.980        47
25.990        73
26.000        73
26.010        33
26.020        47
26.030        27
26.040        47
26.050        40
26.060        60
26.070        87
26.080        47
26.090        33
26.100        60
26.110        67
26.120        47
26.130        80
26.140        47
26.150        73
26.160        67
26.170        87
26.180        60
26.190        73
26.200        47
26.210        27
26.220        33
26.230        27
26.240        40
26.250        27
26.260        73
26.270        53
26.280        60
26.290        13
26.300        60
26.310        40
26.320        60
26.330        40
26.340        53
26.350        40
26.360        53
26.370        33
26.380        53
26.390        67
26.400        13
26.410        53
26.420        53
26.430        33
26.440        67
26.450        67
26.460        47
26.470        47
26.480        27
26.490        40
26.500        47
26.510         7
26.520        47
26.530        40
26.540        27
26.550        33
26.560        60
26.570         0
26.580        53
26.590        47
26.600        40
26.610        60
26.620        20
26.630        27
26.640        60
26.650        27
26.660        47
26.670        53
26.680        80
26.690        47
26.700        47
26.710        53
26.720        13
26.730        60
26.740        40
26.750        53
26.760        27
26.770        53
26.780        53
26.790        60
26.800        67
26.810        27
26.820        67
26.830        47
26.840        67
26.850        40
26.860        80
26.870        40
26.880        73
26.890        60
26.900        20
26.910        27
26.920        40
26.930        60
26.940        47
26.950        67
26.960        53
26.970        60
26.980        47
26.990        47
27.000        20
27.010        53
27.020        87
27.030        53
27.040        27
27.050         7
27.060        27
27.070        53
27.080        20
27.090        33
27.100        20
27.110        27
27.120         7
27.130        33
27.140        60
27.150        40
27.160        40
27.170        20
27.180        60
27.190        13
27.200        33
27.210        20
27.220        60
27.230        40
27.240        27
27.250        13
27.260        40
27.270        40
27.280        53
27.290        40
27.300        47
27.310        33
27.320        47
27.330        40
27.340         0
27.350        33
27.360        27
27.370        60
27.380        80
27.390        80
27.400        27
27.410        13
27.420        47
27.430        13
27.440        13
27.450        47
27.460        40
27.470        60
27.480        27
27.490        27
27.500         7
27.510        80
27.520        40
27.530        53
27.540        27
27.550        20
27.560        40
27.570        27
27.580        33
27.590        53
27.600        40
27.610        47
27.620        60
27.630        40
27.640        40
27.650        40
27.660        27
27.670        60
27.680        20
27.690        60
27.700        40
27.710        47
27.720        60
27.730        53
27.740        47
27.750        33
27.760        20
27.770        53
27.780        53
27.790        47
27.800        60
27.810        27
27.820        40
27.830        33
27.840        27
27.850        53
27.860        13
27.870        60
27.880        53
27.890        27
27.900        20
27.910        67
27.920        33
27.930        27
27.940        33
27.950        47
27.960        13
27.970        27
27.980        40
27.990        13
28.000        20
28.010        40
28.020        73
28.030        33
28.040        60
28.050        27
28.060        40
28.070        27
28.080        53
28.090        73
28.100        47
28.110        20
28.120        47
28.130         0
28.140        13
28.150        60
28.160        47
28.170        33
28.180         7
28.190        13
28.200        33
28.210        27
28.220        33
28.230        40
28.240        40
28.250        47
28.260        27
28.270        27
28.280         7
28.290        60
28.300        20
28.310        40
28.320        67
28.330        33
28.340        53
28.350        27
28.360        40
28.370        27
28.380        20
28.390        13
28.400        53
28.410        33
28.420        27
28.430        20
28.440        47
28.450        73
28.460        13
28.470        27
28.480        27
28.490        40
28.500        33
28.510        33
28.520        13
28.530        60
28.540        47
28.550        73
28.560        27
28.570        40
28.580        27
28.590        33
28.600        73
28.610        20
28.620        20
28.630        40
28.640        47
28.650        33
28.660        33
28.670        27
28.680        20
28.690        47
28.700        60
28.710        60
28.720         0
28.730        20
28.740        20
28.750        33
28.760        40
28.770        20
28.780        20
28.790        27
28.800        20
28.810        53
28.820        33
28.830         7
28.840        53
28.850        40
28.860        40
28.870        33
28.880        40
28.890        67
28.900        33
28.910        13
28.920        47
28.930        33
28.940        47
28.950        33
28.960        27
28.970        20
28.980         0
28.990        13
29.000        47
29.010        13
29.020        40
29.030        47
29.040        20
29.050         0
29.060         7
29.070        33
29.080        33
29.090        27
29.100        20
29.110        33
29.120        13
29.130        73
29.140        27
29.150        13
29.160        47
29.170        27
29.180        47
29.190        40
29.200        60
29.210        27
29.220        40
29.230         7
29.240        33
29.250        40
29.260        20
29.270        27
29.280        33
29.290        13
29.300        53
29.310        53
29.320        60
29.330        20
29.340        20
29.350        47
29.360        13
29.370        53
29.380        27
29.390        20
29.400        47
29.410        53
29.420        27
29.430        60
29.440        33
29.450        13
29.460        40
29.470        47
29.480         0
29.490        60
29.500        13
29.510         7
29.520        27
29.530        27
29.540        27
29.550        33
29.560        20
29.570        13
29.580        47
29.590        33
29.600        47
29.610        47
29.620        67
29.630        40
29.640        20
29.650        33
29.660        27
29.670        60
29.680         7
29.690        40
29.700        47
29.710        27
29.720        53
29.730        47
29.740        27
29.750        13
29.760        33
29.770        60
29.780        27
29.790        40
29.800        40
29.810        13
29.820        20
29.830        33
29.840        27
29.850        20
29.860        27
29.870        13
29.880        20
29.890        53
29.900        20
29.910        33
29.920        47
29.930        20
29.940        67
29.950        27
29.960        20
29.970        67
29.980        47
29.990        33
30.000        47
30.010        20
30.020        27
30.030         7
30.040        27
30.050         7
30.060        40
30.070        27
30.080        13
30.090         7
30.100        40
30.110        47
30.120        47
30.130        27
30.140        33
30.150        33
30.160        60
30.170        27
30.180        33
30.190        20
30.200        20
30.210        33
30.220        53
30.230        40
30.240        20
30.250        27
30.260        27
30.270        67
30.280        20
30.290        53
30.300        60
30.310        73
30.320        60
30.330        40
30.340        33
30.350        33
30.360        40
30.370        40
30.380        33
30.390        53
30.400        33
30.410        27
30.420        33
30.430        33
30.440        33
30.450        47
30.460        20
30.470        40
30.480        60
30.490         7
30.500        33
30.510        47
30.520        27
30.530        53
30.540        60
30.550        27
30.560        27
30.570        13
30.580        47
30.590        53
30.600        20
30.610        27
30.620         7
30.630        13
30.640        47
30.650        47
30.660        20
30.670         0
30.680        60
30.690        20
30.700        47
30.710        20
30.720        27
30.730        20
30.740        20
30.750        33
30.760        60
30.770        27
30.780        33
30.790        40
30.800        47
30.810        33
30.820        13
30.830        27
30.840        47
30.850        40
30.860        20
30.870        13
30.880        27
30.890        27
30.900        13
30.910        27
30.920        27
30.930        40
30.940        33
30.950        20
30.960        40
30.970        40
30.980        40
30.990        47
31.000        60
31.010        33
31.020         0
31.030        33
31.040        47
31.050        33
31.060        20
31.070        47
31.080        47
31.090        27
31.100        33
31.110        40
31.120        33
31.130        27
31.140        33
31.150        27
31.160        27
31.170        13
31.180        27
31.190        33
31.200        27
31.210        40
31.220        20
31.230        47
31.240        40
31.250        33
31.260        33
31.270        60
31.280        47
31.290        20
31.300        27
31.310        40
31.320        47
31.330        40
31.340        20
31.350        40
31.360        33
31.370        20
31.380         7
31.390        13
31.400         7
31.410        60
31.420        27
31.430        53
31.440        40
31.450        40
31.460        40
31.470        40
31.480        13
31.490        33
31.500        33
31.510        40
31.520        40
31.530        20
31.540        53
31.550        33
31.560        53
31.570        40
31.580        27
31.590        40
31.600        20
31.610        33
31.620        40
31.630        33
31.640        27
31.650        13
31.660        13
31.670        33
31.680        33
31.690        20
31.700        20
31.710        20
31.720        27
31.730        20
31.740        53
31.750        33
31.760        47
31.770        13
31.780        27
31.790        53
31.800        20
31.810        40
31.820        13
31.830        20
31.840        87
31.850        20
31.860        13
31.870        67
31.880        20
31.890        40
31.900        20
31.910        33
31.920        33
31.930        27
31.940        20
31.950        47
31.960        27
31.970        13
31.980        47
31.990        40
32.000        13
32.010        40
32.020        33
32.030        20
32.040        33
32.050        40
32.060        53
32.070        27
32.080        27
32.090        27
32.100        40
32.110        20
32.120        20
32.130        27
32.140         7
32.150        53
32.160        27
32.170        60
32.180        13
32.190        20
32.200        33
32.210        33
32.220        27
32.230        53
32.240        33
32.250        33
32.260        40
32.270        20
32.280        53
32.290        27
32.300        33
32.310        47
32.320        20
32.330        53
32.340        27
32.350         7
32.360        47
32.370        20
32.380        20
32.390        53
32.400        53
32.410        40
32.420        53
32.430         7
32.440        27
32.450        13
32.460        20
32.470        33
32.480        40
32.490        40
32.500        33
32.510        20
32.520        13
32.530        47
32.540        33
32.550        67
32.560        13
32.570        27
32.580        33
32.590        20
32.600         7
32.610        47
32.620        40
32.630        47
32.640        13
32.650         7
32.660         0
32.670        27
32.680        20
32.690        40
32.700        47
32.710        13
32.720        13
32.730        33
32.740         7
32.750        33
32.760        27
32.770        33
32.780        67
32.790        47
32.800        40
32.810         7
32.820        20
32.830        13
32.840        47
32.850        20
32.860        47
32.870        13
32.880        20
32.890        13
32.900        53
32.910        20
32.920        27
32.930        20
32.940        27
32.950         0
32.960        53
32.970         7
32.980        27
32.990        27
33.000        27
33.010        27
33.020        40
33.030        40
33.040        27
33.050        60
33.060         7
33.070        27
33.080        27
33.090        20
33.100        33
33.110        47
33.120        33
33.130         0
33.140        27
33.150        27
33.160        13
33.170        40
33.180        27
33.190        27
33.200        27
33.210        33
33.220        13
33.230        20
33.240        20
33.250         7
33.260        20
33.270        47
33.280        27
33.290        13
33.300        60
33.310        13
33.320        20
33.330        20
33.340        40
33.350        20
33.360        33
33.370        13
33.380        33
33.390        13
33.400        13
33.410        53
33.420        60
33.430        33
33.440        33
33.450         7
33.460        20
33.470        20
33.480        20
33.490        33
33.500        20
33.510        73
33.520        33
33.530        40
33.540        33
33.550        27
33.560        33
33.570        40
33.580        20
33.590        13
33.600        13
33.610        33
33.620        27
33.630        33
33.640        33
33.650        40
33.660        27
33.670        27
33.680        33
33.690        20
33.700        27
33.710        13
33.720        27
33.730        47
33.740        33
33.750        27
33.760        47
33.770        47
33.780        20
33.790        27
33.800        40
33.810        33
33.820        20
33.830        40
33.840        33
33.850        47
33.860        27
33.870        27
33.880        13
33.890        40
33.900        40
33.910        13
33.920        13
33.930        20
33.940        33
33.950        27
33.960        33
33.970        27
33.980        33
33.990        27
34.000        20
34.010        27
34.020        33
34.030        47
34.040        53
34.050        27
34.060         0
34.070        13
34.080        33
34.090        40
34.100        13
34.110        13
34.120        33
34.130        20
34.140        40
34.150        33
34.160        27
34.170        27
34.180        47
34.190        40
34.200        40
34.210        33
34.220        27
34.230         7
34.240        40
34.250        33
34.260        27
34.270        13
34.280        40
34.290        33
34.300        47
34.310        27
34.320        27
34.330        13
34.340         7
34.350        40
34.360        33
34.370        27
34.380        27
34.390        53
34.400        27
34.410        33
34.420        33
34.430        13
34.440        27
34.450        47
34.460        13
34.470        13
34.480        33
34.490        33
34.500        40
34.510        40
34.520        27
34.530        33
34.540        20
34.550        27
34.560        40
34.570        27
34.580        27
34.590        40
34.600        20
34.610        13
34.620        20
34.630        13
34.640         7
34.650        20
34.660        40
34.670        40
34.680        20
34.690        40
34.700        47
34.710        27
34.720        27
34.730        13
34.740        67
34.750         0
34.760        27
34.770        33
34.780        47
34.790        33
34.800        40
34.810        80
34.820        40
34.830        47
34.840        47
34.850        53
34.860        60
34.870        47
34.880        33
34.890        40
34.900        33
34.910        27
34.920        33
34.930        20
34.940        60
34.950        73
34.960        67
34.970        40
34.980        80
34.990        47
35.000        47
35.010        73
35.020       107
35.030        33
35.040       133
35.050       113
35.060        87
35.070       147
35.080       153
35.090       147
35.100       133
35.110       260
35.120       227
35.130       220
35.140       340
35.150       380
35.160       353
35.170       307
35.180       466
35.190       247
35.200       273
35.210       187
35.220       213
35.230       200
35.240       187
35.250       220
35.260       187
35.270       260
35.280       120
35.290       187
35.300       100
35.310        93
35.320        60
35.330        67
35.340        73
35.350        60
35.360        27
35.370        60
35.380        20
35.390        67
35.400        73
35.410        33
35.420        60
35.430        73
35.440        80
35.450        60
35.460        47
35.470        73
35.480        53
35.490        80
35.500        47
35.510        93
35.520        47
35.530        87
35.540        73
35.550        87
35.560       100
35.570        73
35.580       107
35.590        73
35.600        87
35.610       107
35.620        53
35.630       107
35.640        93
35.650       120
35.660       120
35.670       120
35.680       100
35.690        87
35.700       100
35.710        73
35.720        93
35.730       107
35.740        80
35.750        60
35.760        87
35.770       100
35.780        67
35.790        80
35.800       140
35.810        60
35.820        60
35.830        40
35.840        47
35.850        67
35.860        53
35.870        40
35.880        67
35.890        40
35.900        47
35.910        53
35.920        93
35.930        80
35.940        53
35.950        27
35.960        73
35.970        73
35.980        47
35.990        60
36.000        40
36.010        53
36.020        20
36.030        60
36.040        40
36.050        80
36.060        27
36.070        53
36.080        40
36.090        40
36.100        47
36.110        33
36.120        53
36.130        33
36.140        53
36.150        33
36.160        40
36.170        40
36.180        13
36.190        53
36.200        80
36.210        33
36.220        73
36.230        27
36.240        47
36.250        33
36.260        20
36.270        33
36.280        33
36.290        27
36.300        47
36.310        33
36.320        33
36.330        33
36.340        20
36.350        20
36.360        40
36.370        27
36.380        27
36.390        33
36.400        40
36.410        33
36.420        27
36.430        20
36.440        27
36.450        47
36.460        13
36.470        47
36.480        73
36.490        53
36.500        33
36.510        40
36.520        40
36.530        53
36.540        40
36.550        40
36.560        60
36.570        40
36.580        20
36.590        47
36.600        33
36.610        73
36.620        33
36.630        33
36.640        27
36.650        47
36.660        40
36.670        47
36.680        33
36.690        53
36.700        27
36.710        20
36.720        53
36.730        20
36.740        60
36.750        27
36.760        40
36.770        67
36.780        53
36.790        33
36.800        27
36.810        47
36.820        27
36.830        20
36.840        33
36.850        33
36.860        53
36.870        60
36.880        60
36.890        47
36.900        33
36.910        33
36.920        53
36.930        53
36.940        33
36.950        33
36.960        33
36.970        47
36.980        80
36.990        33
37.000        73
37.010        87
37.020        53
37.030        60
37.040        40
37.050        73
37.060        53
37.070        47
37.080        53
37.090        33
37.100        53
37.110        67
37.120        33
37.130        80
37.140        73
37.150        40
37.160        47
37.170        53
37.180        27
37.190        13
37.200        67
37.210        27
37.220        60
37.230        47
37.240        67
37.250        93
37.260        47
37.270        60
37.280        47
37.290        33
37.300        27
37.310        47
37.320        27
37.330        40
37.340        40
37.350        73
37.360        67
37.370        53
37.380        60
37.390        40
37.400        40
37.410        40
37.420        27
37.430        73
37.440        27
37.450        33
37.460        33
37.470        40
37.480        67
37.490        40
37.500        27
37.510        67
37.520        67
37.530        47
37.540       100
37.550        67
37.560        93
37.570        53
37.580        80
37.590        60
37.600       107
37.610       120
37.620        40
37.630        67
37.640        80
37.650        87
37.660        53
37.670        80
37.680        93
37.690       127
37.700        73
37.710        87
37.720       100
37.730       100
37.740       153
37.750       113
37.760        67
37.770       113
37.780       107
37.790        60
37.800        87
37.810        73
37.820        80
37.830       120
37.840       107
37.850        87
37.860        67
37.870        93
37.880        93
37.890       140
37.900        60
37.910        67
37.920       100
37.930        93
37.940        67
37.950        93
37.960        87
37.970        60
37.980        73
37.990       100
38.000        60
38.010        67
38.020        93
38.030        73
38.040        73
38.050       100
38.060       107
38.070        93
38.080       140
38.090       100
38.100       107
38.110       113
38.120        93
38.130       147
38.140        73
38.150       127
38.160       100
38.170       120
38.180       147
38.190       153
38.200        93
38.210       113
38.220       107
38.230       140
38.240       107
38.250        60
38.260       153
38.270        87
38.280       193
38.290       133
38.300       120
38.310       173
38.320       133
38.330        60
38.340       213
38.350       187
38.360       147
38.370       160
38.380       213
38.390       160
38.400       200
38.410       127
38.420       167
38.430       227
38.440       113
38.450       147
38.460       247
38.470       287
38.480       193
38.490       187
38.500       213
38.510       147
38.520       140
38.530       193
38.540       220
38.550       207
38.560       227
38.570       200
38.580       160
38.590       273
38.600       233
38.610       187
38.620       260
38.630       267
38.640       227
38.650       173
38.660       220
38.670       220
38.680       313
38.690       220
38.700       300
38.710       247
38.720       227
38.730       340
38.740       293
38.750       353
38.760       333
38.770       273
38.780       367
38.790       313
38.800       380
38.810       253
38.820       407
38.830       393
38.840       446
38.850       360
38.860       407
38.870       393
38.880       360
38.890       313
38.900       387
38.910       407
38.920       393
38.930       480
38.940       440
38.950       440
38.960       580
38.970       506
38.980       593
38.990       546
39.000       533
39.010       593
39.020       586
39.030       540
39.040       626
39.050       653
39.060       780
39.070       713
39.080       840
39.090      1000
39.100       833
39.110       820
39.120       906
39.130       960
39.140      1060
39.150      1160
39.160      1166
39.170      1146
39.180      1213
39.190      1473
39.200      1439
39.210      1466
39.220      1519
39.230      1653
39.240      1579
39.250      1726
39.260      2019
39.270      1966
39.280      2306
39.290      2386
39.300      2346
39.310      2639
39.320      2859
39.330      2985
39.340      3052
39.350      3185
39.360      3432
39.370      3672
39.380      4098
39.390      3972
39.400      4432
39.410      4878
39.420      4738
39.430      5025
39.440      5378
39.450      6178
39.460      6118
39.470      7051
39.480      6744
39.490      6591
39.500      7317
39.510      7497
39.520      7790
39.530      8290
39.540      8410
39.550      8450
39.560      8943
39.570      8663
39.580      9223
39.590      9303
39.600      9743
39.610      9116
39.620      9303
39.630      9843
39.640      9669
39.650      9776
39.660      9729
39.670      9736
39.680      9723
39.690      9270
39.700      9243
39.710      9363
39.720      9536
39.730      8357
39.740      8637
39.750      8557
39.760      8823
39.770      8203
39.780      7724
39.790      7997
39.800      7011
39.810      7530
39.820      6944
39.830      6711
39.840      6611
39.850      6031
39.860      6264
39.870      5624
39.880      5898
39.890      5551
39.900      5311
39.910      4685
39.920      4565
39.930      4472
39.940      4611
39.950      4278
39.960      3852
39.970      3958
39.980      3932
39.990      3712
40.000      3692
40.010      3159
40.020      3065
40.030      2866
40.040      3059
40.050      2572
40.060      2586
40.070      2419
40.080      2559
40.090      2426
40.100      2379
40.110      2186
40.120      2312
40.130      2206
40.140      1919
40.150      1906
40.160      1953
40.170      1773
40.180      1906
40.190      1973
40.200      1739
40.210      1786
40.220      1646
40.230      1553
40.240      1306
40.250      1433
40.260      1346
40.270      1333
40.280      1253
40.290      1086
40.300      1120
40.310      1259
40.320      1180
40.330      1113
40.340      1226
40.350      1173
40.360      1013
40.370       966
40.380       953
40.390      1000
40.400       933
40.410       906
40.420       973
40.430       886
40.440       906
40.450       780
40.460       820
40.470       786
40.480       800
40.490       706
40.500       880
40.510       773
40.520       733
40.530       606
40.540       660
40.550       486
40.560       653
40.570       713
40.580       626
40.590       566
40.600       620
40.610       566
40.620       466
40.630       646
40.640       560
40.650       566
40.660       520
40.670       473
40.680       573
40.690       486
40.700       553
40.710       426
40.720       506
40.730       367
40.740       413
40.750       513
40.760       446
40.770       553
40.780       486
40.790       473
40.800       420
40.810       426
40.820       393
40.830       367
40.840       393
40.850       367
40.860       407
40.870       367
40.880       380
40.890       393
40.900       333
40.910       400
40.920       360
40.930       313
40.940       327
40.950       360
40.960       387
40.970       260
40.980       267
40.990       240
41.000       320
41.010       307
41.020       333
41.030       327
41.040       333
41.050       333
41.060       360
41.070       293
41.080       273
41.090       300
41.100       267
41.110       240
41.120       247
41.130       307
41.140       293
41.150       287
41.160       273
41.170       227
41.180       233
41.190       287
41.200       207
41.210       180
41.220       267
41.230       207
41.240       180
41.250       200
41.260       193
41.270       200
41.280       253
41.290       180
41.300       207
41.310       267
41.320       213
41.330       213
41.340       180
41.350       220
41.360       167
41.370       187
41.380       247
41.390       213
41.400       187
41.410       180
41.420       173
41.430       213
41.440       180
41.450       213
41.460       180
41.470       200
41.480       133
41.490       200
41.500       120
41.510       160
41.520       140
41.530       107
41.540       180
41.550       153
41.560       160
41.570       173
41.580       133
41.590       140
41.600       213
41.610       207
41.620       167
41.630       140
41.640       193
41.650       273
41.660       247
41.670       233
41.680       313
41.690       353
41.700       227
41.710       273
41.720       340
41.730       187
41.740       240
41.750       140
41.760       220
41.770       167
41.780       220
41.790       207
41.800       193
41.810       180
41.820       187
41.830       187
41.840       160
41.850       133
41.860       100
41.870       107
41.880        80
41.890       113
41.900       147
41.910        93
41.920       100
41.930       133
41.940       133
41.950       100
41.960       100
41.970       113
41.980        93
41.990       113
42.000        93
42.010       100
42.020        60
42.030        67
42.040       107
42.050       127
42.060       140
42.070        73
42.080       127
42.090       140
42.100        67
42.110       120
42.120        80
42.130        80
42.140        93
42.150        87
42.160       127
42.170       113
42.180       113
42.190       100
42.200        93
42.210        80
42.220        80
42.230        40
42.240       120
42.250        93
42.260        73
42.270        60
42.280       113
42.290        73
42.300       120
42.310       100
42.320       140
42.330       140
42.340        53
42.350        93
42.360       153
42.370       153
42.380        53
42.390        80
42.400        53
42.410        87
42.420        60
42.430       120
42.440        73
42.450       100
42.460        73
42.470        80
42.480       100
42.490        73
42.500        93
42.510       113
42.520       113
42.530        87
42.540        67
42.550        33
42.560       107
42.570       113
42.580        67
42.590        67
42.600        80
42.610       120
42.620       107
42.630        53
42.640        60
42.650        93
42.660       133
42.670        60
42.680        67
42.690        87
42.700        93
42.710       107
42.720        67
42.730        73
42.740       107
42.750        60
42.760        60
42.770        20
42.780        60
42.790        53
42.800        73
42.810        67
42.820        87
42.830        60
42.840        47
42.850        67
42.860        73
42.870        93
42.880        53
42.890        80
42.900        47
42.910        60
42.920        93
42.930        67
42.940        80
42.950        87
42.960        80
42.970        60
42.980       113
42.990        80
43.000        73
43.010        53
43.020        67
43.030        80
43.040        53
43.050        67
43.060        60
43.070        47
43.080       100
43.090        33
43.100        80
43.110        53
43.120       100
43.130        40
43.140        80
43.150       100
43.160        87
43.170        60
43.180        80
43.190        87
43.200        60
43.210        73
43.220       120
43.230        67
43.240       100
43.250       107
43.260        87
43.270       140
43.280       100
43.290       173
43.300       167
43.310       120
43.320       187
43.330       207
43.340       140
43.350       180
43.360       300
43.370       233
43.380       187
43.390       247
43.400       213
43.410       140
43.420        93
43.430        93
43.440       107
43.450       147
43.460       133
43.470       153
43.480       147
43.490       113
43.500       153
43.510       127
43.520       100
43.530       100
43.540        67
43.550        73
43.560        53
43.570        33
43.580        60
43.590        60
43.600        67
43.610        93
43.620        53
43.630        87
43.640        53
43.650        40
43.660        87
43.670        47
43.680        73
43.690        53
43.700        53
43.710        60
43.720        47
43.730        27
43.740        60
43.750        27
43.760        53
43.770        60
43.780        87
43.790        67
43.800        33
43.810        47
43.820        40
43.830        60
43.840        47
43.850        60
43.860        73
43.870        40
43.880        80
43.890        67
43.900        60
43.910        53
43.920        47
43.930        60
43.940        47
43.950        60
43.960        40
43.970        93
43.980        47
43.990        73
44.000        47
44.010        40
44.020        60
44.030        33
44.040        87
44.050        53
44.060        40
44.070        53
44.080        47
44.090        87
44.100        73
44.110        53
44.120        40
44.130        53
44.140        53
44.150        53
44.160        40
44.170        53
44.180        67
44.190        73
44.200        40
44.210        60
44.220        53
44.230        93
44.240        73
44.250        40
44.260        60
44.270        60
44.280        40
44.290        87
44.300        27
44.310        60
44.320        67
44.330        27
44.340        53
44.350        73
44.360         7
44.370        47
44.380        33
44.390       100
44.400        87
44.410        60
44.420        60
44.430        53
44.440        40
44.450        67
44.460        80
44.470        47
44.480        47
44.490        47
44.500        93
44.510        80
44.520        67
44.530        87
44.540        40
44.550        67
44.560        33
44.570        40
44.580        40
44.590        20
44.600        53
44.610        47
44.620        60
44.630        53
44.640        67
44.650        53
44.660        80
44.670        47
44.680        53
44.690        47
44.700        67
44.710        40
44.720        53
44.730        80
44.740        93
44.750        60
44.760        20
44.770        47
44.780        53
44.790        60
44.800        60
44.810        93
44.820        40
44.830        40
44.840        40
44.850        40
44.860        33
44.870        27
44.880        13
44.890        67
44.900        60
44.910        80
44.920        60
44.930        47
44.940        73
44.950        87
44.960        73
44.970        47
44.980        67
44.990        73
45.000        60
45.010        47
45.020        67
45.030        73
45.040        60
45.050        47
45.060        40
45.070        73
45.080        40
45.090        47
45.100        20
45.110        33
45.120        33
45.130        73
45.140        33
45.150        93
45.160        40
45.170        47
45.180        60
45.190        27
45.200        80
45.210        67
45.220        47
45.230        87
45.240        53
45.250        53
45.260        67
45.270        47
45.280        47
45.290        47
45.300        33
45.310        20
45.320        40
45.330        60
45.340        40
45.350        20
45.360        60
45.370        20
45.380        27
45.390       100
45.400        67
45.410        80
45.420        80
45.430        53
45.440        40
45.450        53
45.460        53
45.470       100
45.480        27
45.490        53
45.500        40
45.510        73
45.520        33
45.530        53
45.540        40
45.550        47
45.560        40
45.570        33
45.580        73
45.590        33
45.600        67
45.610        40
45.620       100
45.630        40
45.640        20
45.650        40
45.660        60
45.670        40
45.680        60
45.690        53
45.700        80
45.710        47
45.720        53
45.730        53
45.740        53
45.750        80
45.760        33
45.770        53
45.780       100
45.790        73
45.800        27
45.810        47
45.820        33
45.830        60
45.840        73
45.850        40
45.860       133
45.870        20
45.880        73
45.890        47
45.900        87
45.910        80
45.920        47
45.930        53
45.940        67
45.950        67
45.960        40
45.970        80
45.980        53
45.990        67
46.000        67
46.010        60
46.020        60
46.030        80
46.040        60
46.050        47
46.060        93
46.070        93
46.080        53
46.090        80
46.100        33
46.110        73
46.120        60
46.130        67
46.140        60
46.150        87
46.160        53
46.170        67
46.180        87
46.190        80
46.200        93
46.210        33
46.220        47
46.230        47
46.240        60
46.250        67
46.260        33
46.270        53
46.280        53
46.290        60
46.300        40
46.310        40
46.320        53
46.330        53
46.340        60
46.350        40
46.360        73
46.370        53
46.380        73
46.390        73
46.400        33
46.410        47
46.420        53
46.430        20
46.440        60
46.450        60
46.460        33
46.470        80
46.480        53
46.490        33
46.500        40
46.510        33
46.520        40
46.530        87
46.540        80
46.550        60
46.560        87
46.570        53
46.580        67
46.590        40
46.600        33
46.610        67
46.620        73
46.630        33
46.640        33
46.650        13
46.660        20
46.670        40
46.680        47
46.690        13
46.700        27
46.710        27
46.720        33
46.730        60
46.740        53
46.750        40
46.760        27
46.770        60
46.780        20
46.790        40
46.800        60
46.810        47
46.820        20
46.830        40
46.840        47
46.850        40
46.860        47
46.870        27
46.880        33
46.890        40
46.900        47
46.910        20
46.920        60
46.930        27
46.940        27
46.950        27
46.960        33
46.970        53
46.980        80
46.990        40
47.000        27
47.010        20
47.020        27
47.030        60
47.040        27
47.050        13
47.060        40
47.070        40
47.080        27
47.090        33
47.100        40
47.110        47
47.120        60
47.130        27
47.140        33
47.150        33
47.160        20
47.170        33
47.180        33
47.190        53
47.200        67
47.210        40
47.220        33
47.230        27
47.240        33
47.250        33
47.260        27
47.270        33
47.280        33
47.290        13
47.300        40
47.310        33
47.320        47
47.330        13
47.340        20
47.350        33
47.360        33
47.370        47
47.380        33
47.390        27
47.400        53
47.410        47
47.420        40
47.430        67
47.440        27
47.450        20
47.460        33
47.470        33
47.480        20
47.490        40
47.500        47
47.510        87
47.520        27
47.530        67
47.540        27
47.550        40
47.560        27
47.570        47
47.580        33
47.590        60
47.600        27
47.610        47
47.620        47
47.630        27
47.640        60
47.650        40
47.660        33
47.670        67
47.680        53
47.690         7
47.700        27
47.710        40
47.720        67
47.730        53
47.740        47
47.750        27
47.760        33
47.770        27
47.780        40
47.790        33
47.800        20
47.810        47
47.820         7
47.830        27
47.840        33
47.850        60
47.860        13
47.870        53
47.880        13
47.890        40
47.900         7
47.910        27
47.920        33
47.930        33
47.940        27
47.950        20
47.960        47
47.970        33
47.980        27
47.990        20
48.000        40
48.010        27
48.020        33
48.030        33
48.040         7
48.050        27
48.060        67
48.070        40
48.080        20
48.090        40
48.100        33
48.110        47
48.120        47
48.130        20
48.140        33
48.150        27
48.160        27
48.170        27
48.180        33
48.190        27
48.200        33
48.210        53
48.220        27
48.230        27
48.240        20
48.250        40
48.260        47
48.270        33
48.280        33
48.290        20
48.300        13
48.310        33
48.320        80
48.330        20
48.340        47
48.350        13
48.360        27
48.370        33
48.380        40
48.390        13
48.400        13
48.410        47
48.420        27
48.430        33
48.440        13
48.450        47
48.460        13
48.470        27
48.480        27
48.490        53
48.500        47
48.510        27
48.520        60
48.530        53
48.540        33
48.550        27
48.560        33
48.570        60
48.580        60
48.590        20
48.600        53
48.610        20
48.620        47
48.630        27
48.640        13
48.650        27
48.660        33
48.670        13
48.680        60
48.690        33
48.700        27
48.710        40
48.720        20
48.730        27
48.740        33
48.750        27
48.760        27
48.770        13
48.780        33
48.790        40
48.800         7
48.810        67
48.820         7
48.830        13
48.840        13
48.850        53
48.860        20
48.870        53
48.880        33
48.890        27
48.900        33
48.910        33
48.920         7
48.930        33
48.940        40
48.950        27
48.960         7
48.970        20
48.980        27
48.990         7
49.000        13
49.010        40
49.020        33
49.030        40
49.040        47
49.050        53
49.060        33
49.070        20
49.080        20
49.090        20
49.100        40
49.110        27
49.120        20
49.130        27
49.140        27
49.150        20
49.160        33
49.170        60
49.180        27
49.190        60
49.200        27
49.210        53
49.220        53
49.230        13
49.240        40
49.250        40
49.260        20
49.270        20
49.280        33
49.290        27
49.300        33
49.310         7
49.320        33
49.330        20
49.340        33
49.350        27
49.360        40
49.370        20
49.380        60
49.390         7
49.400        53
49.410        27
49.420        13
49.430        53
49.440         7
49.450        13
49.460        20
49.470        13
49.480        20
49.490        27
49.500        13
49.510        13
49.520        13
49.530        20
49.540        20
49.550        73
49.560        27
49.570         7
49.580        33
49.590        13
49.600        13
49.610        47
49.620        33
49.630        60
49.640        33
49.650        33
49.660         0
49.670        13
49.680         7
49.690        20
49.700        40
49.710        53
49.720        13
49.730        27
49.740        47
49.750        20
49.760        20
49.770        20
49.780        33
49.790        13
49.800        27
49.810        47
49.820        33
49.830        27
49.840        27
49.850        13
49.860        20
49.870        20
49.880        33
49.890        13
49.900        20
49.910        20
49.920        47
49.930        47
49.940        33
49.950         7
49.960         7
49.970        33
49.980        33
49.990         7
50.000        33
50.010         7
50.020         0
50.030        33
50.040        27
50.050        13
50.060        20
50.070        47
50.080        47
50.090        20
50.100        13
50.110        47
50.120        33
50.130        27
50.140        13
50.150        33
50.160        13
50.170        40
50.180        20
50.190        53
50.200        33
50.210        20
50.220         7
50.230        40
50.240        40
50.250         7
50.260        13
50.270        33
50.280        27
50.290        33
50.300        40
50.310        40
50.320         7
50.330        13
50.340        27
50.350        33
50.360        20
50.370        27
50.380        60
50.390        13
50.400        40
50.410        40
50.420        13
50.430         7
50.440        20
50.450        33
50.460        27
50.470        13
50.480        40
50.490        33
50.500        27
50.510        13
50.520        47
50.530        13
50.540         7
50.550        33
50.560        13
50.570        47
50.580        13
50.590        27
50.600        20
50.610        20
50.620        33
50.630        13
50.640        27
50.650        20
50.660        40
50.670        13
50.680        27
50.690        27
50.700         7
50.710        33
50.720        27
50.730         7
50.740        20
50.750        13
50.760         7
50.770        20
50.780        27
50.790        27
50.800         0
50.810        33
50.820        13
50.830        33
50.840         7
50.850        13
50.860        20
50.870        27
50.880        13
50.890        47
50.900        13
50.910        20
50.920        33
50.930        13
50.940        13
50.950         0
50.960        53
50.970        13
50.980        33
50.990        27
51.000        40
51.010        27
51.020        40
51.030        13
51.040         7
51.050        40
51.060         7
51.070        47
51.080         7
51.090        33
51.100        27
51.110        13
51.120        53
51.130        47
51.140        33
51.150        20
51.160        40
51.170        20
51.180        27
51.190         7
51.200        40
51.210        27
51.220         0
51.230        20
51.240        20
51.250        20
51.260        27
51.270         7
51.280        20
51.290        13
51.300        27
51.310        13
51.320        20
51.330        20
51.340        27
51.350        27
51.360        13
51.370        27
51.380        27
51.390        27
51.400        47
51.410         0
51.420        20
51.430        20
51.440        33
51.450        73
51.460        27
51.470        20
51.480        13
51.490        20
51.500        33
51.510        33
51.520        20
51.530        33
51.540        33
51.550        33
51.560        20
51.570         7
51.580         7
51.590        13
51.600        33
51.610        20
51.620        13
51.630        27
51.640        33
51.650        13
51.660        53
51.670        20
51.680        20
51.690         7
51.700        20
51.710        20
51.720        20
51.730        13
51.740         7
51.750        20
51.760         7
51.770        40
51.780        20
51.790        40
51.800        13
51.810        20
51.820        40
51.830        27
51.840        13
51.850        13
51.860        13
51.870         7
51.880        27
51.890         0
51.900        33
51.910        40
51.920        27
51.930        33
51.940        27
51.950        33
51.960        27
51.970        20
51.980        27
51.990        27
52.000        40
52.010        13
52.020        47
52.030        27
52.040        27
52.050        27
52.060        27
52.070        20
52.080        33
52.090        13
52.100        33
52.110        20
52.120        33
52.130        20
52.140        20
52.150         7
52.160        33
52.170        27
52.180        73
52.190        20
52.200         7
52.210        13
52.220        20
52.230        20
52.240         7
52.250         0
52.260        13
52.270        47
52.280        20
52.290        40
52.300        13
52.310        20
52.320        27
52.330        13
52.340        27
52.350        20
52.360        20
52.370        13
52.380        33
52.390        40
52.400        20
52.410        60
52.420         0
52.430        27
52.440         0
52.450        33
52.460        47
52.470        27
52.480        27
52.490        67
52.500        80
52.510        87
52.520        93
52.530       147
52.540       107
52.550        93
52.560       100
52.570       193
52.580       200
52.590       120
52.600        47
52.610        93
52.620       120
52.630        53
52.640        73
52.650        87
52.660        60
52.670       133
52.680       107
52.690        73
52.700        47
52.710       100
52.720        67
52.730        47
52.740        67
52.750        27
52.760        47
52.770        47
52.780        27
52.790        40
52.800        20
52.810        47
52.820        47
52.830        27
52.840        20
52.850        40
52.860        47
52.870        13
52.880        33
52.890        13
52.900        40
52.910        20
52.920        27
52.930        20
52.940        13
52.950        13
52.960        27
52.970        13
52.980        20
52.990        40
53.000        13
53.010        13
53.020        20
53.030        13
53.040        33
53.050        13
53.060        27
53.070        13
53.080         7
53.090        27
53.100        47
53.110        47
53.120        27
53.130         0
53.140         7
53.150        13
53.160         7
53.170         0
53.180        33
53.190        27
53.200        13
53.210        27
53.220         7
53.230        33
53.240         7
53.250        20
53.260        20
53.270        33
53.280         7
53.290        20
53.300        13
53.310         0
53.320        33
53.330        20
53.340        33
53.350        13
53.360        33
53.370         0
53.380        27
53.390        33
53.400         7
53.410         0
53.420        33
53.430        20
53.440        13
53.450        27
53.460        27
53.470        33
53.480         7
53.490        13
53.500        20
53.510        33
53.520        27
53.530         0
53.540        33
53.550        20
53.560        20
53.570         0
53.580        13
53.590        40
53.600         7
53.610        20
53.620        53
53.630         7
53.640        20
53.650        33
53.660         0
53.670        20
53.680        33
53.690         7
53.700        33
53.710        20
53.720        40
53.730         7
53.740        20
53.750         0
53.760        33
53.770        13
53.780        20
53.790        20
53.800        13
53.810        13
53.820        47
53.830        20
53.840         7
53.850        20
53.860         7
53.870        13
53.880        13
53.890         7
53.900        33
53.910         7
53.920        20
53.930        27
53.940         0
53.950        33
53.960         0
53.970        27
53.980        20
53.990        20
54.000        20
54.010        40
54.020        27
54.030         0
54.040        33
54.050         7
54.060        27
54.070         7
54.080         0
54.090        13
54.100         0
54.110         7
54.120        27
54.130        33
54.140        13
54.150        27
54.160        13
54.170         0
54.180         7
54.190        20
54.200        53
54.210        13
54.220        33
54.230        13
54.240        20
54.250        13
54.260        13
54.270        20
54.280        20
54.290        20
54.300        13
54.310         7
54.320        27
54.330        13
54.340        20
54.350         7
54.360        27
54.370        13
54.380         0
54.390        33
54.400        20
54.410        13
54.420        13
54.430         7
54.440        13
54.450        13
54.460        13
54.470        27
54.480         7
54.490        20
54.500        13
54.510        13
54.520         0
54.530         7
54.540        27
54.550        47
54.560         7
54.570         7
54.580        20
54.590        13
54.600        13
54.610        33
54.620        27
54.630        33
54.640        27
54.650        33
54.660        20
54.670         0
54.680        13
54.690        20
54.700        20
54.710        27
54.720        20
54.730        33
54.740         7
54.750         0
54.760        20
54.770         7
54.780         7
54.790        20
54.800         7
54.810         7
54.820         0
54.830        40
54.840        13
54.850        20
54.860        27
54.870        13
54.880         7
54.890        20
54.900        13
54.910        13
54.920        20
54.930         7
54.940         0
54.950        33
54.960        13
54.970         7
54.980        47
54.990        13
55.000         7
55.010        13
55.020        13
55.030         7
55.040        13
55.050        13
55.060        13
55.070        33
55.080        33
55.090        27
55.100         7
55.110        33
55.120        13
55.130         7
55.140        33
55.150        33
55.160         7
55.170         0
55.180        27
55.190        13
55.200        20
55.210        13
55.220        27
55.230         0
55.240         0
55.250        27
55.260        13
55.270        13
55.280        27
55.290        33
55.300        20
55.310        20
55.320         7
55.330        20
55.340        27
55.350        27
55.360        20
55.370        13
55.380        13
55.390        33
55.400         7
55.410        13
55.420        27
55.430        27
55.440        13
55.450        20
55.460        20
55.470        27
55.480         7
55.490        13
55.500        13
55.510         7
55.520        33
55.530        27
55.540        13
55.550        53
55.560         7
55.570        13
55.580         7
55.590        20
55.600        20
55.610        27
55.620        27
55.630         0
55.640         7
55.650        13
55.660        13
55.670        27
55.680        13
55.690        47
55.700        13
55.710        20
55.720         7
55.730        13
55.740        13
55.750        27
55.760        27
55.770         7
55.780        20
55.790         7
55.800        13
55.810        33
55.820         0
55.830        33
55.840        33
55.850        40
55.860        20
55.870         7
55.880         7
55.890        27
55.900        20
55.910        13
55.920        33
55.930        20
55.940        13
55.950         7
55.960         7
55.970         0
55.980        27
55.990        20
56.000         7
56.010        27
56.020        13
56.030        33
56.040        27
56.050         7
56.060        27
56.070        20
56.080        40
56.090        13
56.100        13
56.110         7
56.120         7
56.130        13
56.140         7
56.150        20
56.160        13
56.170        20
56.180        40
56.190        33
56.200        27
56.210        20
56.220        27
56.230        13
56.240        13
56.250         0
56.260        13
56.270         0
56.280        13
56.290         7
56.300        13
56.310         7
56.320        20
56.330        13
56.340         0
56.350        53
56.360        20
56.370        13
56.380        13
56.390        13
56.400        27
56.410         7
56.420         7
56.430        13
56.440         7
56.450        27
56.460         0
56.470         7
56.480        40
56.490        13
56.500        33
56.510        27
56.520        13
56.530        13
56.540        13
56.550         7
56.560        13
56.570        20
56.580        13
56.590        20
56.600         7
56.610        13
56.620        27
56.630        33
56.640        13
56.650        13
56.660        13
56.670        20
56.680        13
56.690         0
56.700        20
56.710         7
56.720         7
56.730         0
56.740        20
56.750        13
56.760        20
56.770        20
56.780         0
56.790         7
56.800         7
56.810        20
56.820        27
56.830        40
56.840         7
56.850         0
56.860        13
56.870        20
56.880        13
56.890        27
56.900         0
56.910        13
56.920        33
56.930        13
56.940         7
56.950        20
56.960        20
56.970        13
56.980        13
56.990         7
57.000        13
57.010        20
57.020        20
57.030        27
57.040        13
57.050        13
57.060        27
57.070         7
57.080         0
57.090        13
57.100        27
57.110         0
57.120        13
57.130        40
57.140        13
57.150        13
57.160        13
57.170        27
57.180        53
57.190        20
57.200        33
57.210        13
57.220        40
57.230        33
57.240        40
57.250        33
57.260        40
57.270        13
57.280        20
57.290        13
57.300        20
57.310        27
57.320        13
57.330        47
57.340        40
57.350        47
57.360        33
57.370        73
57.380        53
57.390        53
57.400        47
57.410       113
57.420       127
57.430       147
57.440       100
57.450       160
57.460       167
57.470       200
57.480       220
57.490       287
57.500       287
57.510       293
57.520       347
57.530       240
57.540       247
57.550       213
57.560       160
57.570       127
57.580       147
57.590       153
57.600        60
57.610       100
57.620       107
57.630        93
57.640       100
57.650       147
57.660       120
57.670       140
57.680       140
57.690       147
57.700        47
57.710       140
57.720        60
57.730        87
57.740        20
57.750        33
57.760        67
57.770        53
57.780        47
57.790        20
57.800        47
57.810        13
57.820        33
57.830        33
57.840        13
57.850        20
57.860         0
57.870        13
57.880        13
57.890        20
57.900         7
57.910        33
57.920        13
57.930        13
57.940        27
57.950         0
57.960        20
57.970        13
57.980         0
57.990        27
58.000        20
58.010        13
58.020        27
58.030        13
58.040        33
58.050        20
58.060         7
58.070        27
58.080         7
58.090        20
58.100        40
58.110         7
58.120        13
58.130        13
58.140         0
58.150         0
58.160        27
58.170         0
58.180        20
58.190         7
58.200        33
58.210         7
58.220         7
58.230         7
58.240         7
58.250         7
58.260         7
58.270         0
58.280        27
58.290        20
58.300        13
58.310        13
58.320        27
58.330        33
58.340        20
58.350        13
58.360         0
58.370         0
58.380        13
58.390        20
58.400         7
58.410         0
58.420        47
58.430         0
58.440         7
58.450         7
58.460        13
58.470        27
58.480        27
58.490        13
58.500        27
58.510         7
58.520        20
58.530        13
58.540        40
58.550        20
58.560        20
58.570        20
58.580        13
58.590        13
58.600         7
58.610         0
58.620         0
58.630        13
58.640        20
58.650        40
58.660        13
58.670        20
58.680         7
58.690        20
58.700         7
58.710        20
58.720        20
58.730        20
58.740        20
58.750        13
58.760        13
58.770        13
58.780        40
58.790        13
58.800        20
58.810        13
58.820         7
58.830        13
58.840         0
58.850         7
58.860        13
58.870        20
58.880        20
58.890        13
58.900        13
58.910        27
58.920         7
58.930         7
58.940        13
58.950        13
58.960        27
58.970        27
58.980        20
58.990         7
59.000         7
59.010        20
59.020        20
59.030        13
59.040         7
59.050         7
59.060        27
59.070        20
59.080         7
59.090         0
59.100        13
59.110        13
59.120        47
59.130        20
59.140        33
59.150        13
59.160        13
59.170        27
59.180         7
59.190        20
59.200        27
59.210        13
59.220        13
59.230         7
59.240         7
59.250        13
59.260        20
59.270        33
59.280         7
59.290        13
59.300        27
59.310        13
59.320        27
59.330        27
59.340        13
59.350        20
59.360        27
59.370        20
59.380         7
59.390         7
59.400         7
59.410         0
59.420        13
59.430        40
59.440         7
59.450         7
59.460         7
59.470        20
59.480        20
59.490        20
59.500        13
59.510         7
59.520        27
59.530         7
59.540        20
59.550         7
59.560        27
59.570        27
59.580        13
59.590        20
59.600        27
59.610         7
59.620        13
59.630        13
59.640        40
59.650         7
59.660         7
59.670        13
59.680        60
59.690         7
59.700        40
59.710        13
59.720         7
59.730        20
59.740        13
59.750         7
59.760        67
59.770        40
59.780        20
59.790        33
59.800         7
59.810         7
59.820        13
59.830        47
59.840         7
59.850         0
59.860        27
59.870        20
59.880         7
59.890         7
59.900        13
59.910        20
59.920        20
59.930        20
59.940        13
59.950        27
59.960        13
59.970        13
59.980        20
59.990        13
60.000        13
