20.000        47
20.010        80
20.020        67
20.030        47
20.040        73
20.050        67
20.060        73
20.070        53
20.080        87
20.090        53
20.100        53
20.110        47
20.120        67
20.130        67
20.140        60
20.150        60
20.160        73
20.170        47
20.180        80
20.190        20
20.200        93
20.210       100
20.220        73
20.230        53
20.240        73
20.250        47
20.260        53
20.270        87
20.280        60
20.290        80
20.300        93
20.310        73
20.320        47
20.330        93
20.340        40
20.350        67
20.360        47
20.370        60
20.380       100
20.390        93
20.400        67
20.410        60
20.420        73
20.430        53
20.440        80
20.450        80
20.460        73
20.470        47
20.480        73
20.490        80
20.500        33
20.510        60
20.520       120
20.530        27
20.540        73
20.550        47
20.560        60
20.570        67
20.580        73
20.590        80
20.600        47
20.610        60
20.620        33
20.630        60
20.640        60
20.650       113
20.660        80
20.670        60
20.680        53
20.690        67
20.700        67
20.710        53
20.720       113
20.730        80
20.740        80
20.750        87
20.760        53
20.770        80
20.780        47
20.790        67
20.800       120
20.810        60
20.820        73
20.830        67
20.840        67
20.850        67
20.860        47
20.870        87
20.880        47
20.890        60
20.900        87
20.910        93
20.920        67
20.930        60
20.940        93
20.950        53
20.960        13
20.970        67
20.980        47
20.990        47
21.000        67
21.010        80
21.020        73
21.030        73
21.040        40
21.050        87
21.060        73
21.070        53
21.080        67
21.090       113
21.100       120
21.110        60
21.120        60
21.130        73
21.140        60
21.150        73
21.160        60
21.170        60
21.180       127
21.190        80
21.200        53
21.210        53
21.220        53
21.230        80
21.240        93
21.250        60
21.260        80
21.270       100
21.280        80
21.290        87
21.300       120
21.310        60
21.320        80
21.330        47
21.340        60
21.350        73
21.360        40
21.370        93
21.380       100
21.390        40
21.400        27
21.410        87
21.420        33
21.430        40
21.440        60
21.450        60
21.460        73
21.470       100
21.480        87
21.490        80
21.500        53
21.510        67
21.520        53
21.530        60
21.540        47
21.550        53
21.560        93
21.570        33
21.580       100
21.590        47
21.600        67
21.610        80
21.620        40
21.630        53
21.640        67
21.650        87
21.660        40
21.670        73
21.680       113
21.690        53
21.700       107
21.710        73
21.720        67
21.730        67
21.740        27
21.750        60
21.760        80
21.770        47
21.780        60
21.790        33
21.800        53
21.810       100
21.820        40
21.830        53
21.840        67
21.850        73
21.860        87
21.870        67
21.880        47
21.890        93
21.900        67
21.910        60
21.920        47
21.930        47
21.940        33
21.950        80
21.960        27
21.970        93
21.980        73
21.990        73
22.000        73
22.010        60
22.020        27
22.030        80
22.040        40
22.050        80
22.060        47
22.070        93
22.080        40
22.090        53
22.100        73
22.110        47
22.120        40
22.130        67
22.140        87
22.150        40
22.160        27
22.170        47
22.180        60
22.190        67
22.200        33
22.210        27
22.220        53
22.230        47
22.240        60
22.250        67
22.260       100
22.270        67
22.280        53
22.290        67
22.300        27
22.310        93
22.320        53
22.330        60
22.340        53
22.350        67
22.360        33
22.370       113
22.380        60
22.390        60
22.400        73
22.410        73
22.420        47
22.430        53
22.440        67
22.450        40
22.460        67
22.470        47
22.480        67
22.490        67
22.500        33
22.510        47
22.520        60
22.530        20
22.540        27
22.550        73
22.560        80
22.570        40
22.580        33
22.590        67
22.600        60
22.610        73
22.620        47
22.630        60
22.640        40
22.650        80
22.660        60
22.670        20
22.680        80
22.690        87
22.700        93
22.710        60
22.720        67
22.730        87
22.740        53
22.750        40
22.760        60
22.770        60
22.780        40
22.790        87
22.800        20
22.810        73
22.820        53
22.830        33
22.840        60
22.850        67
22.860        67
22.870        67
22.880        47
22.890        47
22.900        20
22.910        53
22.920        53
22.930        60
22.940        53
22.950        53
22.960        67
22.970        40
22.980        53
22.990        40
23.000        33
23.010        60
23.020        40
23.030        73
23.040        60
23.050        33
23.060        60
23.070        60
23.080        73
23.090        33
23.100        67
23.110        60
23.120        40
23.130        60
23.140        73
23.150        73
23.160        67
23.170        73
23.180        67
23.190        60
23.200        13
23.210       107
23.220        47
23.230       100
23.240        73
23.250        47
23.260        87
23.270        73
23.280        47
23.290        40
23.300        67
23.310        53
23.320        27
23.330        67
23.340        53
23.350        60
23.360        53
23.370        33
23.380        73
23.390        40
23.400        60
23.410        47
23.420        67
23.430        40
23.440        47
23.450        40
23.460        60
23.470        47
23.480        93
23.490        53
23.500        80
23.510        80
23.520        53
23.530        73
23.540        60
23.550        27
23.560        47
23.570        67
23.580        53
23.590        53
23.600        33
23.610        47
23.620        67
23.630        67
23.640        93
23.650        53
23.660        40
23.670        80
23.680        60
23.690        53
23.700        13
23.710        73
23.720        73
23.730        73
23.740        27
23.750         7
23.760        67
23.770        33
23.780        60
23.790        87
23.800        60
23.810        60
23.820        40
23.830        67
23.840        87
23.850        60
23.860        73
23.870        47
23.880        67
23.890        80
23.900        73
23.910        60
23.920        20
23.930        67
23.940        87
23.950        33
23.960        33
23.970        73
23.980        87
23.990        60
24.000        47
24.010        47
24.020        27
24.030        53
24.040        87
24.050        33
24.060        60
24.070        67
24.080        73
24.090        40
24.100        60
24.110        60
24.120        67
24.130       100
24.140        60
24.150        67
24.160        47
24.170        60
24.180        33
24.190        53
24.200        27
24.210        73
24.220        93
24.230       113
24.240        67
24.250        67
24.260        40
24.270        13
24.280        73
24.290        47
24.300        87
24.310        87
24.320        73
24.330        53
24.340       100
24.350        53
24.360        60
24.370        47
24.380        80
24.390        73
24.400        60
24.410        67
24.420        33
24.430        67
24.440        20
24.450        73
24.460        80
24.470        47
24.480        47
24.490        33
24.500        67
24.510        53
24.520        60
24.530        53
24.540        20
24.550        27
24.560        40
24.570        60
24.580        60
24.590        47
24.600        60
24.610        67
24.620        13
24.630        53
24.640        60
24.650        53
24.660        67
24.670        53
24.680        60
24.690        53
24.700        60
24.710        60
24.720        40
24.730        40
24.740        33
24.750        53
24.760        93
24.770        53
24.780        60
24.790        47
24.800        80
24.810        13
24.820        53
24.830        47
24.840        47
24.850        67
24.860        40
24.870        47
24.880        27
24.890        60
24.900        27
24.910        47
24.920        60
24.930        47
24.940        67
24.950        27
24.960        47
24.970        60
24.980        40
24.990        53
25.000        47
25.010        40
25.020        73
25.030        20
25.040        40
25.050        40
25.060        60
25.070        40
25.080        60
25.090        33
25.100        67
25.110        60
25.120         7
25.130        20
25.140        47
25.150        67
25.160        60
25.170        27
25.180        47
25.190        33
25.200        53
25.210        27
25.220        40
25.230        67
25.240        40
25.250        40
25.260        53
25.270        27
25.280        60
25.290        40
25.300        73
25.310        53
25.320        47
25.330        60
25.340        60
25.350        60
25.360        53
25.370       107
25.380       120
25.390        73
25.400        20
25.410        73
25.420        47
25.430        60
25.440       100
25.450        80
25.460       107
25.470        93
25.480       127
25.490        87
25.500        47
25.510       147
25.520        73
25.530        87
25.540       113
25.550       120
25.560        67
25.570        73
25.580        93
25.590        40
25.600        53
25.610        67
25.620        60
25.630        33
25.640        40
25.650        47
25.660        40
25.670        40
25.680        40
25.690        33
25.700        67
25.710        53
25.720        27
25.730        53
25.740        67
25.750        73
25.760        60
25.770        33
25.780        53
25.790       113
25.800        27
25.810        40
25.820        40
25.830        40
25.840        47
25.850        53
25.860        47
25.870        53
25.880        40
25.890        80
25.900        40
25.910        20
25.920        60
25.930        73
25.940        80
25.950        27
25.960        40
25.970        27
25.980        47
25.990        53
26.000        73
26.010        27
26.020        27
26.030        67
26.040        53
26.050        33
26.060        20
26.070        27
26.080        40
26.090        33
26.100        73
26.110        47
26.120        33
26.130        60
26.140        33
26.150        53
26.160        27
26.170        67
26.180        60
26.190        33
26.200        80
26.210        53
26.220        47
26.230        20
26.240        47
26.250        73
26.260        20
26.270        73
26.280        20
26.290        53
26.300        67
26.310        33
26.320        53
26.330        73
26.340        27
26.350        47
26.360        53
26.370        53
26.380        33
26.390        27
26.400        47
26.410        73
26.420        53
26.430        33
26.440        53
26.450        47
26.460        20
26.470        53
26.480        33
26.490        73
26.500        40
26.510        20
26.520        20
26.530        60
26.540        40
26.550        60
26.560        67
26.570        33
26.580        27
26.590        40
26.600        47
26.610        40
26.620        20
26.630        73
26.640        53
26.650        13
26.660        80
26.670        27
26.680        40
26.690        33
26.700        33
26.710        40
26.720        33
26.730        40
26.740        27
26.750        53
26.760        40
26.770        40
26.780        53
26.790        40
26.800        40
26.810        40
26.820        27
26.830        33
26.840        60
26.850        47
26.860        40
26.870        67
26.880        33
26.890         7
26.900        13
26.910        60
26.920        33
26.930        67
26.940        33
26.950        33
26.960        67
26.970        60
26.980        47
26.990        27
27.000        33
27.010        27
27.020        33
27.030        53
27.040        40
27.050        60
27.060        53
27.070        67
27.080        40
27.090        53
27.100        53
27.110        20
27.120        27
27.130        40
27.140        60
27.150        40
27.160        53
27.170        47
27.180        53
27.190        53
27.200        53
27.210        47
27.220        40
27.230        47
27.240        40
27.250        33
27.260        40
27.270        13
27.280        27
27.290        13
27.300        27
27.310        40
27.320        20
27.330        60
27.340        47
27.350        20
27.360        20
27.370        53
27.380        27
27.390        13
27.400        33
27.410        33
27.420        47
27.430        40
27.440        60
27.450        67
27.460        33
27.470        53
27.480        73
27.490        67
27.500        40
27.510        27
27.520        47
27.530        33
27.540        60
27.550        40
27.560        20
27.570        40
27.580        33
27.590        47
27.600        47
27.610        60
27.620        20
27.630        13
27.640        60
27.650        47
27.660        20
27.670        20
27.680        33
27.690        20
27.700         7
27.710        73
27.720        33
27.730        33
27.740        20
27.750        47
27.760        33
27.770        47
27.780        60
27.790        33
27.800        20
27.810        33
27.820        40
27.830        27
27.840        60
27.850        67
27.860        60
27.870        20
27.880        40
27.890        40
27.900        73
27.910        73
27.920       100
27.930        47
27.940        27
27.950        47
27.960        60
27.970        60
27.980        27
27.990        33
28.000        47
28.010        47
28.020        33
28.030        53
28.040        47
28.050        53
28.060        20
28.070        53
28.080        47
28.090        20
28.100        20
28.110        53
28.120        40
28.130        33
28.140        60
28.150        47
28.160        47
28.170        27
28.180        60
28.190        47
28.200        33
28.210        33
28.220        27
28.230        27
28.240        27
28.250        27
28.260        20
28.270        60
28.280        20
28.290        27
28.300        27
28.310        27
28.320        40
28.330        53
28.340        20
28.350        40
28.360        20
28.370        20
28.380        13
28.390        13
28.400        13
28.410        40
28.420        27
28.430        47
28.440        40
28.450        53
28.460        13
28.470        33
28.480        13
28.490        53
28.500        47
28.510        60
28.520        40
28.530        53
28.540        33
28.550        60
28.560        27
28.570        47
28.580        40
28.590        27
28.600        27
28.610        53
28.620        27
28.630        40
28.640        40
28.650        47
28.660        33
28.670        40
28.680        47
28.690        20
28.700        60
28.710        27
28.720        73
28.730        13
28.740        60
28.750        33
28.760        60
28.770        33
28.780        27
28.790        40
28.800        47
28.810         7
28.820        33
28.830        40
28.840        47
28.850        27
28.860        33
28.870        33
28.880        13
28.890        60
28.900        40
28.910        27
28.920        40
28.930        47
28.940        47
28.950        40
28.960        27
28.970        27
28.980        47
28.990        20
29.000        13
29.010        40
29.020        27
29.030        53
29.040        47
29.050        40
29.060        27
29.070        20
29.080        33
29.090        13
29.100        47
29.110        80
29.120        40
29.130        40
29.140        40
29.150        33
29.160        13
29.170        33
29.180        47
29.190        47
29.200        20
29.210        53
29.220        27
29.230        47
29.240        60
29.250        33
29.260        47
29.270        13
29.280        53
29.290        53
29.300        33
29.310        20
29.320        47
29.330        47
29.340        33
29.350        47
29.360         7
29.370        40
29.380        33
29.390        27
29.400        13
29.410        27
29.420        53
29.430        47
29.440        67
29.450         7
29.460        40
29.470        40
29.480        27
29.490        20
29.500        27
29.510        53
29.520        53
29.530        47
29.540        47
29.550        53
29.560        27
29.570        20
29.580        27
29.590        13
29.600        47
29.610        13
29.620        40
29.630        33
29.640        13
29.650        47
29.660        33
29.670        27
29.680        40
29.690        60
29.700        13
29.710        47
29.720        27
29.730        27
29.740        27
29.750        27
29.760        20
29.770        13
29.780        13
29.790        13
29.800        20
29.810        33
29.820        20
29.830        20
29.840        33
29.850        33
29.860        40
29.870        60
29.880        47
29.890        47
29.900        33
29.910        13
29.920        13
29.930        53
29.940        33
29.950        27
29.960        27
29.970        40
29.980        53
29.990        20
30.000        40
30.010        20
30.020        40
30.030        47
30.040        47
30.050        20
30.060        33
30.070        33
30.080        40
30.090        60
30.100        33
30.110        20
30.120        20
30.130        40
30.140        20
30.150        40
30.160        47
30.170        33
30.180        20
30.190         7
30.200        33
30.210        47
30.220        20
30.230        33
30.240        47
30.250        27
30.260        27
30.270        53
30.280        40
30.290        27
30.300        53
30.310        33
30.320        27
30.330        27
30.340        27
30.350        20
30.360         7
30.370        13
30.380        40
30.390        40
30.400        47
30.410        27
30.420        13
30.430        40
30.440        13
30.450        33
30.460        27
30.470        20
30.480        40
30.490        47
30.500        27
30.510        20
30.520        67
30.530        33
30.540        33
30.550        60
30.560        67
30.570         0
30.580        33
30.590        33
30.600        53
30.610        33
30.620        47
30.630        40
30.640        40
30.650        40
30.660        13
30.670        20
30.680        20
30.690        27
30.700        27
30.710        40
30.720        60
30.730        13
30.740        47
30.750        40
30.760        47
30.770        47
30.780        20
30.790        27
30.800        20
30.810        20
30.820        53
30.830        13
30.840        53
30.850         7
30.860        13
30.870        60
30.880         7
30.890        33
30.900        33
30.910        27
30.920        47
30.930        27
30.940        40
30.950        20
30.960         0
30.970        33
30.980        53
30.990        33
31.000        20
31.010        27
31.020        47
31.030        13
31.040        47
31.050        60
31.060        13
31.070        47
31.080        27
31.090        33
31.100        60
31.110        20
31.120        27
31.130        20
31.140        13
31.150        47
31.160        20
31.170        47
31.180        20
31.190        27
31.200        33
31.210        33
31.220        33
31.230        53
31.240        47
31.250        13
31.260        27
31.270        13
31.280        20
31.290        33
31.300        13
31.310        13
31.320        27
31.330        33
31.340         0
31.350        27
31.360        40
31.370        33
31.380        13
31.390        40
31.400        40
31.410         7
31.420        73
31.430        33
31.440        20
31.450        27
31.460        47
31.470        60
31.480        40
31.490        27
31.500        33
31.510        47
31.520        20
31.530        20
31.540        13
31.550        27
31.560        33
31.570        33
31.580        40
31.590        33
31.600        13
31.610        53
31.620        33
31.630        20
31.640         7
31.650        40
31.660        20
31.670        47
31.680        33
31.690        47
31.700        13
31.710        53
31.720        13
31.730        33
31.740        27
31.750        40
31.760        20
31.770        53
31.780        13
31.790        40
31.800        47
31.810        47
31.820        40
31.830        33
31.840        27
31.850        60
31.860        27
31.870        20
31.880        20
31.890        13
31.900        20
31.910        20
31.920        53
31.930        20
31.940        40
31.950        13
31.960        47
31.970        47
31.980        40
31.990         0
32.000        73
32.010        47
32.020         7
32.030        20
32.040        47
32.050        20
32.060        27
32.070        20
32.080        47
32.090        47
32.100        33
32.110        27
32.120        27
32.130         7
32.140        20
32.150        27
32.160        13
32.170        53
32.180        40
32.190        40
32.200        20
32.210        47
32.220        33
32.230        47
32.240        13
32.250        47
32.260        33
32.270        33
32.280        13
32.290         7
32.300        20
32.310        33
32.320        27
32.330        13
32.340        27
32.350        53
32.360        20
32.370        27
32.380         7
32.390        27
32.400        20
32.410        33
32.420        40
32.430        20
32.440        47
32.450        20
32.460         0
32.470        27
32.480        33
32.490        33
32.500        20
32.510        47
32.520        33
32.530        27
32.540        20
32.550        20
32.560        47
32.570        27
32.580        27
32.590        27
32.600        27
32.610        33
32.620        13
32.630        33
32.640        47
32.650        20
32.660        33
32.670        27
32.680        47
32.690        47
32.700        33
32.710        27
32.720        13
32.730        20
32.740        27
32.750        20
32.760        27
32.770        27
32.780        20
32.790        40
32.800        33
32.810        40
32.820         7
32.830        40
32.840        53
32.850        33
32.860        40
32.870        33
32.880        33
32.890        27
32.900        33
32.910        20
32.920        27
32.930        20
32.940        20
32.950        67
32.960         7
32.970        20
32.980        13
32.990        47
33.000        47
33.010        13
33.020        33
33.030        53
33.040        33
33.050        20
33.060        27
33.070        33
33.080        20
33.090        27
33.100        20
33.110        33
33.120        60
33.130        27
33.140        40
33.150        40
33.160         7
33.170         7
33.180        33
33.190        20
33.200        27
33.210        20
33.220        33
33.230        40
33.240        33
33.250        40
33.260        47
33.270        20
33.280        13
33.290        27
33.300        33
33.310        33
33.320        20
33.330        40
33.340        13
33.350        13
33.360        67
33.370        27
33.380        40
33.390        27
33.400        20
33.410        27
33.420        33
33.430        33
33.440        33
33.450        27
33.460        13
33.470        20
33.480        20
33.490        40
33.500         0
33.510        47
33.520        13
33.530        47
33.540        60
33.550        40
33.560        20
33.570        27
33.580        13
33.590        33
33.600        20
33.610        47
33.620        33
33.630        20
33.640        40
33.650         7
33.660        33
33.670        13
33.680        13
33.690        53
33.700        47
33.710        47
33.720        27
33.730        20
33.740        20
33.750        40
33.760        20
33.770        20
33.780         7
33.790        13
33.800        27
33.810        13
33.820        13
33.830        33
33.840        40
33.850        40
33.860        20
33.870        20
33.880        20
33.890        27
33.900         7
33.910        13
33.920        20
33.930        33
33.940        20
33.950        40
33.960        33
33.970        20
33.980        20
33.990        13
34.000        13
34.010        20
34.020         7
34.030        27
34.040        47
34.050        47
34.060        47
34.070        27
34.080         7
34.090        40
34.100        33
34.110        20
34.120        13
34.130        27
34.140        60
34.150        27
34.160        20
34.170        40
34.180        33
34.190        27
34.200        13
34.210        27
34.220         7
34.230        20
34.240        40
34.250        33
34.260        27
34.270        40
34.280        27
34.290        27
34.300        40
34.310        27
34.320         7
34.330        47
34.340        27
34.350        20
34.360        20
34.370         0
34.380        13
34.390        20
34.400        20
34.410        27
34.420        27
34.430        27
34.440        53
34.450        40
34.460        27
34.470        40
34.480         7
34.490        53
34.500         7
34.510         7
34.520        13
34.530        13
34.540        27
34.550         7
34.560        33
34.570        33
34.580        27
34.590        33
34.600        40
34.610        27
34.620        40
34.630        33
34.640        33
34.650        13
34.660        27
34.670        33
34.680        33
34.690        13
34.700        47
34.710        47
34.720        33
34.730        53
34.740        60
34.750        27
34.760        13
34.770        33
34.780        40
34.790        40
34.800        33
34.810        60
34.820        40
34.830        13
34.840        47
34.850        53
34.860        53
34.870        40
34.880        73
34.890        53
34.900        47
34.910        33
34.920        20
34.930        80
34.940        93
34.950        80
34.960        27
34.970        53
34.980        47
34.990       100
35.000        53
35.010        80
35.020        93
35.030        80
35.040       100
35.050        80
35.060        73
35.070        87
35.080       120
35.090       147
35.100       127
35.110       153
35.120       207
35.130       200
35.140       107
35.150       140
35.160       107
35.170       100
35.180        67
35.190       107
35.200       127
35.210        80
35.220        80
35.230        40
35.240        87
35.250       107
35.260        40
35.270        53
35.280        73
35.290        33
35.300        53
35.310        47
35.320        53
35.330        80
35.340        47
35.350        73
35.360        20
35.370        67
35.380        73
35.390        47
35.400        60
35.410        53
35.420        93
35.430        73
35.440       120
35.450        40
35.460        73
35.470        67
35.480        93
35.490        73
35.500        93
35.510        93
35.520        73
35.530        53
35.540       133
35.550       127
35.560        87
35.570       127
35.580       107
35.590       133
35.600       107
35.610       113
35.620       140
35.630       127
35.640       120
35.650        80
35.660        47
35.670        67
35.680       100
35.690       100
35.700       100
35.710        47
35.720        93
35.730       100
35.740        87
35.750        93
35.760        73
35.770        40
35.780       100
35.790        67
35.800       113
35.810        60
35.820        73
35.830        40
35.840        73
35.850        60
35.860        67
35.870       147
35.880        67
35.890        73
35.900        60
35.910        53
35.920        60
35.930        73
35.940        87
35.950        47
35.960        47
35.970        53
35.980        80
35.990        60
36.000        53
36.010        60
36.020        40
36.030        13
36.040        73
36.050        53
36.060        87
36.070        60
36.080        27
36.090        33
36.100        53
36.110        53
36.120        60
36.130        53
36.140        40
36.150        33
36.160        47
36.170        40
36.180        33
36.190        27
36.200        33
36.210        47
36.220        33
36.230        53
36.240        33
36.250        33
36.260        47
36.270        20
36.280        47
36.290        40
36.300        47
36.310        60
36.320        27
36.330        27
36.340        27
36.350        53
36.360        33
36.370        33
36.380        53
36.390        40
36.400        80
36.410        33
36.420        53
36.430        40
36.440        53
36.450        40
36.460        47
36.470        33
36.480        67
36.490        73
36.500        33
36.510        53
36.520        40
36.530        40
36.540        20
36.550        47
36.560        40
36.570        60
36.580        87
36.590        40
36.600        40
36.610        47
36.620        47
36.630        47
36.640        47
36.650        47
36.660        53
36.670        47
36.680        53
36.690        67
36.700        60
36.710        40
36.720         7
36.730        33
36.740        87
36.750        20
36.760        53
36.770        40
36.780        40
36.790        60
36.800        27
36.810        27
36.820        33
36.830        73
36.840        27
36.850        73
36.860        53
36.870        33
36.880        53
36.890        33
36.900        53
36.910        47
36.920        60
36.930        20
36.940        53
36.950        40
36.960        13
36.970        40
36.980        60
36.990        73
37.000        60
37.010        33
37.020        53
37.030        47
37.040        80
37.050        60
37.060        47
37.070        20
37.080        47
37.090        53
37.100        47
37.110        53
37.120        33
37.130        53
37.140        33
37.150        40
37.160        40
37.170        73
37.180        27
37.190        33
37.200        40
37.210        67
37.220        67
37.230        67
37.240        67
37.250        53
37.260        20
37.270        47
37.280        93
37.290        40
37.300        53
37.310        60
37.320        47
37.330        80
37.340        27
37.350        73
37.360        73
37.370        27
37.380        47
37.390        67
37.400        60
37.410        60
37.420        33
37.430        67
37.440        60
37.450        60
37.460        73
37.470         7
37.480        53
37.490        73
37.500        53
37.510        87
37.520        53
37.530        60
37.540       100
37.550        60
37.560        60
37.570        67
37.580       107
37.590        33
37.600       100
37.610        73
37.620        47
37.630        53
37.640        60
37.650        87
37.660        47
37.670        47
37.680       113
37.690        60
37.700        93
37.710        93
37.720        87
37.730       100
37.740       100
37.750        60
37.760        87
37.770       107
37.780        87
37.790        60
37.800       113
37.810       100
37.820        93
37.830        73
37.840        80
37.850        80
37.860       180
37.870        73
37.880        73
37.890       120
37.900        73
37.910        73
37.920        47
37.930        93
37.940       107
37.950       107
37.960        87
37.970        93
37.980       113
37.990        87
38.000       100
38.010       127
38.020       120
38.030       133
38.040        80
38.050       113
38.060       133
38.070       187
38.080        87
38.090       107
38.100       160
38.110       127
38.120       187
38.130       180
38.140       120
38.150       153
38.160       140
38.170       167
38.180       140
38.190       233
38.200       160
38.210       240
38.220       220
38.230       147
38.240       207
38.250       227
38.260       240
38.270       140
38.280       173
38.290       167
38.300       200
38.310       133
38.320       180
38.330       207
38.340       167
38.350       147
38.360       227
38.370       320
38.380       193
38.390       167
38.400       273
38.410       180
38.420       280
38.430       213
38.440       247
38.450       240
38.460       420
38.470       167
38.480       260
38.490       227
38.500       247
38.510       333
38.520       280
38.530       280
38.540       300
38.550       273
38.560       267
38.570       307
38.580       293
38.590       327
38.600       347
38.610       313
38.620       367
38.630       340
38.640       280
38.650       240
38.660       293
38.670       340
38.680       367
38.690       327
38.700       407
38.710       393
38.720       373
38.730       426
38.740       373
38.750       466
38.760       393
38.770       426
38.780       460
38.790       533
38.800       440
38.810       526
38.820       520
38.830       513
38.840       533
38.850       446
38.860       533
38.870       593
38.880       613
38.890       440
38.900       466
38.910       666
38.920       633
38.930       613
38.940       773
38.950       560
38.960       780
38.970       880
38.980       973
38.990       760
39.000       893
39.010       913
39.020       846
39.030      1093
39.040       920
39.050      1146
39.060      1313
39.070      1200
39.080      1279
39.090      1279
39.100      1459
39.110      1473
39.120      1566
39.130      1746
39.140      1813
39.150      1959
39.160      1999
39.170      1966
39.180      2466
39.190      2506
39.200      2459
39.210      2892
39.220      2799
39.230      2732
39.240      3179
39.250      3352
39.260      3685
39.270      4012
39.280      4165
39.290      4272
39.300      4658
39.310      5118
39.320      4705
39.330      5811
39.340      5918
39.350      5978
39.360      6724
39.370      7084
39.380      6971
39.390      7570
39.400      8017
39.410      8477
39.420      8663
39.430      8903
39.440      9743
39.450      9769
39.460      9863
39.470     11129
39.480     10716
39.490     11475
39.500     11569
39.510     12035
39.520     11415
39.530     12088
39.540     12175
39.550     12362
39.560     12268
39.570     12342
39.580     12815
39.590     12622
39.600     12568
39.610     12742
39.620     12142
39.630     12335
39.640     12128
39.650     12368
39.660     11815
39.670     12009
39.680     11342
39.690     11275
39.700     10962
39.710     10522
39.720     10243
39.730      9696
39.740      9516
39.750      8976
39.760      8763
39.770      8683
39.780      8197
39.790      8057
39.800      7217
39.810      7297
39.820      6971
39.830      6971
39.840      6631
39.850      6491
39.860      6024
39.870      5724
39.880      5744
39.890      5424
39.900      4891
39.910      4838
39.920      4885
39.930      4645
39.940      4098
39.950      4032
39.960      3792
39.970      4205
39.980      3405
39.990      3645
40.000      3345
40.010      3285
40.020      3105
40.030      2919
40.040      2866
40.050      2719
40.060      2652
40.070      2866
40.080      2499
40.090      2686
40.100      2526
40.110      2306
40.120      2186
40.130      2112
40.140      2199
40.150      2006
40.160      1906
40.170      2079
40.180      1879
40.190      2026
40.200      1659
40.210      1779
40.220      1613
40.230      1433
40.240      1539
40.250      1506
40.260      1513
40.270      1779
40.280      1393
40.290      1359
40.300      1253
40.310      1459
40.320      1153
40.330      1206
40.340      1266
40.350      1120
40.360      1113
40.370      1106
40.380      1093
40.390      1073
40.400      1013
40.410       960
40.420      1020
40.430      1006
40.440       966
40.450       793
40.460       906
40.470       833
40.480       706
40.490       953
40.500       746
40.510       766
40.520       913
40.530       846
40.540       686
40.550       760
40.560       773
40.570       853
40.580       726
40.590       800
40.600       560
40.610       660
40.620       746
40.630       580
40.640       626
40.650       700
40.660       660
40.670       600
40.680       653
40.690       653
40.700       553
40.710       533
40.720       586
40.730       493
40.740       566
40.750       620
40.760       446
40.770       473
40.780       546
40.790       506
40.800       513
40.810       480
40.820       400
40.830       340
40.840       546
40.850       460
40.860       480
40.870       400
40.880       413
40.890       353
40.900       347
40.910       446
40.920       387
40.930       340
40.940       360
40.950       320
40.960       313
40.970       407
40.980       400
40.990       473
41.000       300
41.010       387
41.020       393
41.030       360
41.040       413
41.050       273
41.060       347
41.070       327
41.080       273
41.090       300
41.100       300
41.110       333
41.120       313
41.130       353
41.140       240
41.150       247
41.160       287
41.170       340
41.180       273
41.190       293
41.200       280
41.210       273
41.220       247
41.230       240
41.240       153
41.250       260
41.260       213
41.270       247
41.280       293
41.290       180
41.300       207
41.310       187
41.320       193
41.330       200
41.340       200
41.350       193
41.360       207
41.370       200
41.380       240
41.390       287
41.400       267
41.410       193
41.420       220
41.430       287
41.440       207
41.450       273
41.460       193
41.470       140
41.480       213
41.490       260
41.500       213
41.510       187
41.520       247
41.530       240
41.540       167
41.550       180
41.560       247
41.570       233
41.580       220
41.590       307
41.600       340
41.610       327
41.620       240
41.630       440
41.640       293
41.650       453
41.660       327
41.670       273
41.680       433
41.690       253
41.700       220
41.710       160
41.720       233
41.730       293
41.740       260
41.750       213
41.760       193
41.770       173
41.780       187
41.790       233
41.800       127
41.810       167
41.820       113
41.830       140
41.840       167
41.850       140
41.860        80
41.870       120
41.880       147
41.890       173
41.900       180
41.910       153
41.920       113
41.930       147
41.940        87
41.950       140
41.960       127
41.970       153
41.980       133
41.990       160
42.000       153
42.010       120
42.020       173
42.030       173
42.040       147
42.050       127
42.060       127
42.070        60
42.080        87
42.090       113
42.100       127
42.110       133
42.120       133
42.130        93
42.140       107
42.150       107
42.160       100
42.170       167
42.180       127
42.190       193
42.200        87
42.210       113
42.220       133
42.230        47
42.240       113
42.250       140
42.260       140
42.270       120
42.280       140
42.290       113
42.300       120
42.310       127
42.320       167
42.330       113
42.340       100
42.350       153
42.360       100
42.370       127
42.380        73
42.390       120
42.400       127
42.410        93
42.420        93
42.430        87
42.440       113
42.450        73
42.460       107
42.470       127
42.480       113
42.490       120
42.500       120
42.510        87
42.520       140
42.530        87
42.540       147
42.550        67
42.560        87
42.570        93
42.580       107
42.590        93
42.600        60
42.610       133
42.620        73
42.630        60
42.640       100
42.650        87
42.660       140
42.670        93
42.680       127
42.690        93
42.700        67
42.710       133
42.720        80
42.730       107
42.740        93
42.750        87
42.760        60
42.770        40
42.780        73
42.790        93
42.800        60
42.810        80
42.820       120
42.830        73
42.840       100
42.850        87
42.860        60
42.870        80
42.880        80
42.890        80
42.900        73
42.910       100
42.920       133
42.930       107
42.940        20
42.950       120
42.960        93
42.970       100
42.980        47
42.990        73
43.000        80
43.010       127
43.020       113
43.030        60
43.040       100
43.050        40
43.060        67
43.070        93
43.080        93
43.090        80
43.100       147
43.110        80
43.120       100
43.130        53
43.140       107
43.150       107
43.160        87
43.170        60
43.180        87
43.190       140
43.200       127
43.210       193
43.220       107
43.230        93
43.240        67
43.250        73
43.260        73
43.270       107
43.280        67
43.290       140
43.300       133
43.310       167
43.320       200
43.330       247
43.340       227
43.350       213
43.360       173
43.370       167
43.380       160
43.390        87
43.400       120
43.410        93
43.420       107
43.430       127
43.440       107
43.450       107
43.460       140
43.470       100
43.480       127
43.490       107
43.500       133
43.510       107
43.520        60
43.530        87
43.540        67
43.550        40
43.560        60
43.570       100
43.580        53
43.590        53
43.600        93
43.610        73
43.620        87
43.630        87
43.640        80
43.650        40
43.660        53
43.670        60
43.680        73
43.690        47
43.700        80
43.710        73
43.720        67
43.730        80
43.740       107
43.750        87
43.760        93
43.770        67
43.780        60
43.790        60
43.800        80
43.810        80
43.820        40
43.830        67
43.840        80
43.850        80
43.860       100
43.870        33
43.880        53
43.890        87
43.900        47
43.910        73
43.920        60
43.930        87
43.940        33
43.950        67
43.960        93
43.970        33
43.980        67
43.990        60
44.000        40
44.010        33
44.020        47
44.030        60
44.040        60
44.050        80
44.060        87
44.070        67
44.080        60
44.090        33
44.100        93
44.110        73
44.120        60
44.130        67
44.140       113
44.150       133
44.160        87
44.170        33
44.180        73
44.190        47
44.200       107
44.210        47
44.220        33
44.230        60
44.240        47
44.250        67
44.260        40
44.270        53
44.280        53
44.290        47
44.300        67
44.310        93
44.320        53
44.330        40
44.340        27
44.350        60
44.360        53
44.370        40
44.380        93
44.390        60
44.400        47
44.410        53
44.420        53
44.430        33
44.440        53
44.450        60
44.460        67
44.470        60
44.480        87
44.490        60
44.500        73
44.510        80
44.520        40
44.530        73
44.540        60
44.550       100
44.560        53
44.570        53
44.580        80
44.590        40
44.600        60
44.610        60
44.620        53
44.630        40
44.640        53
44.650        47
44.660        60
44.670        40
44.680       100
44.690        80
44.700        33
44.710        47
44.720        20
44.730        73
44.740        40
44.750        87
44.760        47
44.770        53
44.780        60
44.790        73
44.800       100
44.810        73
44.820        53
44.830        60
44.840        67
44.850        73
44.860        67
44.870        67
44.880       100
44.890        93
44.900        53
44.910        60
44.920        73
44.930        40
44.940        67
44.950        53
44.960        60
44.970        93
44.980        67
44.990        27
45.000        93
45.010        87
45.020        53
45.030        87
45.040        53
45.050        53
45.060        67
45.070        87
45.080        27
45.090        53
45.100        47
45.110        67
45.120        47
45.130        67
45.140        80
45.150        20
45.160        33
45.170        73
45.180        40
45.190        60
45.200        73
45.210        40
45.220        60
45.230        27
45.240        60
45.250        47
45.260        47
45.270        40
45.280        60
45.290        33
45.300        47
45.310        20
45.320        33
45.330        60
45.340        53
45.350        53
45.360        33
45.370        53
45.380        80
45.390        20
45.400        33
45.410        67
45.420        47
45.430        67
45.440        93
45.450        67
45.460        27
45.470        67
45.480        33
45.490       107
45.500        60
45.510        67
45.520        60
45.530        60
45.540        67
45.550        73
45.560       100
45.570        73
45.580       113
45.590        27
45.600        87
45.610        40
45.620        87
45.630        60
45.640        40
45.650        87
45.660        53
45.670        80
45.680        47
45.690        53
45.700        67
45.710        40
45.720        33
45.730        60
45.740        60
45.750        27
45.760        40
45.770        53
45.780        27
45.790        47
45.800        53
45.810        53
45.820       100
45.830        53
45.840        67
45.850        60
45.860        53
45.870        87
45.880        67
45.890        73
45.900        60
45.910       107
45.920        73
45.930        47
45.940        73
45.950        53
45.960        60
45.970        47
45.980        47
45.990        87
46.000        53
46.010        47
46.020        33
46.030        53
46.040        60
46.050        60
46.060        67
46.070        67
46.080        53
46.090       100
46.100        60
46.110        60
46.120       127
46.130        53
46.140        73
46.150        53
46.160        40
46.170        53
46.180        47
46.190        47
46.200        67
46.210        53
46.220        67
46.230        60
46.240       107
46.250        53
46.260        47
46.270       100
46.280        47
46.290        33
46.300        67
46.310        27
46.320        80
46.330        67
46.340        60
46.350        73
46.360        53
46.370        53
46.380        20
46.390        67
46.400        53
46.410        33
46.420        33
46.430        53
46.440        80
46.450        53
46.460         0
46.470        40
46.480        33
46.490        80
46.500        67
46.510        47
46.520        67
46.530        40
46.540        53
46.550        47
46.560        73
46.570        60
46.580        60
46.590        60
46.600        40
46.610        40
46.620        33
46.630        53
46.640        33
46.650        20
46.660        73
46.670        40
46.680        67
46.690        40
46.700        27
46.710        33
46.720        40
46.730        67
46.740        33
46.750        27
46.760        40
46.770        53
46.780        73
46.790        27
46.800        53
46.810        27
46.820        73
46.830        33
46.840        33
46.850        40
46.860        60
46.870        33
46.880        47
46.890        73
46.900        47
46.910        47
46.920        47
46.930        67
46.940        73
46.950        33
46.960        53
46.970        27
46.980        20
46.990        40
47.000        20
47.010        73
47.020        13
47.030        40
47.040        67
47.050        40
47.060         7
47.070        73
47.080        33
47.090        33
47.100        33
47.110        53
47.120        40
47.130        47
47.140        40
47.150        60
47.160        60
47.170        13
47.180        40
47.190        33
47.200        73
47.210        47
47.220        40
47.230        53
47.240        20
47.250        33
47.260        53
47.270        53
47.280        40
47.290        27
47.300        53
47.310        40
47.320        27
47.330        40
47.340        20
47.350        27
47.360        33
47.370        40
47.380        27
47.390        20
47.400        13
47.410        33
47.420        20
47.430        47
47.440        33
47.450        33
47.460        47
47.470        27
47.480        47
47.490        40
47.500        47
47.510        27
47.520        33
47.530        40
47.540        40
47.550        40
47.560        40
47.570        33
47.580        40
47.590         7
47.600        40
47.610        53
47.620        53
47.630        40
47.640        53
47.650        53
47.660        27
47.670        40
47.680        47
47.690        53
47.700        67
47.710        60
47.720        20
47.730        60
47.740        60
47.750        80
47.760        13
47.770        33
47.780        53
47.790        60
47.800        53
47.810        53
47.820        27
47.830        33
47.840        47
47.850        87
47.860        33
47.870        33
47.880        13
47.890        33
47.900        53
47.910        60
47.920        53
47.930        40
47.940        33
47.950        20
47.960        47
47.970        27
47.980         7
47.990        27
48.000        53
48.010        40
48.020        33
48.030        33
48.040        40
48.050        33
48.060        47
48.070        33
48.080        40
48.090        33
48.100        60
48.110        27
48.120        47
48.130        27
48.140        33
48.150        20
48.160        40
48.170        27
48.180        40
48.190         7
48.200        67
48.210        20
48.220        20
48.230         7
48.240        53
48.250        40
48.260        40
48.270        33
48.280        67
48.290        53
48.300        93
48.310        53
48.320        13
48.330        40
48.340        20
48.350        40
48.360        33
48.370        47
48.380        20
48.390        27
48.400        40
48.410        40
48.420        40
48.430        47
48.440        20
48.450        40
48.460        40
48.470         0
48.480        47
48.490        60
48.500        40
48.510        27
48.520        33
48.530        27
48.540        13
48.550        73
48.560        27
48.570        20
48.580        47
48.590        40
48.600        33
48.610        13
48.620        33
48.630        20
48.640        40
48.650        13
48.660        13
48.670        20
48.680        33
48.690        33
48.700        27
48.710        53
48.720        33
48.730        13
48.740        47
48.750        33
48.760        47
48.770        20
48.780        40
48.790        47
48.800        27
48.810        60
48.820        40
48.830        40
48.840        27
48.850        27
48.860        33
48.870        40
48.880        40
48.890        27
48.900        33
48.910        40
48.920        47
48.930        27
48.940        73
48.950        60
48.960        13
48.970        40
48.980        40
48.990        33
49.000         7
49.010        73
49.020        27
49.030        40
49.040         7
49.050        33
49.060        33
49.070        40
49.080        20
49.090        13
49.100        13
49.110        40
49.120        33
49.130        33
49.140        13
49.150        33
49.160        33
49.170        20
49.180         7
49.190        40
49.200        20
49.210        27
49.220        13
49.230        67
49.240        40
49.250        33
49.260        40
49.270        53
49.280        20
49.290        47
49.300        27
49.310        27
49.320        53
49.330        33
49.340        47
49.350        27
49.360        27
49.370        20
49.380        27
49.390        33
49.400        33
49.410        47
49.420        13
49.430        20
49.440        33
49.450        20
49.460        13
49.470        33
49.480        33
49.490         7
49.500        47
49.510        47
49.520        33
49.530         0
49.540        20
49.550         0
49.560        20
49.570        33
49.580        47
49.590        67
49.600        20
49.610        13
49.620        20
49.630        40
49.640        40
49.650        53
49.660         7
49.670        47
49.680        20
49.690        33
49.700        47
49.710        40
49.720        13
49.730        27
49.740        13
49.750        60
49.760        27
49.770        27
49.780        33
49.790        20
49.800         7
49.810        47
49.820        13
49.830        20
49.840        47
49.850        47
49.860        40
49.870        20
49.880        40
49.890        27
49.900        40
49.910        27
49.920        33
49.930        40
49.940        53
49.950        27
49.960        47
49.970        13
49.980        47
49.990        20
50.000        40
50.010        53
50.020         7
50.030        20
50.040        13
50.050        13
50.060        20
50.070        33
50.080        27
50.090        27
50.100        53
50.110        20
50.120        20
50.130        20
50.140        20
50.150         0
50.160         7
50.170        47
50.180        40
50.190        33
50.200        27
50.210        20
50.220        13
50.230        33
50.240        27
50.250        27
50.260        40
50.270        13
50.280        20
50.290        27
50.300        40
50.310        20
50.320        13
50.330        47
50.340        13
50.350        20
50.360        13
50.370        13
50.380        40
50.390        20
50.400        40
50.410        47
50.420        33
50.430        33
50.440         0
50.450        53
50.460         7
50.470        20
50.480        27
50.490        33
50.500        20
50.510        20
50.520        33
50.530        27
50.540        40
50.550        33
50.560        33
50.570        33
50.580         7
50.590        33
50.600         7
50.610         0
50.620        20
50.630        20
50.640        33
50.650        33
50.660        53
50.670        53
50.680        53
50.690        40
50.700        13
50.710        13
50.720        33
50.730        13
50.740        20
50.750        27
50.760        13
50.770        20
50.780        47
50.790         0
50.800        20
50.810        33
50.820         7
50.830        33
50.840        27
50.850        20
50.860        40
50.870         7
50.880         7
50.890        20
50.900        40
50.910        13
50.920        13
50.930        33
50.940        47
50.950        20
50.960        13
50.970        27
50.980        53
50.990        33
51.000         0
51.010         0
51.020        33
51.030        27
51.040        27
51.050        53
51.060        27
51.070        53
51.080        47
51.090        20
51.100        33
51.110        13
51.120        20
51.130        53
51.140        13
51.150        40
51.160         7
51.170        27
51.180        13
51.190        20
51.200         7
51.210         7
51.220        20
51.230        27
51.240        27
51.250        40
51.260        27
51.270        33
51.280        13
51.290        33
51.300        27
51.310        40
51.320        27
51.330         7
51.340        27
51.350        53
51.360        47
51.370        20
51.380        33
51.390        27
51.400        13
51.410        20
51.420        27
51.430        27
51.440        20
51.450        33
51.460        33
51.470        40
51.480        27
51.490        20
51.500        47
51.510        27
51.520         7
51.530        13
51.540        20
51.550        27
51.560        20
51.570        27
51.580        13
51.590        20
51.600        13
51.610        27
51.620        27
51.630        13
51.640        20
51.650        20
51.660        33
51.670        33
51.680        13
51.690        33
51.700        13
51.710        20
51.720         7
51.730        20
51.740        13
51.750         7
51.760        27
51.770        13
51.780        33
51.790        20
51.800        27
51.810         7
51.820        13
51.830        20
51.840        13
51.850        20
51.860        47
51.870        27
51.880        20
51.890        20
51.900        27
51.910        27
51.920        20
51.930        27
51.940        13
51.950        33
51.960        27
51.970        40
51.980        27
51.990        33
52.000        27
52.010        33
52.020        20
52.030         0
52.040        13
52.050        13
52.060        47
52.070        27
52.080        13
52.090         0
52.100        20
52.110        27
52.120        40
52.130        27
52.140        13
52.150         7
52.160        20
52.170        20
52.180        33
52.190        13
52.200        20
52.210        20
52.220        20
52.230        40
52.240         7
52.250        33
52.260        27
52.270        20
52.280        27
52.290        27
52.300         7
52.310        13
52.320        20
52.330        27
52.340         7
52.350        20
52.360        20
52.370        27
52.380        33
52.390        40
52.400        13
52.410        27
52.420        27
52.430        33
52.440         0
52.450        33
52.460        40
52.470        13
52.480        33
52.490        53
52.500        47
52.510        27
52.520        33
52.530        67
52.540        40
52.550       100
52.560        47
52.570        60
52.580        60
52.590        40
52.600        27
52.610        13
52.620        33
52.630        47
52.640        27
52.650        40
52.660        40
52.670        27
52.680        20
52.690        27
52.700        47
52.710        53
52.720        27
52.730        33
52.740        27
52.750        27
52.760        13
52.770        27
52.780        20
52.790         7
52.800        27
52.810        40
52.820        13
52.830        27
52.840        13
52.850         7
52.860        13
52.870        33
52.880        33
52.890        13
52.900        47
52.910        33
52.920        13
52.930         0
52.940        13
52.950        20
52.960        20
52.970        40
52.980        20
52.990        13
53.000        20
53.010        40
53.020        20
53.030        33
53.040         0
53.050         7
53.060        13
53.070        13
53.080        13
53.090        13
53.100        20
53.110         7
53.120        20
53.130        33
53.140         7
53.150         0
53.160        20
53.170        20
53.180        47
53.190        20
53.200        13
53.210        20
53.220        13
53.230        27
53.240        27
53.250         7
53.260        27
53.270        27
53.280        27
53.290        20
53.300        33
53.310        20
53.320        27
53.330         7
53.340         7
53.350        47
53.360        27
53.370         7
53.380        27
53.390         0
53.400        27
53.410        27
53.420        27
53.430        33
53.440        27
53.450        53
53.460        33
53.470        33
53.480        27
53.490        33
53.500        13
53.510        27
53.520        47
53.530        13
53.540        13
53.550        27
53.560        20
53.570        20
53.580        13
53.590         7
53.600        33
53.610        33
53.620        20
53.630        27
53.640        20
53.650        53
53.660        33
53.670        60
53.680         7
53.690        47
53.700        20
53.710        27
53.720         7
53.730         0
53.740        20
53.750        33
53.760        33
53.770         7
53.780        13
53.790        27
53.800        13
53.810         0
53.820        13
53.830         7
53.840         0
53.850         7
53.860        13
53.870        13
53.880        20
53.890         7
53.900        33
53.910        20
53.920         7
53.930         7
53.940        13
53.950        20
53.960        47
53.970        27
53.980        20
53.990         0
54.000        13
54.010         7
54.020         0
54.030         0
54.040        40
54.050         7
54.060         7
54.070        13
54.080        20
54.090        27
54.100        13
54.110        20
54.120         7
54.130         7
54.140        13
54.150        40
54.160        27
54.170        20
54.180        20
54.190         7
54.200        13
54.210        20
54.220        20
54.230        33
54.240        33
54.250        27
54.260         0
54.270         7
54.280        27
54.290        27
54.300         7
54.310         0
54.320        47
54.330        20
54.340        60
54.350        20
54.360        20
54.370        40
54.380        27
54.390        13
54.400        13
54.410        20
54.420        27
54.430        20
54.440        20
54.450        27
54.460        13
54.470        27
54.480        27
54.490        13
54.500         7
54.510         0
54.520         7
54.530        13
54.540         7
54.550        13
54.560        27
54.570        27
54.580        20
54.590         7
54.600         7
54.610        20
54.620         7
54.630        13
54.640        13
54.650         0
54.660         0
54.670         7
54.680        13
54.690        33
54.700        27
54.710         7
54.720        20
54.730        20
54.740        20
54.750        13
54.760        27
54.770        13
54.780        13
54.790         7
54.800        20
54.810        27
54.820        20
54.830        27
54.840         7
54.850        13
54.860        33
54.870        33
54.880        13
54.890         7
54.900        20
54.910        13
54.920        20
54.930         7
54.940        13
54.950        33
54.960        13
54.970        27
54.980        27
54.990        40
55.000        13
55.010        20
55.020         7
55.030        13
55.040        33
55.050        40
55.060         7
55.070         0
55.080        40
55.090        13
55.100        13
55.110         7
55.120         7
55.130        13
55.140        27
55.150        13
55.160         7
55.170        20
55.180         7
55.190         0
55.200        27
55.210         7
55.220        13
55.230         7
55.240        13
55.250        13
55.260        13
55.270        20
55.280        20
55.290        20
55.300        27
55.310        13
55.320        33
55.330        33
55.340        40
55.350        20
55.360        13
55.370        13
55.380        13
55.390        13
55.400        33
55.410         0
55.420        13
55.430         7
55.440        13
55.450        27
55.460        27
55.470        20
55.480        27
55.490        27
55.500         7
55.510        13
55.520         0
55.530         7
55.540        20
55.550         7
55.560        20
55.570        27
55.580        27
55.590         0
55.600        20
55.610        13
55.620         7
55.630        13
55.640        40
55.650        13
55.660        13
55.670        13
55.680        20
55.690        13
55.700        20
55.710        47
55.720        27
55.730        27
55.740        13
55.750        13
55.760        13
55.770        13
55.780        33
55.790        13
55.800        33
55.810         0
55.820        20
55.830        13
55.840         0
55.850         7
55.860        13
55.870        53
55.880        13
55.890        13
55.900        13
55.910         7
55.920        20
55.930        20
55.940        13
55.950        20
55.960         7
55.970        20
55.980        27
55.990         7
56.000        27
56.010         7
56.020        13
56.030        13
56.040         7
56.050        13
56.060        20
56.070        40
56.080        33
56.090        13
56.100         7
56.110        13
56.120        27
56.130        13
56.140        33
56.150        20
56.160        13
56.170         0
56.180        27
56.190         7
56.200        20
56.210        27
56.220         7
56.230        20
56.240        13
56.250        20
56.260        13
56.270         7
56.280        20
56.290         7
56.300        13
56.310        20
56.320         0
56.330         7
56.340        27
56.350         0
56.360        20
56.370        13
56.380        13
56.390        13
56.400         7
56.410        27
56.420        20
56.430        27
56.440        27
56.450        27
56.460        27
56.470        13
56.480        40
56.490        20
56.500        40
56.510        27
56.520         7
56.530         7
56.540        27
56.550        13
56.560        13
56.570         0
56.580        20
56.590         7
56.600         7
56.610         7
56.620         0
56.630        27
56.640         7
56.650        13
56.660         7
56.670        27
56.680        13
56.690        20
56.700        33
56.710         7
56.720        20
56.730         7
56.740        13
56.750         7
56.760         0
56.770         0
56.780        13
56.790        33
56.800        13
56.810         7
56.820        13
56.830         0
56.840        27
56.850        20
56.860        13
56.870        13
56.880        13
56.890        27
56.900        40
56.910        13
56.920        20
56.930        27
56.940        20
56.950        20
56.960         0
56.970        33
56.980        13
56.990        13
57.000        27
57.010        40
57.020         7
57.030         0
57.040        27
57.050         7
57.060        20
57.070         7
57.080        20
57.090         7
57.100        27
57.110         0
57.120        13
57.130         7
57.140        33
57.150        13
57.160         0
57.170        13
57.180        20
57.190        20
57.200        20
57.210        27
57.220        13
57.230        20
57.240        13
57.250        20
57.260        33
57.270        13
57.280        20
57.290         7
57.300        33
57.310         7
57.320        33
57.330        20
57.340        47
57.350        27
57.360        33
57.370        53
57.380        20
57.390        60
57.400        40
57.410        87
57.420        20
57.430        87
57.440        53
57.450        73
57.460       100
57.470       147
57.480       207
57.490       220
57.500       233
57.510       253
57.520       260
57.530       227
57.540       200
57.550       147
57.560       160
57.570        73
57.580        47
57.590        60
57.600        80
57.610        53
57.620        73
57.630       127
57.640       153
57.650       133
57.660       133
57.670       173
57.680       120
57.690       107
57.700        93
57.710        93
57.720       100
57.730        53
57.740        20
57.750        33
57.760        33
57.770        20
57.780         7
57.790        27
57.800        27
57.810        33
57.820        13
57.830        40
57.840        47
57.850        13
57.860        13
57.870        20
57.880        27
57.890         0
57.900         0
57.910        33
57.920        13
57.930        27
57.940         7
57.950        20
57.960         0
57.970        13
57.980        27
57.990         0
58.000         7
58.010        20
58.020        27
58.030         0
58.040        13
58.050         0
58.060        20
58.070         7
58.080        27
58.090         7
58.100        13
58.110        27
58.120         7
58.130        13
58.140        13
58.150         7
58.160        20
58.170         7
58.180        13
58.190        13
58.200         7
58.210         0
58.220        27
58.230        27
58.240         0
58.250         7
58.260         7
58.270        20
58.280        13
58.290        20
58.300        13
58.310        27
58.320        20
58.330         0
58.340        27
58.350         7
58.360        20
58.370         7
58.380        13
58.390         0
58.400        20
58.410        20
58.420         7
58.430        20
58.440        33
58.450         7
58.460         0
58.470         7
58.480        27
58.490        20
58.500         7
58.510         0
58.520        33
58.530         7
58.540        27
58.550        20
58.560        27
58.570        20
58.580        13
58.590        27
58.600         0
58.610         7
58.620        20
58.630         0
58.640        27
58.650        33
58.660         0
58.670        13
58.680         0
58.690         0
58.700        13
58.710        20
58.720         7
58.730        13
58.740         7
58.750        20
58.760        13
58.770        13
58.780        20
58.790        27
58.800         0
58.810         7
58.820        33
58.830         7
58.840        13
58.850         0
58.860         7
58.870        20
58.880        20
58.890         7
58.900        27
58.910        20
58.920        20
58.930         7
58.940        20
58.950         7
58.960         7
58.970        13
58.980        13
58.990        20
59.000         7
59.010         7
59.020         7
59.030         0
59.040        13
59.050        13
59.060         7
59.070         7
59.080        33
59.090         7
59.100         7
59.110        27
59.120         7
59.130        13
59.140        20
59.150        20
59.160        20
59.170        13
59.180        13
59.190        20
59.200        13
59.210        13
59.220        20
59.230         0
59.240        20
59.250         7
59.260         0
59.270         7
59.280        13
59.290         0
59.300        20
59.310         7
59.320        20
59.330         7
59.340         7
59.350        33
59.360        13
59.370        20
59.380         7
59.390        13
59.400        13
59.410        13
59.420        33
59.430        20
59.440        20
59.450         0
59.460        27
59.470        27
59.480         7
59.490         7
59.500        33
59.510        13
59.520        27
59.530        13
59.540        13
59.550        27
59.560        20
59.570        27
59.580         7
59.590        20
59.600        20
59.610         7
59.620        13
59.630         0
59.640         7
59.650        13
59.660        33
59.670        13
59.680        27
59.690        47
59.700        20
59.710        20
59.720         7
59.730        20
59.740        13
59.750         7
59.760        20
59.770        20
59.780        47
59.790        20
59.800        33
59.810        20
59.820         0
59.830        20
59.840        20
59.850        20
59.860        20
59.870         7
59.880         7
59.890         0
59.900        13
59.910         0
59.920        20
59.930        13
59.940        13
59.950         7
59.960        13
59.970        13
59.980        33
59.990         0
60.000         0
