20.000        60
20.010        73
20.020        73
20.030        53
20.040        80
20.050       107
20.060        47
20.070        33
20.080        73
20.090        47
20.100        93
20.110        67
20.120        60
20.130        93
20.140        47
20.150        40
20.160        87
20.170        87
20.180       100
20.190       120
20.200        47
20.210        60
20.220        67
20.230        60
20.240        60
20.250        53
20.260        73
20.270        73
20.280        53
20.290        60
20.300        60
20.310        73
20.320        80
20.330        73
20.340        67
20.350        60
20.360        67
20.370        73
20.380        53
20.390        67
20.400        80
20.410        67
20.420       107
20.430        40
20.440        73
20.450       107
20.460        53
20.470        73
20.480        47
20.490        73
20.500        93
20.510        67
20.520        47
20.530        93
20.540       107
20.550        33
20.560        87
20.570        93
20.580        27
20.590        53
20.600        47
20.610        73
20.620        60
20.630        73
20.640        33
20.650        60
20.660       100
20.670        80
20.680        93
20.690        33
20.700        27
20.710        73
20.720       127
20.730        67
20.740       113
20.750        80
20.760        60
20.770        80
20.780        73
20.790       120
20.800        53
20.810        93
20.820        53
20.830        60
20.840        53
20.850        33
20.860        80
20.870        80
20.880        73
20.890        93
20.900        93
20.910       100
20.920        87
20.930        40
20.940        80
20.950        60
20.960        47
20.970        87
20.980        80
20.990        60
21.000        60
21.010       120
21.020        87
21.030        33
21.040        27
21.050        40
21.060       100
21.070        67
21.080        87
21.090        47
21.100        67
21.110        73
21.120       113
21.130        87
21.140        87
21.150        73
21.160        73
21.170       113
21.180        87
21.190        73
21.200        47
21.210        67
21.220        73
21.230        60
21.240        53
21.250        80
21.260        67
21.270        73
21.280       100
21.290        47
21.300        60
21.310        67
21.320        67
21.330        67
21.340        47
21.350       100
21.360        53
21.370        47
21.380        80
21.390        87
21.400        33
21.410        67
21.420        60
21.430        87
21.440        47
21.450        73
21.460        40
21.470        87
21.480        53
21.490        53
21.500        93
21.510        60
21.520        47
21.530        47
21.540        73
21.550        67
21.560        47
21.570        87
21.580        47
21.590        80
21.600        60
21.610        33
21.620        60
21.630        80
21.640        47
21.650        67
21.660        93
21.670        53
21.680        67
21.690        73
21.700        80
21.710        73
21.720        60
21.730        33
21.740       100
21.750        60
21.760        60
21.770       107
21.780        73
21.790        60
21.800        80
21.810        93
21.820        73
21.830        87
21.840        60
21.850        60
21.860        87
21.870        53
21.880        93
21.890        53
21.900       100
21.910        73
21.920        80
21.930        73
21.940        60
21.950        80
21.960        60
21.970        53
21.980        60
21.990        53
22.000        53
22.010       100
22.020        93
22.030        40
22.040        93
22.050        80
22.060        60
22.070        47
22.080        40
22.090        33
22.100        73
22.110        93
22.120        87
22.130        60
22.140        47
22.150        40
22.160       100
22.170        73
22.180        67
22.190        53
22.200        47
22.210        53
22.220        40
22.230        40
22.240        53
22.250        53
22.260        67
22.270        80
22.280        40
22.290        80
22.300        60
22.310        40
22.320        67
22.330        67
22.340        40
22.350        87
22.360        87
22.370        60
22.380        80
22.390        47
22.400        67
22.410        53
22.420        47
22.430        40
22.440        60
22.450       120
22.460        27
22.470        73
22.480        67
22.490        80
22.500        80
22.510        60
22.520        80
22.530        67
22.540        53
22.550        80
22.560        47
22.570        73
22.580        27
22.590        80
22.600        53
22.610        73
22.620        73
22.630        40
22.640        53
22.650       100
22.660        53
22.670        33
22.680        53
22.690        67
22.700        47
22.710        53
22.720        73
22.730        73
22.740        53
22.750        40
22.760        40
22.770        60
22.780        73
22.790        67
22.800        73
22.810        53
22.820        60
22.830       100
22.840        73
22.850        53
22.860        67
22.870        47
22.880       100
22.890        27
22.900        40
22.910        67
22.920       100
22.930        60
22.940        67
22.950        53
22.960        40
22.970        60
22.980        73
22.990        13
23.000        60
23.010        73
23.020        93
23.030        67
23.040        60
23.050        80
23.060        67
23.070        47
23.080        53
23.090        93
23.100        73
23.110        87
23.120        73
23.130        47
23.140        67
23.150        80
23.160        73
23.170        33
23.180        87
23.190        67
23.200        27
23.210        53
23.220       100
23.230        80
23.240        60
23.250        73
23.260        73
23.270        87
23.280        53
23.290       107
23.300        60
23.310        40
23.320        87
23.330        67
23.340        60
23.350        87
23.360        87
23.370        80
23.380       100
23.390        47
23.400        33
23.410        47
23.420        47
23.430        27
23.440        87
23.450        60
23.460        60
23.470        40
23.480        73
23.490        60
23.500        47
23.510        60
23.520        60
23.530        67
23.540        87
23.550        40
23.560        60
23.570        73
23.580        67
23.590        33
23.600        67
23.610        53
23.620        60
23.630        67
23.640        60
23.650        60
23.660        27
23.670        53
23.680        73
23.690        67
23.700        67
23.710        47
23.720        80
23.730        87
23.740        67
23.750        73
23.760        53
23.770        67
23.780        47
23.790        73
23.800        93
23.810        60
23.820        73
23.830        67
23.840        67
23.850        93
23.860        53
23.870       100
23.880        73
23.890        33
23.900        80
23.910        40
23.920       100
23.930        73
23.940        60
23.950       120
23.960        33
23.970        87
23.980        67
23.990        47
24.000        47
24.010        60
24.020        33
24.030        40
24.040        53
24.050        67
24.060        40
24.070        53
24.080        53
24.090        67
24.100       107
24.110        33
24.120        60
24.130        87
24.140        93
24.150        33
24.160        53
24.170        60
24.180        33
24.190        73
24.200        60
24.210        67
24.220        20
24.230        53
24.240        53
24.250        33
24.260        20
24.270        87
24.280        33
24.290        67
24.300        47
24.310        67
24.320        87
24.330        80
24.340        67
24.350        47
24.360        67
24.370        33
24.380       100
24.390        73
24.400        33
24.410        53
24.420        47
24.430        73
24.440        27
24.450        53
24.460        73
24.470        53
24.480        53
24.490        40
24.500        53
24.510        60
24.520        53
24.530        47
24.540        20
24.550        73
24.560        47
24.570        27
24.580        73
24.590        67
24.600        53
24.610        53
24.620        67
24.630        53
24.640        67
24.650        67
24.660        40
24.670        47
24.680        80
24.690        73
24.700        47
24.710        33
24.720        40
24.730        67
24.740        87
24.750        60
24.760        53
24.770        40
24.780        60
24.790        27
24.800        93
24.810        60
24.820        80
24.830        73
24.840        67
24.850        47
24.860        67
24.870        60
24.880         7
24.890        47
24.900        67
24.910        40
24.920        60
24.930        33
24.940        47
24.950        53
24.960        40
24.970        33
24.980        80
24.990        53
25.000         7
25.010        33
25.020        33
25.030        60
25.040        47
25.050        60
25.060        60
25.070        53
25.080        60
25.090        60
25.100        73
25.110        33
25.120        33
25.130        27
25.140        93
25.150        33
25.160        60
25.170        80
25.180        47
25.190        40
25.200        60
25.210        47
25.220        73
25.230       127
25.240        20
25.250        60
25.260        87
25.270        40
25.280        20
25.290        53
25.300        33
25.310        53
25.320       100
25.330        87
25.340        20
25.350        20
25.360        93
25.370       107
25.380        80
25.390       113
25.400       100
25.410        67
25.420        73
25.430        80
25.440        67
25.450       120
25.460       113
25.470       100
25.480       153
25.490       120
25.500       147
25.510       160
25.520        93
25.530       147
25.540       127
25.550       173
25.560       113
25.570       140
25.580        73
25.590        73
25.600       100
25.610       100
25.620        80
25.630        53
25.640        60
25.650        73
25.660        20
25.670        67
25.680        40
25.690        60
25.700        40
25.710        40
25.720        53
25.730        27
25.740        73
25.750         7
25.760        47
25.770        40
25.780        60
25.790        33
25.800        40
25.810        67
25.820        53
25.830        40
25.840        80
25.850        73
25.860        27
25.870        67
25.880        47
25.890        53
25.900        27
25.910        67
25.920        27
25.930        33
25.940        67
25.950        33
25.960        40
25.970        47
25.980        60
25.990        80
26.000        53
26.010        33
26.020        67
26.030        40
26.040        60
26.050        60
26.060        80
26.070        60
26.080        20
26.090        40
26.100        67
26.110        80
26.120        53
26.130        27
26.140        33
26.150        53
26.160        33
26.170        93
26.180        47
26.190        67
26.200        20
26.210        33
26.220        40
26.230        33
26.240        47
26.250        33
26.260        53
26.270        47
26.280        40
26.290        40
26.300        20
26.310        80
26.320        27
26.330        27
26.340        73
26.350        13
26.360        20
26.370        40
26.380        73
26.390        13
26.400        27
26.410        40
26.420        53
26.430        40
26.440        40
26.450        27
26.460        67
26.470        60
26.480        53
26.490        40
26.500        53
26.510        53
26.520        53
26.530        67
26.540        53
26.550        80
26.560        53
26.570        40
26.580       100
26.590        60
26.600        53
26.610        60
26.620        47
26.630        33
26.640        53
26.650        60
26.660        33
26.670        40
26.680        40
26.690        33
26.700        40
26.710        93
26.720        53
26.730        40
26.740        47
26.750        47
26.760        40
26.770        27
26.780        60
26.790        53
26.800        33
26.810        53
26.820        33
26.830        73
26.840        47
26.850        53
26.860        20
26.870        27
26.880        53
26.890        67
26.900        60
26.910         7
26.920        60
26.930        93
26.940        67
26.950        33
26.960        13
26.970        33
26.980        27
26.990        60
27.000        40
27.010        60
27.020        60
27.030        53
27.040        27
27.050        20
27.060        47
27.070        47
27.080        60
27.090        53
27.100       100
27.110        67
27.120        40
27.130        60
27.140        33
27.150        47
27.160        73
27.170        13
27.180        20
27.190        47
27.200        33
27.210        40
27.220        47
27.230        20
27.240        33
27.250        53
27.260        47
27.270        80
27.280        60
27.290        67
27.300        33
27.310        67
27.320        53
27.330        73
27.340        53
27.350        60
27.360        40
27.370        33
27.380        53
27.390        40
27.400        33
27.410        40
27.420        33
27.430        53
27.440        33
27.450        27
27.460        33
27.470        47
27.480        33
27.490        67
27.500        40
27.510        67
27.520        40
27.530        60
27.540        13
27.550        80
27.560        40
27.570        67
27.580        47
27.590        33
27.600        47
27.610        27
27.620        33
27.630        47
27.640        27
27.650        40
27.660        33
27.670        33
27.680        27
27.690        67
27.700        20
27.710        47
27.720        47
27.730        53
27.740        53
27.750        40
27.760        13
27.770        33
27.780        40
27.790        13
27.800        33
27.810        60
27.820        53
27.830        60
27.840        60
27.850        47
27.860        27
27.870        40
27.880        27
27.890        13
27.900        20
27.910        60
27.920        20
27.930        60
27.940        27
27.950        27
27.960        27
27.970        20
27.980        53
27.990        73
28.000        60
28.010        33
28.020        33
28.030        33
28.040        33
28.050        80
28.060        53
28.070         7
28.080        33
28.090        40
28.100        27
28.110        60
28.120        60
28.130        33
28.140        33
28.150        47
28.160        53
28.170        20
28.180        93
28.190        53
28.200        40
28.210        40
28.220        13
28.230        47
28.240        60
28.250        53
28.260        87
28.270        27
28.280        47
28.290        47
28.300        27
28.310        40
28.320        47
28.330        20
28.340        60
28.350        27
28.360        53
28.370        40
28.380        80
28.390        47
28.400        60
28.410        47
28.420        27
28.430        40
28.440        67
28.450        40
28.460        27
28.470        33
28.480        27
28.490        33
28.500        53
28.510        20
28.520        27
28.530        33
28.540        53
28.550        20
28.560        73
28.570        53
28.580        60
28.590        53
28.600        53
28.610        40
28.620        73
28.630        60
28.640        20
28.650        40
28.660        20
28.670        47
28.680        13
28.690        13
28.700        47
28.710        20
28.720        53
28.730        60
28.740        33
28.750        40
28.760        60
28.770        20
28.780        40
28.790        33
28.800        47
28.810        27
28.820        47
28.830        27
28.840        13
28.850        40
28.860        13
28.870        33
28.880        53
28.890        47
28.900        60
28.910        60
28.920        60
28.930        73
28.940        60
28.950        27
28.960        47
28.970        60
28.980        53
28.990        40
29.000        27
29.010        53
29.020        33
29.030         0
29.040        13
29.050        33
29.060        53
29.070        53
29.080        33
29.090        33
29.100        33
29.110        33
29.120        53
29.130        47
29.140        53
29.150        27
29.160        20
29.170        47
29.180        40
29.190        33
29.200        40
29.210        47
29.220        53
29.230        40
29.240        67
29.250        53
29.260        13
29.270        73
29.280        33
29.290        67
29.300        40
29.310        27
29.320        47
29.330        20
29.340        53
29.350        47
29.360        13
29.370        60
29.380        33
29.390        33
29.400        40
29.410        13
29.420        33
29.430        40
29.440        20
29.450        27
29.460        13
29.470        27
29.480        13
29.490        33
29.500        47
29.510        60
29.520        33
29.530        47
29.540        13
29.550        53
29.560        47
29.570        33
29.580        40
29.590        13
29.600        67
29.610        27
29.620        33
29.630        40
29.640        40
29.650        60
29.660        33
29.670        27
29.680        47
29.690        33
29.700        93
29.710        40
29.720        33
29.730        33
29.740        13
29.750        53
29.760        20
29.770        47
29.780        27
29.790        13
29.800        13
29.810        27
29.820        40
29.830        27
29.840        27
29.850         7
29.860        27
29.870        27
29.880        53
29.890        40
29.900        13
29.910        20
29.920        27
29.930        27
29.940        20
29.950        40
29.960        27
29.970         7
29.980        47
29.990        20
30.000        27
30.010        40
30.020        60
30.030        40
30.040        20
30.050        27
30.060        40
30.070        13
30.080        13
30.090        33
30.100        20
30.110        27
30.120        20
30.130        13
30.140        47
30.150        47
30.160        40
30.170        53
30.180        20
30.190        20
30.200        20
30.210        40
30.220        27
30.230        67
30.240        40
30.250        40
30.260        40
30.270        33
30.280        27
30.290        53
30.300        53
30.310        33
30.320        20
30.330        47
30.340        20
30.350        33
30.360        33
30.370        33
30.380        27
30.390        33
30.400        53
30.410        13
30.420        40
30.430        33
30.440        27
30.450        53
30.460        20
30.470        13
30.480        33
30.490        27
30.500        20
30.510        47
30.520        60
30.530        20
30.540        40
30.550        27
30.560        60
30.570        53
30.580        33
30.590        20
30.600         7
30.610        33
30.620        13
30.630        27
30.640        13
30.650        53
30.660        47
30.670        40
30.680         7
30.690        33
30.700        13
30.710        33
30.720        33
30.730        33
30.740        40
30.750        33
30.760        27
30.770        20
30.780        13
30.790        33
30.800        40
30.810        20
30.820        60
30.830        53
30.840        27
30.850        47
30.860        27
30.870        33
30.880        33
30.890        33
30.900        33
30.910        27
30.920        27
30.930        20
30.940        47
30.950        47
30.960        33
30.970        20
30.980        60
30.990        47
31.000        73
31.010        40
31.020        40
31.030        60
31.040        20
31.050        27
31.060        33
31.070        40
31.080        40
31.090        40
31.100        13
31.110        33
31.120        20
31.130        33
31.140        53
31.150        27
31.160        47
31.170        33
31.180        47
31.190        40
31.200        53
31.210        13
31.220        40
31.230        33
31.240        27
31.250        67
31.260        27
31.270        13
31.280        67
31.290        27
31.300        33
31.310        47
31.320        33
31.330        47
31.340        27
31.350        20
31.360        27
31.370        47
31.380        53
31.390         0
31.400        33
31.410        53
31.420        60
31.430        20
31.440        20
31.450         0
31.460        33
31.470        27
31.480        27
31.490        40
31.500        40
31.510        20
31.520        47
31.530        13
31.540        20
31.550        47
31.560        27
31.570        13
31.580        27
31.590        73
31.600        33
31.610        40
31.620        27
31.630        47
31.640         7
31.650         7
31.660         7
31.670        60
31.680        60
31.690         7
31.700        47
31.710        13
31.720        20
31.730        40
31.740        60
31.750        13
31.760        27
31.770        33
31.780        20
31.790        40
31.800        47
31.810        40
31.820        53
31.830         7
31.840        27
31.850        13
31.860        40
31.870        40
31.880        33
31.890        40
31.900        47
31.910        20
31.920        27
31.930        33
31.940        53
31.950        33
31.960        40
31.970        40
31.980        20
31.990        20
32.000        27
32.010        20
32.020        33
32.030         0
32.040        47
32.050        27
32.060        20
32.070        40
32.080        13
32.090        40
32.100         7
32.110        33
32.120        27
32.130        33
32.140        33
32.150        53
32.160        27
32.170        47
32.180        53
32.190        13
32.200        20
32.210        13
32.220        33
32.230        53
32.240        20
32.250        47
32.260        40
32.270        33
32.280        27
32.290        20
32.300        13
32.310        40
32.320        27
32.330        47
32.340        53
32.350        27
32.360        33
32.370        20
32.380        27
32.390        13
32.400         7
32.410        40
32.420        33
32.430        20
32.440        33
32.450        60
32.460        20
32.470        33
32.480        73
32.490        20
32.500        20
32.510        40
32.520        40
32.530        33
32.540        33
32.550        13
32.560        33
32.570        33
32.580        20
32.590         7
32.600        20
32.610        40
32.620        20
32.630        40
32.640        47
32.650        27
32.660        53
32.670        47
32.680        20
32.690        47
32.700        20
32.710        27
32.720        33
32.730        47
32.740        33
32.750        27
32.760        33
32.770        27
32.780        47
32.790        40
32.800        27
32.810        40
32.820        33
32.830        40
32.840        40
32.850        40
32.860        33
32.870        40
32.880        27
32.890        53
32.900        27
32.910         7
32.920        33
32.930        40
32.940        13
32.950        33
32.960        47
32.970        13
32.980        33
32.990        40
33.000         7
33.010        13
33.020        53
33.030        27
33.040        40
33.050        67
33.060        27
33.070        27
33.080        60
33.090        27
33.100        20
33.110        33
33.120        27
33.130         0
33.140        27
33.150        33
33.160        27
33.170        40
33.180        20
33.190        20
33.200        33
33.210        20
33.220        20
33.230        20
33.240        27
33.250        20
33.260        13
33.270        40
33.280        20
33.290        47
33.300        40
33.310        47
33.320        33
33.330        40
33.340        47
33.350        40
33.360         7
33.370        33
33.380        33
33.390        47
33.400        27
33.410         0
33.420         7
33.430        33
33.440        47
33.450         7
33.460        27
33.470        40
33.480        73
33.490        33
33.500        13
33.510        13
33.520        33
33.530        53
33.540        20
33.550        13
33.560        33
33.570        47
33.580        40
33.590        27
33.600        27
33.610        53
33.620        47
33.630        13
33.640        60
33.650        33
33.660        27
33.670        40
33.680        33
33.690        13
33.700        40
33.710        40
33.720        40
33.730        20
33.740        40
33.750        53
33.760        33
33.770        20
33.780        33
33.790        27
33.800        27
33.810        33
33.820        33
33.830        33
33.840        47
33.850        60
33.860        47
33.870        27
33.880        33
33.890        20
33.900        13
33.910        40
33.920        20
33.930        33
33.940        20
33.950        27
33.960        53
33.970        33
33.980        40
33.990        20
34.000        27
34.010        33
34.020        47
34.030        47
34.040        27
34.050        47
34.060        47
34.070        20
34.080        33
34.090        47
34.100        33
34.110        27
34.120        27
34.130        53
34.140        20
34.150        20
34.160        33
34.170        47
34.180        33
34.190        20
34.200        27
34.210        53
34.220        40
34.230        33
34.240        53
34.250        27
34.260        20
34.270        47
34.280         0
34.290        40
34.300        20
34.310        40
34.320        20
34.330        33
34.340        20
34.350        27
34.360        27
34.370        27
34.380         7
34.390        60
34.400        47
34.410        33
34.420        40
34.430        13
34.440        33
34.450        27
34.460        40
34.470        47
34.480        20
34.490        27
34.500        47
34.510        27
34.520        13
34.530        40
34.540        40
34.550        33
34.560        20
34.570        27
34.580        33
34.590        40
34.600        47
34.610        13
34.620        47
34.630        53
34.640        47
34.650        33
34.660        40
34.670        20
34.680        40
34.690        27
34.700        13
34.710        47
34.720        33
34.730        40
34.740        33
34.750        27
34.760        33
34.770        13
34.780        27
34.790        40
34.800        47
34.810        40
34.820        20
34.830        33
34.840        27
34.850        47
34.860         7
34.870        33
34.880        27
34.890        47
34.900        47
34.910        40
34.920        53
34.930        33
34.940        60
34.950        67
34.960        27
34.970        53
34.980        73
34.990        87
35.000        53
35.010        80
35.020        33
35.030        47
35.040        80
35.050        87
35.060        80
35.070       153
35.080        93
35.090        87
35.100        67
35.110       127
35.120       100
35.130        60
35.140       113
35.150       100
35.160       100
35.170        53
35.180        93
35.190        80
35.200        87
35.210        87
35.220        27
35.230        33
35.240        73
35.250        53
35.260        47
35.270        87
35.280        73
35.290        53
35.300        67
35.310        87
35.320        27
35.330        53
35.340        80
35.350        33
35.360        47
35.370        53
35.380        60
35.390       107
35.400        33
35.410        27
35.420        93
35.430       107
35.440        67
35.450        53
35.460       107
35.470       127
35.480        80
35.490        87
35.500       107
35.510       133
35.520        33
35.530        87
35.540        67
35.550       140
35.560       100
35.570       147
35.580        93
35.590       133
35.600       127
35.610       133
35.620       120
35.630       127
35.640       133
35.650       147
35.660       153
35.670       107
35.680       160
35.690       120
35.700        93
35.710       107
35.720       100
35.730        67
35.740       127
35.750        80
35.760        87
35.770        80
35.780        87
35.790        53
35.800        93
35.810        20
35.820        67
35.830       120
35.840       120
35.850        27
35.860        73
35.870        53
35.880        27
35.890        73
35.900        60
35.910        73
35.920        67
35.930       113
35.940        73
35.950        33
35.960        47
35.970        67
35.980        40
35.990        93
36.000        27
36.010        80
36.020        47
36.030        67
36.040        40
36.050        60
36.060        40
36.070        47
36.080       120
36.090        40
36.100        80
36.110        33
36.120        40
36.130        47
36.140        53
36.150        67
36.160        53
36.170        27
36.180        33
36.190        60
36.200        67
36.210        27
36.220        20
36.230        80
36.240        53
36.250        53
36.260        47
36.270        27
36.280        40
36.290        27
36.300        40
36.310        60
36.320        53
36.330        27
36.340        27
36.350        67
36.360        53
36.370        47
36.380        27
36.390        80
36.400        33
36.410        40
36.420        60
36.430        20
36.440        40
36.450        80
36.460        33
36.470        60
36.480        20
36.490        53
36.500        27
36.510        53
36.520        47
36.530        20
36.540        40
36.550        40
36.560        40
36.570        33
36.580        40
36.590        53
36.600        53
36.610        53
36.620        67
36.630        73
36.640        47
36.650        53
36.660        87
36.670        60
36.680        13
36.690        40
36.700        33
36.710        53
36.720        20
36.730        47
36.740        67
36.750        53
36.760        20
36.770        47
36.780        40
36.790        47
36.800        67
36.810        67
36.820        40
36.830        53
36.840        27
36.850        67
36.860        60
36.870        80
36.880        67
36.890        27
36.900        27
36.910        60
36.920        73
36.930        67
36.940        60
36.950        60
36.960        40
36.970        53
36.980        40
36.990        40
37.000        53
37.010        13
37.020        40
37.030        27
37.040        53
37.050        73
37.060        20
37.070        73
37.080       100
37.090        33
37.100        33
37.110        60
37.120        33
37.130        13
37.140        53
37.150        27
37.160        80
37.170        47
37.180        47
37.190        13
37.200        47
37.210        13
37.220        47
37.230        47
37.240        60
37.250        67
37.260        27
37.270        33
37.280        73
37.290        20
37.300        73
37.310        20
37.320        60
37.330        80
37.340        60
37.350        20
37.360        40
37.370        73
37.380        47
37.390        27
37.400        93
37.410        60
37.420        60
37.430        53
37.440        80
37.450        40
37.460        53
37.470        60
37.480        73
37.490        53
37.500        27
37.510        47
37.520        60
37.530        60
37.540        33
37.550        27
37.560        40
37.570        53
37.580        67
37.590        73
37.600        87
37.610        67
37.620        80
37.630        73
37.640        93
37.650        60
37.660        73
37.670       113
37.680        87
37.690       100
37.700       153
37.710       133
37.720        93
37.730       127
37.740       133
37.750       200
37.760       173
37.770       153
37.780       127
37.790        87
37.800       133
37.810       107
37.820       113
37.830       133
37.840       107
37.850       113
37.860       167
37.870        80
37.880       107
37.890        67
37.900       127
37.910        67
37.920        73
37.930        87
37.940        87
37.950       127
37.960        87
37.970        87
37.980       133
37.990       120
38.000        47
38.010        93
38.020        93
38.030       153
38.040       107
38.050       153
38.060       120
38.070       113
38.080        73
38.090       140
38.100       180
38.110       100
38.120       180
38.130       147
38.140        93
38.150       187
38.160       127
38.170       213
38.180       187
38.190       120
38.200       213
38.210       193
38.220       107
38.230       207
38.240       180
38.250       180
38.260       200
38.270       160
38.280       307
38.290       173
38.300       187
38.310       240
38.320       207
38.330       193
38.340       200
38.350       233
38.360       233
38.370       247
38.380       193
38.390       240
38.400       213
38.410       240
38.420       260
38.430       293
38.440       233
38.450       247
38.460       233
38.470       280
38.480       273
38.490       353
38.500       287
38.510       280
38.520       287
38.530       340
38.540       193
38.550       280
38.560       313
38.570       393
38.580       333
38.590       273
38.600       367
38.610       280
38.620       413
38.630       333
38.640       307
38.650       387
38.660       293
38.670       407
38.680       367
38.690       360
38.700       446
38.710       347
38.720       400
38.730       393
38.740       400
38.750       333
38.760       413
38.770       446
38.780       440
38.790       606
38.800       433
38.810       413
38.820       506
38.830       433
38.840       440
38.850       520
38.860       566
38.870       600
38.880       553
38.890       566
38.900       500
38.910       713
38.920       666
38.930       620
38.940       666
38.950       653
38.960       740
38.970       880
38.980       846
38.990       966
39.000       813
39.010       886
39.020       806
39.030       826
39.040      1020
39.050      1013
39.060      1233
39.070      1146
39.080      1080
39.090      1313
39.100      1140
39.110      1539
39.120      1393
39.130      1439
39.140      1746
39.150      1706
39.160      1659
39.170      1839
39.180      1886
39.190      2092
39.200      2239
39.210      2586
39.220      2366
39.230      2559
39.240      2919
39.250      2925
39.260      3292
39.270      3412
39.280      3612
39.290      3805
39.300      4591
39.310      4498
39.320      5105
39.330      5464
39.340      5731
39.350      5631
39.360      6471
39.370      6777
39.380      7210
39.390      7764
39.400      7977
39.410      8597
39.420      9370
39.430      9889
39.440     10522
39.450     10616
39.460     11589
39.470     11969
39.480     13228
39.490     13395
39.500     13974
39.510     14008
39.520     14334
39.530     15560
39.540     15294
39.550     15387
39.560     15934
39.570     16573
39.580     15974
39.590     16327
39.600     16147
39.610     15800
39.620     16607
39.630     16207
39.640     15640
39.650     16194
39.660     15127
39.670     14961
39.680     14241
39.690     13888
39.700     13515
39.710     13641
39.720     13415
39.730     12662
39.740     11762
39.750     11542
39.760     11056
39.770     10516
39.780     10016
39.790      9909
39.800      9556
39.810      8730
39.820      8657
39.830      8310
39.840      7450
39.850      7884
39.860      6984
39.870      7024
39.880      7064
39.890      6171
39.900      5951
39.910      5978
39.920      5998
39.930      5125
39.940      5351
39.950      5011
39.960      4565
39.970      4585
39.980      4498
39.990      4038
40.000      4098
40.010      3765
40.020      3519
40.030      3645
40.040      3492
40.050      3505
40.060      3412
40.070      3305
40.080      3019
40.090      2666
40.100      2672
40.110      2879
40.120      2619
40.130      2506
40.140      2326
40.150      2346
40.160      2272
40.170      2159
40.180      1966
40.190      2066
40.200      1973
40.210      1879
40.220      1959
40.230      1893
40.240      1859
40.250      1673
40.260      1926
40.270      1446
40.280      1806
40.290      1613
40.300      1713
40.310      1439
40.320      1439
40.330      1533
40.340      1253
40.350      1513
40.360      1286
40.370      1399
40.380      1366
40.390      1180
40.400      1273
40.410      1173
40.420      1353
40.430      1120
40.440      1053
40.450      1160
40.460      1006
40.470      1000
40.480      1006
40.490      1026
40.500      1026
40.510       853
40.520       933
40.530       793
40.540       920
40.550      1013
40.560       766
40.570       873
40.580       886
40.590       826
40.600       600
40.610       720
40.620       700
40.630       700
40.640       760
40.650       586
40.660       706
40.670       726
40.680       640
40.690       653
40.700       600
40.710       646
40.720       653
40.730       653
40.740       600
40.750       493
40.760       593
40.770       486
40.780       566
40.790       546
40.800       586
40.810       453
40.820       400
40.830       546
40.840       493
40.850       600
40.860       573
40.870       526
40.880       480
40.890       420
40.900       446
40.910       486
40.920       440
40.930       413
40.940       486
40.950       327
40.960       426
40.970       473
40.980       400
40.990       380
41.000       413
41.010       387
41.020       453
41.030       407
41.040       353
41.050       347
41.060       380
41.070       393
41.080       407
41.090       287
41.100       347
41.110       453
41.120       393
41.130       327
41.140       347
41.150       340
41.160       373
41.170       253
41.180       313
41.190       347
41.200       287
41.210       307
41.220       213
41.230       253
41.240       267
41.250       333
41.260       233
41.270       233
41.280       260
41.290       293
41.300       287
41.310       267
41.320       313
41.330       193
41.340       313
41.350       247
41.360       293
41.370       187
41.380       280
41.390       300
41.400       307
41.410       193
41.420       233
41.430       180
41.440       253
41.450       173
41.460       200
41.470       213
41.480       233
41.490       267
41.500       160
41.510       247
41.520       247
41.530       207
41.540       280
41.550       260
41.560       213
41.570       253
41.580       333
41.590       313
41.600       333
41.610       273
41.620       380
41.630       353
41.640       347
41.650       327
41.660       293
41.670       287
41.680       233
41.690       187
41.700       253
41.710       320
41.720       207
41.730       260
41.740       227
41.750       253
41.760       280
41.770       193
41.780       227
41.790       160
41.800       200
41.810       160
41.820        93
41.830       240
41.840       173
41.850       180
41.860       153
41.870       180
41.880       133
41.890       100
41.900       200
41.910       100
41.920       127
41.930       173
41.940       167
41.950       187
41.960       180
41.970       167
41.980       133
41.990       120
42.000       153
42.010       133
42.020       140
42.030       120
42.040       180
42.050       173
42.060       147
42.070       140
42.080       133
42.090       113
42.100        73
42.110       100
42.120        87
42.130        93
42.140        93
42.150       100
42.160       133
42.170       153
42.180       107
42.190       153
42.200       160
42.210       120
42.220       133
42.230       100
42.240       107
42.250       147
42.260       160
42.270       133
42.280       127
42.290       140
42.300        93
42.310       127
42.320       173
42.330       140
42.340       107
42.350       120
42.360       160
42.370       100
42.380        87
42.390       107
42.400       120
42.410       167
42.420       113
42.430        93
42.440        73
42.450       153
42.460       133
42.470        80
42.480       107
42.490        93
42.500       127
42.510       100
42.520        73
42.530        93
42.540       120
42.550        60
42.560        87
42.570        73
42.580       140
42.590        80
42.600       100
42.610        93
42.620       127
42.630        93
42.640        80
42.650        87
42.660        80
42.670       140
42.680       107
42.690       120
42.700        87
42.710       127
42.720       133
42.730       147
42.740        80
42.750        93
42.760       100
42.770       140
42.780        93
42.790       100
42.800        67
42.810       100
42.820       107
42.830        87
42.840        60
42.850        47
42.860       107
42.870        87
42.880        47
42.890       127
42.900       127
42.910        53
42.920       107
42.930       113
42.940       107
42.950        87
42.960        73
42.970        93
42.980       100
42.990       120
43.000       100
43.010        87
43.020        67
43.030       113
43.040       113
43.050       120
43.060        87
43.070        67
43.080        93
43.090        60
43.100        87
43.110       107
43.120       100
43.130        67
43.140        87
43.150        87
43.160       113
43.170        67
43.180       113
43.190        73
43.200       107
43.210       113
43.220       120
43.230       173
43.240        80
43.250       167
43.260        80
43.270       127
43.280       140
43.290       187
43.300       120
43.310       180
43.320       167
43.330       213
43.340       160
43.350       147
43.360       133
43.370       100
43.380       133
43.390       107
43.400        93
43.410       127
43.420       113
43.430       140
43.440       133
43.450        87
43.460        73
43.470       127
43.480       153
43.490       107
43.500       113
43.510       140
43.520        93
43.530       113
43.540        87
43.550        80
43.560        60
43.570        80
43.580        87
43.590        87
43.600        93
43.610        40
43.620       100
43.630        67
43.640        80
43.650        47
43.660        87
43.670        53
43.680        67
43.690        67
43.700        87
43.710        73
43.720       133
43.730        47
43.740        73
43.750       113
43.760        67
43.770       100
43.780        73
43.790        40
43.800        80
43.810        80
43.820       127
43.830        20
43.840        93
43.850        73
43.860       113
43.870        87
43.880        67
43.890        60
43.900        80
43.910        73
43.920        80
43.930        47
43.940        73
43.950        87
43.960        87
43.970        93
43.980        60
43.990        67
44.000        67
44.010        73
44.020       127
44.030        80
44.040        67
44.050        67
44.060        60
44.070        67
44.080        67
44.090       100
44.100        67
44.110        80
44.120        40
44.130        73
44.140        93
44.150       107
44.160        93
44.170        60
44.180        67
44.190        53
44.200        13
44.210        33
44.220        47
44.230        53
44.240        53
44.250       107
44.260        33
44.270        67
44.280        33
44.290        80
44.300       100
44.310        60
44.320        40
44.330        73
44.340        80
44.350        80
44.360        73
44.370        73
44.380       120
44.390        80
44.400        53
44.410        53
44.420        80
44.430        53
44.440        53
44.450        80
44.460        33
44.470       153
44.480        60
44.490        73
44.500        40
44.510        87
44.520       107
44.530        60
44.540        47
44.550        80
44.560        60
44.570        40
44.580        73
44.590        67
44.600        87
44.610        80
44.620        20
44.630        73
44.640        47
44.650       107
44.660        80
44.670        53
44.680        47
44.690        60
44.700       100
44.710        47
44.720        73
44.730        80
44.740        67
44.750        73
44.760        47
44.770        53
44.780       120
44.790        53
44.800        53
44.810        53
44.820        53
44.830        27
44.840       100
44.850        80
44.860        80
44.870        80
44.880        60
44.890        47
44.900        27
44.910        87
44.920        60
44.930        73
44.940        80
44.950        67
44.960        53
44.970        60
44.980        67
44.990        53
45.000        53
45.010        67
45.020        87
45.030        73
45.040        80
45.050        87
45.060        93
45.070        40
45.080        73
45.090        73
45.100        80
45.110        80
45.120        73
45.130        73
45.140        80
45.150       107
45.160        80
45.170        73
45.180        60
45.190        60
45.200        80
45.210        47
45.220        53
45.230        60
45.240        73
45.250        47
45.260        40
45.270       100
45.280        27
45.290        87
45.300       107
45.310        33
45.320        73
45.330        73
45.340        47
45.350        53
45.360        60
45.370        73
45.380        67
45.390        33
45.400        53
45.410        60
45.420        40
45.430        40
45.440        40
45.450        67
45.460        53
45.470        60
45.480        60
45.490        40
45.500        47
45.510        40
45.520        60
45.530        67
45.540        60
45.550        87
45.560        60
45.570        67
45.580        53
45.590        40
45.600        40
45.610       107
45.620        53
45.630        53
45.640        53
45.650        53
45.660        73
45.670        27
45.680        53
45.690        60
45.700        47
45.710        33
45.720        87
45.730        93
45.740        13
45.750        73
45.760        60
45.770        53
45.780        80
45.790        47
45.800        60
45.810        67
45.820        47
45.830        27
45.840        40
45.850        73
45.860        80
45.870        60
45.880        80
45.890        67
45.900        67
45.910        73
45.920        53
45.930        53
45.940        60
45.950        40
45.960         0
45.970        53
45.980        53
45.990        80
46.000        40
46.010        40
46.020        60
46.030        67
46.040        40
46.050        67
46.060        47
46.070        73
46.080        53
46.090        47
46.100        40
46.110        80
46.120       107
46.130        80
46.140        67
46.150        80
46.160        87
46.170        60
46.180        33
46.190       107
46.200        93
46.210        33
46.220        40
46.230        20
46.240        33
46.250        40
46.260        40
46.270        47
46.280        60
46.290        87
46.300        53
46.310       100
46.320        60
46.330        53
46.340        67
46.350        67
46.360        40
46.370        40
46.380        67
46.390        93
46.400        27
46.410        20
46.420        60
46.430        60
46.440        53
46.450        60
46.460        53
46.470        40
46.480        93
46.490        47
46.500        53
46.510        60
46.520        73
46.530        33
46.540        33
46.550        60
46.560        73
46.570        53
46.580        53
46.590        33
46.600        67
46.610        13
46.620        60
46.630        27
46.640        33
46.650        67
46.660        47
46.670        60
46.680        40
46.690        40
46.700        53
46.710        27
46.720        53
46.730        40
46.740        73
46.750        47
46.760        73
46.770        60
46.780        33
46.790        67
46.800        27
46.810        53
46.820        47
46.830        20
46.840        47
46.850        93
46.860        60
46.870        60
46.880        47
46.890        60
46.900        33
46.910        67
46.920        13
46.930        33
46.940        67
46.950        60
46.960        80
46.970        67
46.980        80
46.990        67
47.000        53
47.010        33
47.020        20
47.030        33
47.040        27
47.050        40
47.060        53
47.070        27
47.080        47
47.090        33
47.100        27
47.110        60
47.120        60
47.130        33
47.140        53
47.150        40
47.160        87
47.170        47
47.180        73
47.190        47
47.200        47
47.210        33
47.220        33
47.230        80
47.240        47
47.250        73
47.260        47
47.270        60
47.280        33
47.290        53
47.300        47
47.310        27
47.320        53
47.330        47
47.340        27
47.350        47
47.360        40
47.370        60
47.380        60
47.390        20
47.400        33
47.410        60
47.420        60
47.430        33
47.440        33
47.450         7
47.460        33
47.470        67
47.480        33
47.490        27
47.500        20
47.510        33
47.520        33
47.530        47
47.540        40
47.550        33
47.560        60
47.570        53
47.580        33
47.590        47
47.600        47
47.610        47
47.620        60
47.630        40
47.640        53
47.650        27
47.660        33
47.670        27
47.680        27
47.690        33
47.700        53
47.710        53
47.720        67
47.730        80
47.740        53
47.750        60
47.760        20
47.770        27
47.780        47
47.790        40
47.800        40
47.810        27
47.820        53
47.830        53
47.840        33
47.850        33
47.860        27
47.870        67
47.880        80
47.890        40
47.900        53
47.910        47
47.920        47
47.930        60
47.940        60
47.950        40
47.960        53
47.970        53
47.980        13
47.990        27
48.000        73
48.010        47
48.020        40
48.030        53
48.040        40
48.050        33
48.060        67
48.070        47
48.080        27
48.090        40
48.100        53
48.110        33
48.120        40
48.130        53
48.140        53
48.150        27
48.160        27
48.170        47
48.180        13
48.190        27
48.200        67
48.210        40
48.220        27
48.230        33
48.240         7
48.250        47
48.260        47
48.270        40
48.280        53
48.290        33
48.300        60
48.310        33
48.320        20
48.330         0
48.340        73
48.350        27
48.360        53
48.370        47
48.380        53
48.390        40
48.400        33
48.410        20
48.420        53
48.430        53
48.440        33
48.450        33
48.460        53
48.470        27
48.480        47
48.490        33
48.500        33
48.510        60
48.520        40
48.530        27
48.540        47
48.550        47
48.560        33
48.570        53
48.580        27
48.590        33
48.600        40
48.610        47
48.620        40
48.630        13
48.640        20
48.650        67
48.660        47
48.670        20
48.680        13
48.690        27
48.700        27
48.710        40
48.720        13
48.730        20
48.740        27
48.750        20
48.760        33
48.770        33
48.780        20
48.790        47
48.800        13
48.810        20
48.820        47
48.830        33
48.840        53
48.850        27
48.860        33
48.870        33
48.880        27
48.890        27
48.900        20
48.910        73
48.920        33
48.930        33
48.940        53
48.950        20
48.960        20
48.970        33
48.980        20
48.990         7
49.000        40
49.010        33
49.020        47
49.030        20
49.040        60
49.050        13
49.060        40
49.070        27
49.080        47
49.090        67
49.100        33
49.110         7
49.120        20
49.130        33
49.140        13
49.150         7
49.160        20
49.170        33
49.180        47
49.190        27
49.200         7
49.210        60
49.220        33
49.230        47
49.240        33
49.250        33
49.260        33
49.270        13
49.280        27
49.290        20
49.300        60
49.310        67
49.320        27
49.330        33
49.340        47
49.350         7
49.360        40
49.370        20
49.380        40
49.390        27
49.400        27
49.410        13
49.420        33
49.430        33
49.440        40
49.450        33
49.460        20
49.470        27
49.480        67
49.490        20
49.500        27
49.510        47
49.520        33
49.530        33
49.540        13
49.550        47
49.560        40
49.570        27
49.580        53
49.590        27
49.600        40
49.610        53
49.620        40
49.630        13
49.640        20
49.650        27
49.660        20
49.670        20
49.680        53
49.690        33
49.700        40
49.710        27
49.720        20
49.730        33
49.740         7
49.750        73
49.760        13
49.770        27
49.780        33
49.790        27
49.800        20
49.810        33
49.820        47
49.830        27
49.840        20
49.850        40
49.860        53
49.870        13
49.880        53
49.890        60
49.900        53
49.910        47
49.920        33
49.930        47
49.940        20
49.950        33
49.960        40
49.970        33
49.980        40
49.990        47
50.000        20
50.010        13
50.020        13
50.030        20
50.040        47
50.050        13
50.060        33
50.070        40
50.080        27
50.090        27
50.100        47
50.110        33
50.120        27
50.130        27
50.140        20
50.150        33
50.160        40
50.170        40
50.180         7
50.190        40
50.200        13
50.210        47
50.220        47
50.230        20
50.240         7
50.250        40
50.260        53
50.270        13
50.280        40
50.290        20
50.300        27
50.310        20
50.320         7
50.330        53
50.340        13
50.350        33
50.360        47
50.370        20
50.380        33
50.390        47
50.400        47
50.410        33
50.420        53
50.430        33
50.440        40
50.450         7
50.460        13
50.470        20
50.480        27
50.490        47
50.500        13
50.510        13
50.520        27
50.530        20
50.540        60
50.550        40
50.560        47
50.570        20
50.580        40
50.590        40
50.600        33
50.610         7
50.620        13
50.630        20
50.640        20
50.650        13
50.660        13
50.670        60
50.680        60
50.690        27
50.700         7
50.710        40
50.720        20
50.730        33
50.740        40
50.750        27
50.760        13
50.770        47
50.780        27
50.790        40
50.800        27
50.810        40
50.820        27
50.830        13
50.840        20
50.850        27
50.860        47
50.870        13
50.880        20
50.890        13
50.900         7
50.910        40
50.920        53
50.930        27
50.940        13
50.950        20
50.960        20
50.970        27
50.980        20
50.990        33
51.000        20
51.010        33
51.020        27
51.030        53
51.040        20
51.050        13
51.060        40
51.070        33
51.080        13
51.090        47
51.100        27
51.110        20
51.120        20
51.130        33
51.140        13
51.150        27
51.160        27
51.170        33
51.180        53
51.190        53
51.200        27
51.210        27
51.220        20
51.230        13
51.240        33
51.250        33
51.260        20
51.270        13
51.280        53
51.290        13
51.300        13
51.310        33
51.320        20
51.330        33
51.340        27
51.350        33
51.360        40
51.370        47
51.380         7
51.390        20
51.400        40
51.410        20
51.420        33
51.430        27
51.440        33
51.450        47
51.460        27
51.470        13
51.480        27
51.490        20
51.500        13
51.510        20
51.520        13
51.530        33
51.540        27
51.550        20
51.560        53
51.570        33
51.580        33
51.590        27
51.600        33
51.610         7
51.620         7
51.630        27
51.640        20
51.650        47
51.660        13
51.670        20
51.680         7
51.690         0
51.700        20
51.710        27
51.720        33
51.730        20
51.740        33
51.750        20
51.760        20
51.770        33
51.780        27
51.790         7
51.800        20
51.810        27
51.820        20
51.830        40
51.840        53
51.850        20
51.860        27
51.870        27
51.880        20
51.890        20
51.900         7
51.910        20
51.920        20
51.930        27
51.940        40
51.950        33
51.960        20
51.970        33
51.980        20
51.990        13
52.000        20
52.010        13
52.020        40
52.030        60
52.040        33
52.050        20
52.060        33
52.070        40
52.080        20
52.090        33
52.100        13
52.110         7
52.120        27
52.130        20
52.140        33
52.150        20
52.160        20
52.170        47
52.180        13
52.190        20
52.200        27
52.210        20
52.220        33
52.230        33
52.240        20
52.250        20
52.260        40
52.270        33
52.280        20
52.290        27
52.300        27
52.310         7
52.320        33
52.330        20
52.340        27
52.350        47
52.360         7
52.370        27
52.380        13
52.390        13
52.400        47
52.410        80
52.420       100
52.430       133
52.440       153
52.450       207
52.460       133
52.470       133
52.480        93
52.490       100
52.500        33
52.510        47
52.520        47
52.530        33
52.540        53
52.550        20
52.560        40
52.570        73
52.580        73
52.590        60
52.600       107
52.610        67
52.620        73
52.630        47
52.640        40
52.650        47
52.660        20
52.670        13
52.680        20
52.690        20
52.700        53
52.710        20
52.720         0
52.730        20
52.740         7
52.750        40
52.760        27
52.770        33
52.780        13
52.790        20
52.800        33
52.810        20
52.820        13
52.830        13
52.840        20
52.850        20
52.860        27
52.870        20
52.880        13
52.890        27
52.900        47
52.910        13
52.920         7
52.930         7
52.940        40
52.950        20
52.960        13
52.970         7
52.980        33
52.990        40
53.000        20
53.010        13
53.020        20
53.030        33
53.040        27
53.050        27
53.060        33
53.070        33
53.080        13
53.090        33
53.100         0
53.110        13
53.120        27
53.130         7
53.140        27
53.150        20
53.160        33
53.170        27
53.180        13
53.190        20
53.200        20
53.210        13
53.220        27
53.230        20
53.240        53
53.250        40
53.260        40
53.270         7
53.280        20
53.290        20
53.300        47
53.310        20
53.320        40
53.330        27
53.340        27
53.350        13
53.360        20
53.370        13
53.380        33
53.390         7
53.400        27
53.410        20
53.420        13
53.430         0
53.440        13
53.450         0
53.460        20
53.470        33
53.480        33
53.490         7
53.500        27
53.510        73
53.520         7
53.530        20
53.540         7
53.550         7
53.560        20
53.570        20
53.580        20
53.590        13
53.600        20
53.610        20
53.620         7
53.630        20
53.640        20
53.650        40
53.660        40
53.670         7
53.680        40
53.690        13
53.700         7
53.710        40
53.720        53
53.730         7
53.740        13
53.750        13
53.760        20
53.770        13
53.780        27
53.790        20
53.800        20
53.810        20
53.820        13
53.830        20
53.840        27
53.850        33
53.860        27
53.870        27
53.880         7
53.890         7
53.900        40
53.910        27
53.920         0
53.930        40
53.940        20
53.950        40
53.960        33
53.970        27
53.980        20
53.990        40
54.000        33
54.010        20
54.020        20
54.030        40
54.040         7
54.050        20
54.060         7
54.070        20
54.080        13
54.090        20
54.100        33
54.110        20
54.120         0
54.130        40
54.140        33
54.150        20
54.160        13
54.170         7
54.180        13
54.190        13
54.200        27
54.210         7
54.220         7
54.230         7
54.240        27
54.250        13
54.260         7
54.270        27
54.280        33
54.290         7
54.300        13
54.310         0
54.320         7
54.330         7
54.340        27
54.350        13
54.360        13
54.370        20
54.380        13
54.390        13
54.400        13
54.410        20
54.420        20
54.430        27
54.440        13
54.450        27
54.460        27
54.470        13
54.480         7
54.490        20
54.500        20
54.510        40
54.520         7
54.530        20
54.540        13
54.550        20
54.560        13
54.570        40
54.580        13
54.590         0
54.600        27
54.610        13
54.620        27
54.630         7
54.640        13
54.650         7
54.660        13
54.670        20
54.680         7
54.690        27
54.700        47
54.710        13
54.720        20
54.730         0
54.740        53
54.750         7
54.760         7
54.770         7
54.780         7
54.790        13
54.800        13
54.810        20
54.820        20
54.830        27
54.840        47
54.850         7
54.860        13
54.870        33
54.880        33
54.890         7
54.900         7
54.910        13
54.920        13
54.930        13
54.940        13
54.950        27
54.960        13
54.970         7
54.980        13
54.990        13
55.000        33
55.010        20
55.020        40
55.030        27
55.040        20
55.050        20
55.060        20
55.070         7
55.080        27
55.090        20
55.100        13
55.110        27
55.120        13
55.130         7
55.140        20
55.150        40
55.160        27
55.170         7
55.180        47
55.190        13
55.200        33
55.210        20
55.220        13
55.230        13
55.240        33
55.250         7
55.260         7
55.270        20
55.280         7
55.290        13
55.300         7
55.310        40
55.320        27
55.330        27
55.340        33
55.350        33
55.360        20
55.370         0
55.380        33
55.390         7
55.400         7
55.410         7
55.420        33
55.430        20
55.440        13
55.450        13
55.460        13
55.470         7
55.480        20
55.490        13
55.500        20
55.510        40
55.520         0
55.530        27
55.540        33
55.550        53
55.560        40
55.570        27
55.580        13
55.590         7
55.600        13
55.610        13
55.620        13
55.630        20
55.640        20
55.650        13
55.660        13
55.670         7
55.680        20
55.690        20
55.700         7
55.710        20
55.720         7
55.730        20
55.740         7
55.750         7
55.760        27
55.770        13
55.780        27
55.790        13
55.800        13
55.810        20
55.820         7
55.830        27
55.840        27
55.850         7
55.860        13
55.870         7
55.880        20
55.890        20
55.900        20
55.910         7
55.920        40
55.930         7
55.940         7
55.950        33
55.960         7
55.970        13
55.980        13
55.990         7
56.000        27
56.010         0
56.020        20
56.030         7
56.040        27
56.050         0
56.060         0
56.070         0
56.080        20
56.090         7
56.100         0
56.110        13
56.120        33
56.130        13
56.140        13
56.150        13
56.160         0
56.170        20
56.180        33
56.190        13
56.200         7
56.210        13
56.220        20
56.230        13
56.240         0
56.250        20
56.260        20
56.270        13
56.280        20
56.290         7
56.300        20
56.310        13
56.320        13
56.330        13
56.340        27
56.350         7
56.360        27
56.370        20
56.380        13
56.390        13
56.400        13
56.410        27
56.420        13
56.430        27
56.440        53
56.450         7
56.460        27
56.470        33
56.480         0
56.490         7
56.500        27
56.510        13
56.520         7
56.530         7
56.540         7
56.550        27
56.560        20
56.570        20
56.580        13
56.590        27
56.600        27
56.610        20
56.620        13
56.630        33
56.640        13
56.650         7
56.660        13
56.670        20
56.680        13
56.690        27
56.700        13
56.710        20
56.720         7
56.730         7
56.740         7
56.750         0
56.760        13
56.770         7
56.780         0
56.790        33
56.800        20
56.810        33
56.820        13
56.830        13
56.840         7
56.850        20
56.860        13
56.870        13
56.880        27
56.890        13
56.900         7
56.910         0
56.920        27
56.930         7
56.940        20
56.950         7
56.960        20
56.970        13
56.980        20
56.990        33
57.000         7
57.010        20
57.020        27
57.030         7
57.040        33
57.050        20
57.060         7
57.070        13
57.080         7
57.090        13
57.100         7
57.110        33
57.120         7
57.130        13
57.140         0
57.150        13
57.160        13
57.170        27
57.180         7
57.190        27
57.200         7
57.210        33
57.220        13
57.230        13
57.240        27
57.250        33
57.260        33
57.270         7
57.280        33
57.290        40
57.300        33
57.310        13
57.320        20
57.330        20
57.340        33
57.350         0
57.360        13
57.370        40
57.380        33
57.390        40
57.400        33
57.410        33
57.420        53
57.430        93
57.440        87
57.450        80
57.460       167
57.470       167
57.480       153
57.490       180
57.500       193
57.510       187
57.520       240
57.530       213
57.540       227
57.550       260
57.560       133
57.570       107
57.580       120
57.590        93
57.600       100
57.610       200
57.620       100
57.630        60
57.640        87
57.650       107
57.660       140
57.670        87
57.680       100
57.690       133
57.700       107
57.710       120
57.720        67
57.730        87
57.740        27
57.750        47
57.760        27
57.770         7
57.780         7
57.790         7
57.800        27
57.810        13
57.820         0
57.830         7
57.840        20
57.850        20
57.860        27
57.870         7
57.880        27
57.890        13
57.900        13
57.910        13
57.920        20
57.930         0
57.940        27
57.950        33
57.960        47
57.970        20
57.980         0
57.990        13
58.000        13
58.010         7
58.020        20
58.030         7
58.040        13
58.050         0
58.060        13
58.070        33
58.080        13
58.090        13
58.100        33
58.110        27
58.120        20
58.130        20
58.140        20
58.150         7
58.160         7
58.170         7
58.180        13
58.190        27
58.200        13
58.210        13
58.220        13
58.230        20
58.240        13
58.250         7
58.260         7
58.270        20
58.280        13
58.290         0
58.300        13
58.310         0
58.320        13
58.330        20
58.340         7
58.350         7
58.360         7
58.370         7
58.380         7
58.390         0
58.400        13
58.410        20
58.420         0
58.430        13
58.440        13
58.450        40
58.460        13
58.470         0
58.480        13
58.490         7
58.500        13
58.510        13
58.520         7
58.530        27
58.540        20
58.550         7
58.560         7
58.570         0
58.580         7
58.590         0
58.600         7
58.610         7
58.620        13
58.630        13
58.640         0
58.650        13
58.660        13
58.670        13
58.680         0
58.690        40
58.700         7
58.710        20
58.720        27
58.730         0
58.740         0
58.750         7
58.760         7
58.770         0
58.780        13
58.790         0
58.800         7
58.810         0
58.820         7
58.830         7
58.840         7
58.850         7
58.860         7
58.870        13
58.880        13
58.890         7
58.900        13
58.910         7
58.920         7
58.930         7
58.940        20
58.950         7
58.960        27
58.970         7
58.980         7
58.990        13
59.000         7
59.010        13
59.020        13
59.030         7
59.040        20
59.050        27
59.060        13
59.070        20
59.080        13
59.090         7
59.100         0
59.110        20
59.120         7
59.130        13
59.140         7
59.150        27
59.160         7
59.170         7
59.180         7
59.190         0
59.200        13
59.210        13
59.220         7
59.230        20
59.240        20
59.250         7
59.260         7
59.270        20
59.280         7
59.290        27
59.300        20
59.310         7
59.320        13
59.330        20
59.340         7
59.350        20
59.360         7
59.370         7
59.380        27
59.390        20
59.400         0
59.410        33
59.420         0
59.430        13
59.440         7
59.450        20
59.460        20
59.470        27
59.480        13
59.490        20
59.500        33
59.510         7
59.520        20
59.530        20
59.540        33
59.550        27
59.560         7
59.570         7
59.580        20
59.590         7
59.600        13
59.610         7
59.620        13
59.630        27
59.640        20
59.650        27
59.660        20
59.670        33
59.680         0
59.690        20
59.700        20
59.710        13
59.720        33
59.730        20
59.740        40
59.750        13
59.760        13
59.770        47
59.780        13
59.790        13
59.800        20
59.810        13
59.820        13
59.830        13
59.840         0
59.850         0
59.860         0
59.870         0
59.880        13
59.890        20
59.900        20
59.910         7
59.920        13
59.930        13
59.940        13
59.950        20
59.960        13
59.970        33
59.980         0
59.990         0
60.000         0
