20.000        53
20.020        53
20.040        63
20.060        93
20.080        83
20.100        63
20.120        73
20.140        67
20.160        80
20.180        57
20.200        57
20.220        80
20.240        67
20.260        93
20.280       107
20.300       100
20.320        67
20.340        73
20.360        57
20.380        77
20.400        70
20.420        80
20.440       100
20.460        87
20.480        83
20.500        73
20.520        70
20.540        90
20.560        80
20.580        87
20.600        87
20.620        77
20.640        90
20.660        97
20.680        63
20.700       110
20.720        67
20.740        93
20.760        87
20.780        77
20.800        60
20.820        90
20.840        73
20.860        77
20.880       100
20.900        73
20.920       120
20.940       103
20.960        83
20.980        53
21.000        67
21.020        83
21.040        97
21.060        87
21.080        63
21.100        67
21.120       110
21.140        70
21.160        73
21.180        80
21.200        83
21.220        80
21.240        73
21.260       100
21.280        73
21.300       107
21.320        77
21.340       110
21.360        63
21.380        83
21.400        80
21.420        73
21.440        60
21.460        63
21.480        60
21.500        73
21.520       110
21.540        97
21.560        53
21.580        97
21.600        87
21.620        67
21.640        70
21.660        93
21.680        83
21.700        90
21.720        93
21.740        77
21.760        67
21.780        63
21.800        70
21.820        97
21.840        97
21.860        63
21.880        60
21.900        70
21.920       123
21.940        60
21.960        63
21.980        83
22.000        47
22.020        83
22.040        40
22.060        87
22.080        87
22.100       107
22.120        37
22.140        73
22.160        90
22.180        63
22.200        73
22.220        90
22.240        83
22.260        83
22.280        90
22.300        90
22.320        80
22.340       100
22.360        73
22.380        90
22.400        43
22.420        70
22.440       100
22.460        80
22.480        67
22.500        93
22.520       103
22.540       113
22.560       103
22.580        70
22.600        90
22.620        77
22.640        93
22.660        93
22.680        63
22.700        67
22.720        77
22.740        83
22.760       103
22.780       143
22.800       100
22.820       127
22.840       137
22.860       120
22.880       153
22.900       153
22.920       113
22.940       150
22.960       160
22.980       110
23.000       110
23.020        83
23.040       100
23.060        63
23.080       100
23.100        83
23.120        57
23.140        97
23.160        80
23.180        60
23.200        80
23.220        67
23.240        80
23.260        93
23.280       100
23.300        77
23.320        63
23.340        80
23.360        97
23.380        93
23.400       100
23.420        73
23.440        77
23.460        93
23.480        57
23.500        87
23.520        73
23.540        93
23.560        87
23.580        83
23.600        77
23.620        77
23.640        77
23.660        87
23.680        47
23.700        83
23.720        60
23.740        67
23.760       107
23.780        97
23.800        90
23.820        67
23.840        57
23.860        87
23.880        67
23.900        57
23.920       100
23.940        87
23.960        83
23.980        87
24.000        77
24.020        80
24.040        87
24.060        47
24.080        53
24.100        83
24.120        67
24.140        93
24.160        67
24.180        50
24.200        73
24.220        70
24.240        53
24.260        40
24.280        93
24.300        80
24.320        90
24.340        77
24.360        57
24.380        73
24.400        77
24.420        83
24.440        73
24.460        67
24.480        80
24.500       120
24.520        80
24.540        53
24.560        83
24.580        67
24.600        67
24.620        83
24.640        83
24.660        70
24.680        83
24.700        80
24.720        73
24.740        93
24.760        57
24.780        70
24.800        97
24.820        37
24.840        90
24.860        83
24.880        63
24.900        63
24.920        80
24.940        77
24.960        63
24.980        93
25.000        87
25.020        93
25.040        63
25.060        60
25.080        70
25.100        73
25.120        73
25.140        63
25.160        67
25.180        97
25.200        97
25.220        73
25.240        83
25.260        70
25.280        80
25.300        87
25.320        60
25.340        83
25.360        77
25.380        73
25.400       103
25.420        60
25.440        73
25.460        50
25.480        70
25.500        73
25.520        87
25.540        67
25.560        63
25.580        43
25.600        77
25.620        87
25.640        60
25.660        87
25.680        60
25.700        73
25.720        60
25.740        53
25.760        93
25.780        87
25.800        67
25.820        67
25.840        50
25.860        83
25.880        47
25.900        87
25.920        67
25.940        43
25.960        90
25.980        50
26.000        77
26.020        57
26.040        73
26.060        63
26.080        63
26.100        90
26.120        80
26.140        60
26.160        97
26.180        83
26.200        83
26.220        67
26.240        60
26.260        80
26.280        50
26.300        73
26.320       103
26.340        57
26.360        50
26.380        57
26.400        53
26.420        87
26.440        67
26.460        83
26.480        57
26.500        60
26.520        83
26.540        73
26.560        70
26.580        63
26.600        73
26.620        60
26.640        47
26.660        70
26.680        67
26.700        47
26.720        90
26.740        67
26.760        47
26.780        93
26.800        27
26.820        57
26.840        53
26.860        60
26.880        87
26.900        57
26.920        67
26.940        53
26.960        80
26.980        40
27.000        70
27.020        70
27.040       107
27.060        90
27.080        90
27.100        57
27.120        83
27.140        47
27.160        83
27.180        63
27.200        63
27.220        47
27.240        60
27.260        80
27.280        60
27.300        67
27.320        73
27.340        70
27.360        87
27.380        53
27.400        70
27.420        37
27.440        60
27.460        83
27.480        83
27.500        57
27.520        80
27.540        83
27.560        57
27.580        60
27.600        80
27.620       103
27.640        63
27.660        47
27.680        47
27.700        43
27.720        43
27.740        67
27.760        53
27.780        57
27.800        37
27.820        57
27.840        73
27.860        73
27.880        90
27.900        80
27.920        83
27.940        63
27.960        70
27.980        70
28.000        87
28.020        67
28.040        83
28.060        70
28.080        73
28.100        67
28.120        73
28.140        50
28.160        57
28.180        87
28.200        70
28.220        47
28.240        57
28.260        57
28.280       107
28.300        73
28.320        57
28.340       107
28.360        50
28.380        60
28.400        70
28.420        87
28.440        83
28.460        57
28.480        70
28.500        70
28.520        43
28.540        43
28.560        70
28.580        83
28.600        70
28.620        87
28.640        60
28.660        73
28.680        60
28.700        53
28.720        63
28.740        70
28.760        83
28.780        77
28.800        47
28.820        33
28.840        73
28.860        93
28.880        63
28.900        57
28.920        57
28.940        87
28.960        60
28.980        80
29.000        80
29.020        37
29.040        40
29.060        60
29.080        73
29.100        63
29.120        60
29.140        83
29.160        83
29.180        90
29.200        83
29.220        77
29.240        93
29.260        63
29.280        70
29.300       100
29.320        83
29.340        97
29.360        80
29.380        73
29.400       103
29.420        60
29.440        87
29.460        43
29.480        67
29.500        47
29.520        63
29.540        80
29.560        70
29.580        57
29.600        60
29.620        83
29.640        70
29.660        47
29.680        60
29.700        77
29.720        63
29.740        93
29.760        93
29.780        73
29.800        53
29.820        70
29.840        47
29.860        73
29.880        90
29.900        57
29.920        63
29.940        60
29.960        50
29.980        70
30.000       100
30.020        43
30.040        73
30.060        63
30.080        70
30.100        60
30.120        67
30.140        50
30.160        73
30.180        53
30.200        67
30.220        37
30.240        97
30.260        83
30.280        73
30.300        57
30.320       103
30.340        63
30.360        77
30.380        57
30.400        63
30.420        90
30.440        80
30.460        57
30.480        67
30.500        87
30.520        73
30.540        77
30.560        63
30.580        97
30.600        67
30.620        60
30.640        70
30.660        57
30.680        67
30.700        80
30.720        53
30.740        83
30.760        57
30.780        83
30.800        50
30.820        37
30.840        60
30.860        80
30.880        73
30.900        80
30.920        83
30.940        80
30.960        47
30.980        60
31.000        67
31.020        53
31.040        67
31.060        87
31.080        87
31.100        80
31.120        70
31.140        77
31.160        90
31.180        57
31.200        53
31.220        97
31.240        63
31.260        47
31.280        77
31.300        63
31.320        80
31.340       103
31.360        80
31.380        63
31.400        90
31.420        70
31.440        60
31.460        77
31.480        97
31.500        70
31.520        63
31.540        33
31.560        73
31.580       100
31.600        97
31.620        87
31.640        80
31.660        60
31.680        77
31.700        90
31.720        97
31.740        73
31.760        87
31.780        80
31.800        80
31.820        90
31.840        83
31.860        80
31.880        83
31.900        87
31.920        80
31.940        73
31.960       107
31.980        63
32.000        70
32.020        77
32.040        83
32.060        77
32.080        57
32.100        67
32.120        90
32.140        83
32.160       110
32.180        90
32.200       123
32.220       140
32.240       127
32.260       197
32.280       200
32.300       170
32.320       280
32.340       273
32.360       327
32.380       407
32.400       470
32.420       600
32.440       760
32.460       876
32.480      1366
32.500      1833
32.520      2296
32.540      2492
32.560      2459
32.580      2226
32.600      1549
32.620      1356
32.640      1190
32.660       860
32.680       476
32.700       220
32.720       170
32.740       100
32.760       157
32.780       117
32.800       110
32.820        97
32.840       113
32.860        80
32.880        77
32.900        70
32.920        83
32.940        63
32.960        93
32.980       113
33.000       107
33.020        50
33.040        93
33.060       100
33.080        97
33.100        70
33.120        60
33.140        87
33.160        70
33.180        90
33.200        93
33.220        93
33.240        43
33.260        80
33.280        60
33.300        77
33.320        80
33.340       103
33.360        50
33.380        80
33.400        67
33.420        40
33.440        83
33.460        47
33.480        70
33.500        77
33.520        77
33.540        90
33.560        53
33.580        73
33.600        80
33.620        80
33.640        70
33.660        83
33.680        67
33.700        60
33.720        67
33.740        57
33.760        80
33.780        90
33.800        67
33.820        77
33.840        97
33.860        53
33.880       113
33.900        47
33.920        77
33.940        93
33.960        93
33.980        90
34.000        77
34.020        77
34.040        77
34.060        60
34.080        63
34.100        83
34.120        83
34.140        60
34.160       107
34.180        57
34.200        63
34.220        73
34.240        83
34.260        77
34.280        50
34.300        60
34.320        53
34.340        43
34.360        70
34.380        73
34.400        83
34.420        67
34.440        60
34.460        63
34.480        63
34.500        73
34.520        67
34.540        70
34.560        70
34.580        73
34.600        50
34.620        43
34.640        67
34.660        63
34.680        67
34.700        67
34.720        97
34.740        77
34.760        63
34.780        60
34.800        83
34.820        63
34.840        63
34.860        80
34.880        60
34.900        63
34.920        87
34.940        47
34.960        70
34.980        70
35.000        70
35.020        77
35.040        73
35.060        87
35.080        67
35.100       120
35.120        57
35.140        70
35.160        80
35.180        57
35.200        90
35.220        67
35.240        70
35.260        40
35.280        80
35.300        70
35.320        67
35.340        47
35.360        73
35.380        60
35.400        30
35.420        63
35.440        67
35.460        60
35.480        67
35.500        53
35.520        57
35.540        73
35.560        50
35.580        50
35.600        57
35.620        47
35.640        43
35.660        83
35.680        63
35.700        80
35.720        63
35.740        77
35.760        53
35.780        97
35.800        63
35.820        63
35.840        70
35.860        80
35.880        40
35.900        53
35.920        70
35.940        70
35.960        73
35.980        73
36.000       100
36.020       100
36.040        87
36.060       123
36.080        73
36.100       107
36.120        93
36.140        77
36.160        80
36.180        70
36.200        73
36.220        67
36.240        83
36.260        60
36.280        70
36.300        80
36.320        87
36.340        80
36.360        70
36.380        60
36.400        53
36.420        47
36.440        67
36.460        63
36.480        73
36.500        77
36.520        63
36.540        70
36.560        80
36.580        77
36.600        53
36.620        53
36.640        70
36.660        57
36.680        57
36.700        53
36.720        67
36.740        53
36.760        53
36.780        63
36.800        63
36.820        67
36.840        73
36.860        80
36.880        77
36.900        50
36.920        73
36.940        90
36.960        60
36.980        67
37.000        73
37.020        60
37.040        70
37.060        80
37.080        73
37.100        73
37.120        77
37.140        87
37.160        43
37.180        97
37.200        50
37.220        97
37.240        87
37.260        70
37.280        57
37.300        57
37.320        90
37.340        90
37.360        43
37.380        47
37.400        50
37.420        77
37.440        63
37.460        67
37.480        83
37.500        60
37.520        83
37.540        67
37.560        57
37.580        53
37.600        87
37.620        53
37.640        37
37.660        73
37.680        50
37.700        83
37.720        63
37.740        43
37.760        53
37.780        57
37.800        53
37.820        67
37.840        63
37.860        43
37.880        63
37.900        63
37.920        67
37.940        77
37.960        50
37.980        47
38.000        33
38.020        53
38.040        70
38.060        83
38.080        77
38.100        53
38.120        57
38.140        70
38.160        70
38.180        47
38.200        57
38.220        53
38.240        53
38.260        80
38.280        67
38.300        57
38.320        77
38.340        33
38.360        60
38.380        80
38.400        63
38.420        43
38.440        67
38.460        87
38.480        43
38.500        60
38.520        83
38.540        73
38.560        43
38.580        73
38.600        83
38.620        63
38.640        57
38.660        70
38.680        53
38.700        73
38.720        67
38.740        50
38.760        43
38.780        67
38.800        80
38.820        50
38.840        57
38.860        50
38.880        63
38.900        50
38.920        63
38.940        60
38.960       103
38.980       103
39.000        57
39.020        57
39.040        50
39.060        57
39.080        73
39.100        73
39.120        73
39.140        70
39.160        87
39.180        57
39.200        83
39.220        63
39.240        70
39.260        80
39.280        53
39.300        63
39.320        73
39.340       100
39.360        50
39.380       100
39.400        57
39.420        43
39.440        97
39.460        67
39.480        53
39.500        73
39.520        47
39.540        33
39.560        67
39.580        37
39.600        87
39.620        77
39.640        40
39.660        50
39.680        83
39.700        47
39.720        40
39.740        67
39.760        50
39.780        70
39.800        77
39.820        53
39.840        70
39.860        53
39.880        80
39.900       117
39.920       107
39.940       123
39.960       137
39.980       153
40.000       180
40.020       257
40.040       220
40.060       400
40.080       590
40.100       690
40.120       616
40.140       580
40.160       403
40.180       340
40.200       347
40.220       290
40.240       243
40.260       210
40.280       120
40.300        70
40.320        83
40.340        70
40.360        70
40.380        70
40.400        80
40.420        77
40.440        83
40.460        57
40.480        83
40.500        63
40.520        60
40.540        97
40.560        50
40.580        33
40.600        67
40.620        90
40.640        50
40.660        57
40.680        57
40.700        50
40.720        63
40.740        63
40.760        60
40.780        60
40.800        47
40.820        87
40.840        67
40.860        77
40.880        60
40.900        60
40.920        53
40.940        50
40.960        73
40.980        40
41.000        43
41.020        33
41.040        97
41.060        47
41.080        87
41.100        60
41.120        63
41.140        60
41.160        57
41.180        73
41.200        80
41.220        73
41.240        43
41.260        97
41.280        60
41.300        57
41.320        50
41.340        43
41.360        70
41.380        47
41.400        53
41.420        80
41.440        63
41.460        60
41.480        60
41.500        50
41.520        60
41.540        43
41.560        50
41.580        50
41.600        83
41.620       107
41.640        57
41.660        63
41.680        70
41.700        80
41.720        57
41.740        80
41.760        60
41.780        53
41.800        67
41.820        67
41.840        53
41.860        70
41.880        63
41.900        60
41.920        97
41.940        60
41.960        37
41.980        80
42.000        73
42.020        60
42.040        53
42.060        77
42.080        70
42.100        57
42.120       100
42.140        57
42.160        80
42.180        53
42.200        67
42.220        50
42.240        73
42.260        57
42.280        43
42.300        40
42.320        80
42.340        57
42.360        53
42.380        47
42.400        70
42.420        47
42.440        67
42.460        40
42.480        70
42.500        67
42.520        60
42.540        50
42.560        47
42.580        70
42.600        83
42.620        50
42.640        83
42.660        80
42.680        63
42.700        73
42.720        83
42.740        67
42.760        47
42.780        73
42.800        57
42.820        73
42.840        63
42.860        73
42.880        67
42.900        37
42.920        47
42.940        83
42.960        53
42.980        63
43.000        60
43.020        53
43.040        60
43.060        67
43.080        50
43.100        63
43.120        50
43.140        60
43.160        63
43.180        43
43.200        53
43.220        57
43.240        47
43.260        80
43.280        60
43.300        57
43.320        87
43.340        70
43.360        53
43.380        53
43.400        73
43.420        60
43.440        77
43.460        53
43.480        50
43.500        77
43.520        50
43.540        73
43.560        43
43.580        67
43.600        50
43.620        57
43.640        53
43.660        77
43.680        77
43.700        50
43.720        57
43.740        67
43.760        63
43.780        70
43.800        77
43.820        63
43.840        57
43.860        80
43.880        37
43.900        50
43.920        57
43.940        67
43.960        67
43.980        43
44.000        40
44.020        47
44.040        53
44.060        80
44.080        50
44.100        77
44.120        60
44.140        57
44.160        50
44.180        60
44.200        57
44.220        37
44.240        57
44.260        40
44.280        47
44.300        57
44.320        37
44.340        57
44.360        47
44.380        57
44.400        70
44.420        47
44.440        60
44.460        30
44.480        37
44.500        57
44.520        80
44.540        80
44.560        57
44.580        60
44.600        60
44.620        93
44.640        50
44.660        47
44.680        90
44.700        93
44.720        53
44.740        50
44.760        73
44.780        43
44.800        77
44.820        67
44.840        67
44.860        53
44.880        73
44.900        60
44.920        53
44.940        73
44.960        67
44.980        77
45.000        50
45.020        73
45.040        60
45.060        63
45.080        77
45.100        87
45.120        57
45.140        73
45.160        57
45.180        67
45.200        70
45.220        73
45.240        87
45.260        67
45.280        50
45.300        43
45.320        70
45.340        57
45.360        80
45.380        47
45.400        60
45.420        33
45.440        53
45.460        43
45.480        37
45.500        47
45.520        93
45.540        53
45.560        47
45.580        67
45.600        57
45.620        37
45.640        73
45.660        50
45.680        67
45.700        73
45.720        63
45.740        60
45.760        53
45.780        80
45.800        73
45.820        90
45.840        63
45.860        87
45.880        53
45.900        47
45.920        57
45.940        77
45.960        60
45.980        67
46.000        90
46.020        60
46.040        57
46.060        57
46.080        73
46.100        73
46.120        87
46.140        53
46.160        47
46.180        63
46.200        73
46.220        53
46.240        67
46.260        50
46.280        50
46.300        87
46.320        80
46.340        70
46.360        70
46.380        87
46.400       127
46.420       120
46.440        93
46.460       153
46.480       120
46.500       220
46.520       230
46.540       313
46.560       367
46.580       553
46.600       756
46.620       996
46.640      1063
46.660       936
46.680       760
46.700       566
46.720       526
46.740       556
46.760       550
46.780       506
46.800       323
46.820       187
46.840       143
46.860        83
46.880        60
46.900        90
46.920        63
46.940        73
46.960        67
46.980        83
47.000        57
47.020        67
47.040        77
47.060        93
47.080        80
47.100        80
47.120        40
47.140        43
47.160        93
47.180        53
47.200        33
47.220        53
47.240        50
47.260        63
47.280        63
47.300        67
47.320        60
47.340        73
47.360        67
47.380        57
47.400        47
47.420        40
47.440        50
47.460        50
47.480        53
47.500        60
47.520        73
47.540        60
47.560        43
47.580        77
47.600        63
47.620        80
47.640        63
47.660        67
47.680        53
47.700        53
47.720        53
47.740        57
47.760        73
47.780        50
47.800        57
47.820        53
47.840        80
47.860        90
47.880        60
47.900        53
47.920        50
47.940        70
47.960        53
47.980        23
48.000        57
48.020        60
48.040        33
48.060        77
48.080        70
48.100        63
48.120        80
48.140        73
48.160        53
48.180        67
48.200        87
48.220        67
48.240        60
48.260        53
48.280        70
48.300        30
48.320        70
48.340        60
48.360        73
48.380        50
48.400        60
48.420        43
48.440        60
48.460        50
48.480        43
48.500        53
48.520        90
48.540        53
48.560        43
48.580        60
48.600        63
48.620        70
48.640        73
48.660        43
48.680        53
48.700        87
48.720        60
48.740        47
48.760        40
48.780        70
48.800        70
48.820        70
48.840        57
48.860        83
48.880        53
48.900        73
48.920        53
48.940        47
48.960        63
48.980        57
49.000        67
49.020        37
49.040        67
49.060        47
49.080        57
49.100        57
49.120        53
49.140        60
49.160        60
49.180        47
49.200        47
49.220        70
49.240        60
49.260        67
49.280        67
49.300        67
49.320        47
49.340        83
49.360        40
49.380        63
49.400        53
49.420        63
49.440        73
49.460        70
49.480        40
49.500        50
49.520        57
49.540        73
49.560        47
49.580        57
49.600        60
49.620        70
49.640        47
49.660        50
49.680        57
49.700        57
49.720        53
49.740        53
49.760        70
49.780        40
49.800        73
49.820        70
49.840        47
49.860        47
49.880        60
49.900        37
49.920        47
49.940        47
49.960        50
49.980        50
50.000        60
50.020        67
50.040        50
50.060        53
50.080        53
50.100        60
50.120        70
50.140        57
50.160        53
50.180        47
50.200        43
50.220        53
50.240        87
50.260        70
50.280        80
50.300        73
50.320        40
50.340        53
50.360        43
50.380        50
50.400        50
50.420        20
50.440        73
50.460        47
50.480        73
50.500        73
50.520        53
50.540        73
50.560        40
50.580        50
50.600        53
50.620        67
50.640        47
50.660        60
50.680        37
50.700        67
50.720        30
50.740        47
50.760        43
50.780        70
50.800        60
50.820        73
50.840        33
50.860        70
50.880        47
50.900        33
50.920        77
50.940        67
50.960        40
50.980        63
51.000        63
51.020        67
51.040        60
51.060        57
51.080        47
51.100        77
51.120        40
51.140        67
51.160        67
51.180        53
51.200        57
51.220        73
51.240        33
51.260        33
51.280        80
51.300        43
51.320        50
51.340        60
51.360        57
51.380        47
51.400        53
51.420        77
51.440        37
51.460        97
51.480        77
51.500        47
51.520        60
51.540        70
51.560        93
51.580        70
51.600        53
51.620        57
51.640        57
51.660        53
51.680        57
51.700        73
51.720        60
51.740        70
51.760        80
51.780        53
51.800        83
51.820        53
51.840        87
51.860        77
51.880        60
51.900        67
51.920        57
51.940        70
51.960        77
51.980        77
52.000        67
52.020        40
52.040        70
52.060        33
52.080        60
52.100        50
52.120        57
52.140        50
52.160        63
52.180        40
52.200        63
52.220        57
52.240        53
52.260        40
52.280        67
52.300        43
52.320        70
52.340        67
52.360        40
52.380        57
52.400        53
52.420        73
52.440        80
52.460        93
52.480        80
52.500       120
52.520       130
52.540       120
52.560       100
52.580        83
52.600       100
52.620        83
52.640        97
52.660        93
52.680        87
52.700        73
52.720        80
52.740        63
52.760        50
52.780       107
52.800        33
52.820        63
52.840        70
52.860        70
52.880        93
52.900        77
52.920        57
52.940        50
52.960        57
52.980        53
53.000        43
53.020        57
53.040        70
53.060        73
53.080        47
53.100        50
53.120        67
53.140        60
53.160        37
53.180        60
53.200        37
53.220        37
53.240        50
53.260        57
53.280        37
53.300        63
53.320        53
53.340        77
53.360        77
53.380        60
53.400        63
53.420        60
53.440        67
53.460        83
53.480        73
53.500        57
53.520        60
53.540        50
53.560        77
53.580        43
53.600        53
53.620        50
53.640        63
53.660        43
53.680        83
53.700        63
53.720       113
53.740        53
53.760        63
53.780        63
53.800        53
53.820        60
53.840        50
53.860        63
53.880        53
53.900        67
53.920        57
53.940        87
53.960        60
53.980        77
54.000        53
54.020        63
54.040        47
54.060        33
54.080        70
54.100        53
54.120        53
54.140        47
54.160        37
54.180        47
54.200        57
54.220        40
54.240        57
54.260        40
54.280        83
54.300        57
54.320        57
54.340        57
54.360        67
54.380        53
54.400        63
54.420        60
54.440        53
54.460        50
54.480        50
54.500        63
54.520        60
54.540        47
54.560        43
54.580        50
54.600        47
54.620        60
54.640        53
54.660        47
54.680        53
54.700        70
54.720        67
54.740        60
54.760        90
54.780        77
54.800        40
54.820        47
54.840        73
54.860        43
54.880        50
54.900        77
54.920        63
54.940        30
54.960        33
54.980        47
55.000        53
55.020        33
55.040        37
55.060        50
55.080        80
55.100        63
55.120        63
55.140        57
55.160        50
55.180        47
55.200        57
55.220        40
55.240        53
55.260        60
55.280        70
55.300        60
55.320        73
55.340        50
55.360        40
55.380        40
55.400        43
55.420        37
55.440        50
55.460        53
55.480        63
55.500        73
55.520        50
55.540        53
55.560        70
55.580        47
55.600        87
55.620        77
55.640        43
55.660        63
55.680        90
55.700        60
55.720        70
55.740        53
55.760        57
55.780        63
55.800        30
55.820        70
55.840        40
55.860        53
55.880        67
55.900        53
55.920        57
55.940        50
55.960        40
55.980        53
56.000        43
56.020        30
56.040        40
56.060        47
56.080        37
56.100        73
56.120        43
56.140        87
56.160        80
56.180        67
56.200        73
56.220        60
56.240        33
56.260        60
56.280        57
56.300        73
56.320        87
56.340        57
56.360        23
56.380        53
56.400        43
56.420        80
56.440        63
56.460        70
56.480        63
56.500        93
56.520        40
56.540        40
56.560        60
56.580        67
56.600        80
56.620        57
56.640        50
56.660        77
56.680        60
56.700        63
56.720        87
56.740        37
56.760        43
56.780        57
56.800        57
56.820        57
56.840        63
56.860        73
56.880        53
56.900        50
56.920        53
56.940        53
56.960        37
56.980        73
57.000        67
57.020        50
57.040        40
57.060        67
57.080        67
57.100        57
57.120        73
57.140        50
57.160        83
57.180        57
57.200        53
57.220        63
57.240        60
57.260        53
57.280        73
57.300        77
57.320        50
57.340        50
57.360        83
57.380        80
57.400        57
57.420        97
57.440        63
57.460        60
57.480        80
57.500        73
57.520        63
57.540        43
57.560        47
57.580        63
57.600        63
57.620        77
57.640        67
57.660       127
57.680       110
57.700        83
57.720       123
57.740        77
57.760        77
57.780       117
57.800       143
57.820       187
57.840       173
57.860       220
57.880       257
57.900       390
57.920       590
57.940       650
57.960      1013
57.980       860
58.000       753
58.020       530
58.040       426
58.060       293
58.080       303
58.100       460
58.120       387
58.140       493
58.160       506
58.180       307
58.200       180
58.220       130
58.240        87
58.260       120
58.280        87
58.300        47
58.320        93
58.340        77
58.360        67
58.380        67
58.400        87
58.420        70
58.440        70
58.460        70
58.480        57
58.500        53
58.520        63
58.540        63
58.560        50
58.580       107
58.600        47
58.620        37
58.640        80
58.660        67
58.680        60
58.700        60
58.720        67
58.740        67
58.760        43
58.780        80
58.800        37
58.820        63
58.840        47
58.860        67
58.880        70
58.900        60
58.920        57
58.940        47
58.960        33
58.980        83
59.000        33
59.020        60
59.040        67
59.060        40
59.080        47
59.100        87
59.120        60
59.140        40
59.160        47
59.180        90
59.200        50
59.220        57
59.240        33
59.260        73
59.280        83
59.300        40
59.320        43
59.340        50
59.360        57
59.380        57
59.400        57
59.420        57
59.440        73
59.460        73
59.480        57
59.500        57
59.520        40
59.540        37
59.560        50
59.580        67
59.600        67
59.620        57
59.640        70
59.660        50
59.680        90
59.700        57
59.720        53
59.740        63
59.760        70
59.780        53
59.800        77
59.820        67
59.840        80
59.860        93
59.880        67
59.900        83
59.920        70
59.940        57
59.960        47
59.980        63
60.000        73
