20.000         0
20.020         0
20.040         0
20.060         0
20.080         0
20.100        71
20.120        43
20.140        57
20.160        43
20.180        71
20.200        29
20.220        86
20.240       143
20.260        43
20.280        29
20.300        43
20.320        57
20.340        43
20.360        57
20.380        57
20.400        43
20.420        86
20.440        86
20.460        29
20.480       100
20.500        43
20.520        29
20.540        57
20.560        29
20.580        86
20.600        43
20.620       114
20.640        57
20.660        29
20.680        71
20.700        14
20.720        43
20.740       100
20.760        29
20.780        14
20.800        43
20.820        71
20.840        29
20.860        71
20.880        71
20.900        57
20.920        86
20.940        71
20.960        29
20.980       100
21.000        29
21.020        43
21.040        71
21.060        14
21.080        43
21.100        57
21.120        71
21.140        57
21.160        57
21.180        57
21.200        71
21.220        71
21.240        57
21.260        43
21.280        71
21.300        43
21.320        71
21.340        43
21.360        43
21.380        86
21.400        57
21.420        57
21.440        29
21.460        57
21.480        86
21.500        57
21.520        43
21.540        57
21.560        86
21.580        86
21.600        43
21.620       100
21.640        57
21.660        43
21.680        57
21.700        71
21.720        71
21.740        43
21.760       100
21.780        43
21.800        29
21.820        43
21.840        57
21.860        29
21.880        57
21.900        43
21.920        43
21.940        14
21.960        71
21.980        86
22.000        71
22.020        29
22.040        29
22.060        29
22.080        14
22.100        57
22.120        86
22.140        43
22.160        86
22.180        43
22.200        57
22.220        57
22.240        14
22.260        43
22.280        57
22.300        71
22.320        29
22.340        14
22.360        43
22.380        86
22.400        43
22.420        43
22.440        29
22.460        29
22.480       114
22.500        14
22.520       129
22.540        14
22.560        86
22.580        86
22.600        43
22.620       186
22.640        14
22.660        43
22.680        86
22.700        86
22.720       100
22.740       143
22.760        71
22.780       114
22.800       129
22.820        57
22.840       100
22.860        71
22.880        86
22.900        71
22.920        71
22.940        29
22.960        29
22.980        57
23.000        43
23.020        57
23.040        43
23.060       143
23.080        14
23.100        86
23.120        43
23.140        43
23.160        57
23.180       129
23.200        71
23.220         0
23.240       100
23.260        71
23.280        57
23.300        43
23.320        86
23.340        86
23.360        57
23.380       100
23.400        29
23.420       100
23.440        14
23.460        57
23.480        57
23.500        57
23.520        57
23.540        71
23.560        14
23.580        71
23.600        71
23.620        57
23.640        57
23.660        14
23.680        71
23.700        57
23.720        14
23.740        71
23.760       114
23.780        57
23.800        86
23.820        43
23.840       114
23.860        86
23.880        29
23.900        71
23.920        29
23.940         0
23.960        57
23.980        14
24.000        86
24.020        57
24.040        57
24.060       129
24.080        86
24.100        86
24.120        14
24.140        43
24.160        57
24.180        71
24.200        71
24.220        14
24.240        71
24.260        43
24.280        57
24.300        57
24.320        29
24.340        43
24.360        14
24.380        57
24.400        86
24.420        71
24.440        29
24.460        29
24.480        14
24.500        29
24.520        86
24.540        57
24.560        29
24.580        57
24.600        57
24.620        57
24.640        43
24.660        71
24.680         0
24.700        71
24.720        43
24.740        86
24.760        57
24.780        29
24.800        71
24.820        29
24.840        43
24.860        71
24.880        57
24.900        29
24.920        43
24.940        14
24.960       114
24.980        57
25.000        86
25.020        86
25.040        43
25.060        57
25.080        57
25.100        86
25.120        71
25.140        14
25.160        14
25.180        29
25.200        14
25.220        71
25.240        43
25.260        43
25.280        43
25.300        71
25.320        43
25.340        29
25.360        43
25.380        71
25.400       114
25.420        43
25.440        29
25.460        43
25.480        71
25.500        86
25.520        86
25.540        29
25.560        29
25.580        29
25.600        57
25.620        29
25.640        86
25.660        29
25.680         0
25.700        71
25.720        57
25.740        43
25.760        43
25.780        43
25.800        43
25.820       100
25.840        57
25.860        43
25.880        71
25.900        86
25.920        57
25.940        43
25.960        43
25.980        14
26.000        57
26.020        57
26.040        29
26.060        14
26.080        57
26.100        71
26.120        43
26.140        14
26.160        71
26.180        57
26.200        43
26.220        29
26.240        71
26.260        57
26.280        29
26.300        57
26.320        57
26.340        29
26.360        43
26.380       114
26.400        43
26.420         0
26.440        43
26.460         0
26.480        71
26.500        29
26.520       100
26.540       100
26.560        71
26.580        57
26.600        71
26.620        86
26.640       129
26.660        57
26.680        57
26.700        57
26.720        71
26.740        57
26.760        43
26.780        43
26.800        57
26.820       100
26.840        57
26.860        57
26.880       129
26.900        29
26.920        71
26.940        71
26.960        86
26.980        71
27.000        71
27.020        71
27.040        29
27.060        29
27.080        57
27.100        43
27.120        57
27.140       100
27.160        43
27.180        29
27.200        43
27.220        57
27.240        29
27.260        71
27.280        43
27.300       129
27.320        43
27.340        14
27.360       100
27.380        29
27.400        29
27.420        86
27.440         0
27.460        71
27.480        86
27.500        57
27.520        71
27.540        86
27.560        43
27.580        57
27.600        57
27.620        29
27.640        86
27.660        43
27.680        43
27.700        14
27.720        86
27.740        71
27.760        43
27.780        43
27.800        86
27.820        43
27.840        29
27.860       100
27.880        29
27.900        29
27.920         0
27.940        43
27.960        43
27.980        14
28.000        43
28.020        71
28.040        57
28.060        86
28.080        57
28.100       100
28.120       129
28.140        14
28.160        71
28.180       100
28.200        57
28.220        29
28.240        43
28.260        71
28.280        43
28.300        71
28.320        71
28.340        57
28.360        14
28.380        86
28.400        29
28.420        43
28.440        14
28.460        57
28.480        57
28.500        71
28.520        29
28.540        29
28.560        57
28.580        43
28.600        14
28.620        57
28.640       100
28.660        71
28.680        14
28.700        71
28.720        71
28.740        71
28.760        29
28.780        43
28.800       100
28.820        43
28.840       114
28.860       157
28.880        29
28.900        29
28.920        86
28.940       114
28.960        43
28.980        14
29.000       100
29.020        57
29.040        29
29.060        43
29.080        71
29.100        43
29.120       100
29.140        43
29.160        43
29.180        29
29.200        43
29.220        43
29.240        86
29.260        57
29.280        43
29.300        86
29.320       100
29.340       143
29.360        57
29.380        86
29.400        43
29.420        29
29.440        29
29.460       114
29.480        29
29.500       100
29.520        14
29.540        29
29.560        29
29.580       100
29.600        57
29.620        29
29.640        57
29.660        57
29.680        57
29.700        43
29.720        43
29.740       129
29.760        29
29.780        86
29.800       100
29.820        86
29.840        57
29.860        71
29.880        29
29.900       100
29.920        71
29.940        71
29.960        71
29.980        29
30.000        29
30.020        57
30.040        29
30.060        29
30.080        57
30.100        43
30.120        86
30.140        57
30.160        29
30.180        14
30.200        57
30.220        86
30.240        29
30.260        57
30.280        86
30.300        57
30.320        57
30.340        57
30.360        57
30.380        14
30.400        29
30.420        57
30.440       114
30.460        43
30.480        86
30.500        86
30.520        57
30.540        86
30.560        14
30.580        71
30.600        71
30.620       100
30.640        29
30.660        29
30.680        43
30.700        71
30.720       100
30.740        86
30.760        71
30.780       100
30.800        86
30.820        43
30.840        29
30.860        43
30.880        14
30.900        71
30.920        43
30.940        43
30.960        57
30.980        57
31.000        43
31.020        43
31.040        29
31.060        57
31.080        14
31.100        29
31.120       100
31.140        57
31.160        71
31.180        57
31.200        43
31.220         0
31.240        57
31.260       100
31.280        43
31.300        29
31.320        57
31.340        29
31.360        86
31.380        29
31.400        57
31.420        43
31.440        14
31.460        57
31.480        86
31.500        71
31.520        43
31.540       171
31.560        43
31.580        43
31.600        86
31.620        29
31.640       143
31.660       171
31.680        29
31.700        43
31.720        71
31.740        29
31.760       114
31.780        71
31.800        57
31.820       114
31.840       129
31.860        57
31.880       100
31.900        57
31.920        71
31.940        86
31.960        57
31.980        86
32.000       100
32.020        86
32.040        14
32.060        57
32.080       143
32.100        71
32.120       143
32.140       157
32.160       114
32.180       143
32.200       157
32.220       157
32.240       228
32.260       286
32.280       300
32.300       500
32.320       557
32.340       714
32.360       757
32.380      1342
32.400      1514
32.420      1714
32.440      2271
32.460      1714
32.480      1642
32.500      1285
32.520      1185
32.540      1071
32.560       785
32.580       600
32.600       357
32.620       271
32.640       228
32.660        86
32.680       114
32.700       114
32.720        43
32.740       157
32.760       129
32.780        29
32.800       100
32.820        43
32.840       114
32.860       100
32.880       143
32.900       100
32.920       129
32.940       129
32.960        43
32.980        43
33.000        71
33.020        71
33.040        86
33.060        71
33.080        71
33.100       129
33.120        86
33.140        57
33.160        29
33.180        71
33.200        57
33.220        43
33.240       100
33.260        14
33.280        86
33.300        43
33.320       100
33.340        43
33.360        43
33.380        86
33.400        43
33.420        29
33.440       114
33.460        86
33.480       114
33.500        86
33.520        57
33.540        57
33.560       129
33.580        71
33.600        43
33.620        43
33.640        57
33.660        57
33.680       100
33.700        29
33.720        71
33.740       100
33.760        29
33.780        14
33.800        86
33.820        43
33.840        43
33.860       100
33.880        86
33.900        57
33.920        71
33.940        57
33.960        43
33.980        86
34.000        43
34.020        43
34.040        43
34.060        14
34.080        43
34.100        57
34.120       114
34.140        71
34.160        86
34.180       100
34.200        43
34.220        57
34.240        86
34.260       100
34.280        57
34.300        86
34.320        29
34.340        57
34.360        29
34.380        14
34.400        29
34.420        86
34.440        43
34.460       129
34.480       100
34.500        57
34.520        43
34.540        57
34.560        57
34.580        86
34.600        86
34.620        14
34.640        43
34.660        71
34.680        57
34.700        57
34.720        86
34.740        57
34.760         0
34.780        57
34.800        14
34.820        86
34.840        71
34.860        71
34.880        86
34.900       129
34.920        71
34.940        86
34.960        71
34.980        14
35.000        86
35.020        29
35.040        71
35.060        71
35.080        71
35.100       114
35.120        29
35.140        43
35.160        71
35.180        14
35.200        43
35.220        29
35.240        71
35.260        57
35.280        14
35.300        57
35.320        29
35.340        71
35.360       114
35.380       114
35.400        71
35.420        43
35.440        29
35.460        43
35.480        86
35.500       100
35.520        29
35.540        57
35.560        14
35.580        86
35.600        43
35.620        14
35.640        43
35.660        43
35.680        86
35.700        43
35.720       114
35.740        57
35.760        29
35.780       100
35.800        57
35.820        71
35.840        57
35.860        71
35.880       129
35.900        29
35.920        71
35.940        29
35.960        57
35.980        86
36.000        43
36.020        29
36.040        43
36.060        71
36.080        43
36.100       143
36.120        43
36.140        14
36.160        57
36.180        57
36.200        43
36.220        71
36.240        43
36.260        43
36.280        43
36.300        86
36.320        43
36.340        29
36.360        71
36.380         0
36.400        43
36.420        29
36.440       100
36.460        29
36.480        57
36.500        71
36.520        14
36.540        71
36.560        14
36.580        43
36.600        29
36.620        86
36.640        43
36.660        57
36.680        86
36.700        71
36.720        57
36.740       100
36.760        29
36.780        57
36.800       100
36.820        14
36.840        86
36.860        43
36.880        43
36.900        71
36.920        29
36.940        57
36.960        71
36.980       143
37.000        29
37.020        14
37.040        57
37.060        43
37.080        29
37.100        71
37.120        57
37.140        29
37.160        43
37.180        43
37.200        29
37.220        86
37.240        29
37.260        57
37.280       100
37.300        43
37.320        57
37.340        71
37.360        71
37.380        57
37.400        57
37.420        86
37.440        14
37.460        71
37.480        14
37.500        71
37.520        29
37.540       100
37.560        29
37.580        71
37.600        71
37.620        29
37.640        86
37.660        86
37.680        43
37.700        29
37.720        29
37.740        86
37.760        57
37.780        43
37.800        57
37.820       100
37.840        29
37.860        43
37.880        43
37.900        14
37.920       100
37.940        43
37.960        57
37.980        57
38.000        57
38.020        71
38.040        43
38.060       114
38.080        14
38.100        57
38.120       114
38.140        57
38.160        43
38.180        57
38.200        71
38.220        43
38.240        43
38.260        86
38.280        29
38.300       114
38.320        14
38.340        57
38.360        43
38.380        71
38.400        86
38.420        71
38.440        57
38.460        86
38.480        71
38.500        43
38.520        43
38.540         0
38.560        29
38.580         0
38.600        57
38.620        43
38.640        57
38.660        43
38.680        43
38.700        71
38.720        43
38.740        43
38.760       100
38.780        43
38.800        57
38.820       100
38.840       100
38.860        43
38.880        43
38.900        57
38.920        43
38.940        57
38.960        86
38.980        86
39.000        14
39.020        57
39.040        86
39.060        71
39.080        29
39.100        57
39.120        43
39.140        14
39.160        43
39.180        57
39.200        14
39.220        29
39.240        14
39.260        86
39.280        29
39.300        71
39.320        43
39.340       100
39.360        71
39.380       100
39.400       114
39.420        57
39.440        57
39.460        71
39.480        71
39.500        71
39.520       100
39.540         0
39.560        43
39.580       114
39.600        14
39.620        57
39.640        57
39.660        14
39.680        71
39.700        43
39.720       114
39.740        57
39.760       100
39.780        57
39.800       100
39.820       129
39.840        86
39.860       129
39.880       314
39.900       171
39.920       257
39.940       357
39.960       457
39.980       486
40.000       614
40.020       514
40.040       328
40.060       328
40.080       200
40.100       414
40.120       386
40.140       257
40.160       171
40.180       129
40.200       157
40.220        57
40.240        86
40.260        43
40.280        57
40.300       100
40.320        29
40.340        43
40.360        71
40.380        57
40.400        57
40.420        43
40.440        57
40.460        71
40.480        86
40.500        57
40.520        86
40.540        43
40.560        86
40.580        57
40.600       143
40.620        71
40.640        71
40.660        43
40.680        43
40.700        71
40.720        71
40.740        43
40.760       114
40.780        71
40.800        86
40.820        29
40.840        43
40.860        86
40.880        57
40.900        86
40.920        57
40.940        43
40.960        57
40.980        57
41.000        71
41.020        71
41.040        43
41.060        86
41.080       129
41.100       143
41.120        29
41.140        43
41.160        43
41.180        57
41.200       100
41.220        86
41.240        86
41.260        86
41.280        43
41.300        57
41.320        71
41.340        43
41.360        57
41.380        71
41.400       100
41.420        43
41.440        86
41.460       143
41.480        29
41.500        29
41.520        57
41.540        29
41.560         0
41.580        86
41.600        71
41.620        29
41.640        57
41.660        14
41.680        71
41.700        43
41.720        43
41.740        57
41.760        57
41.780       100
41.800        71
41.820        71
41.840        71
41.860        43
41.880        57
41.900        29
41.920        14
41.940        71
41.960        71
41.980        86
42.000        57
42.020       100
42.040        71
42.060        57
42.080        71
42.100        29
42.120        71
42.140        29
42.160        86
42.180        57
42.200        14
42.220        43
42.240        57
42.260        71
42.280        57
42.300        43
42.320        29
42.340        43
42.360        86
42.380        57
42.400        29
42.420         0
42.440       114
42.460       100
42.480       114
42.500        57
42.520       114
42.540        14
42.560        29
42.580       114
42.600        57
42.620        29
42.640       100
42.660        43
42.680       114
42.700        43
42.720        86
42.740        57
42.760        29
42.780        43
42.800        57
42.820        71
42.840        86
42.860        86
42.880        57
42.900        43
42.920        29
42.940        29
42.960       143
42.980        29
43.000        43
43.020       129
43.040        43
43.060        57
43.080        57
43.100        71
43.120        43
43.140        57
43.160       100
43.180        43
43.200        14
43.220        71
43.240        57
43.260        29
43.280        57
43.300        86
43.320        57
43.340       100
43.360        29
43.380         0
43.400         0
43.420        86
43.440        86
43.460        71
43.480        57
43.500        29
43.520        86
43.540        71
43.560        14
43.580        14
43.600        29
43.620        57
43.640        43
43.660        14
43.680        71
43.700        86
43.720       114
43.740        43
43.760        29
43.780        29
43.800        57
43.820        29
43.840       100
43.860        71
43.880        14
43.900        29
43.920        29
43.940        86
43.960        43
43.980        29
44.000        43
44.020        43
44.040        57
44.060        57
44.080        29
44.100        29
44.120        43
44.140        86
44.160        71
44.180        71
44.200       100
44.220        86
44.240        43
44.260        43
44.280        57
44.300        86
44.320        29
44.340        57
44.360        29
44.380        71
44.400        43
44.420        57
44.440        71
44.460        43
44.480        43
44.500        43
44.520        86
44.540        43
44.560       114
44.580        29
44.600        29
44.620       100
44.640        71
44.660        43
44.680        43
44.700        57
44.720        57
44.740        57
44.760        43
44.780        14
44.800        71
44.820        71
44.840        29
44.860        86
44.880        43
44.900        71
44.920        71
44.940        43
44.960        43
44.980       100
45.000        29
45.020        43
45.040        43
45.060        71
45.080        57
45.100        43
45.120        43
45.140       114
45.160        29
45.180       129
45.200        57
45.220        71
45.240        71
45.260        57
45.280        71
45.300        57
45.320        86
45.340        71
45.360        43
45.380        71
45.400        71
45.420        86
45.440        71
45.460        43
45.480       143
45.500        29
45.520       100
45.540       129
45.560         0
45.580        29
45.600        43
45.620       100
45.640        57
45.660        86
45.680        29
45.700        29
45.720        86
45.740        57
45.760       100
45.780        57
45.800        14
45.820        43
45.840        86
45.860        71
45.880        86
45.900        14
45.920       114
45.940        43
45.960        57
45.980        71
46.000        86
46.020        57
46.040        57
46.060        43
46.080        71
46.100        86
46.120        86
46.140        29
46.160        29
46.180        29
46.200        71
46.220        71
46.240        86
46.260        86
46.280        43
46.300       157
46.320       157
46.340       214
46.360       343
46.380       243
46.400       257
46.420       428
46.440       386
46.460       600
46.480       614
46.500       700
46.520       743
46.540       757
46.560       743
46.580       600
46.600       657
46.620       671
46.640       643
46.660       585
46.680       457
46.700       257
46.720       271
46.740       228
46.760       171
46.780       129
46.800       100
46.820        43
46.840       100
46.860       100
46.880        43
46.900       114
46.920        57
46.940       114
46.960        71
46.980        43
47.000       129
47.020        57
47.040       100
47.060       114
47.080        57
47.100        43
47.120        57
47.140        43
47.160        57
47.180        71
47.200        57
47.220        43
47.240         0
47.260        43
47.280        43
47.300        43
47.320        86
47.340        71
47.360        43
47.380        43
47.400        43
47.420        43
47.440         0
47.460        43
47.480        71
47.500        71
47.520        43
47.540       114
47.560        57
47.580        71
47.600        71
47.620        86
47.640        57
47.660        29
47.680        43
47.700        14
47.720        86
47.740        57
47.760        57
47.780        29
47.800        71
47.820        86
47.840         0
47.860        71
47.880       100
47.900        57
47.920        71
47.940        43
47.960       100
47.980        71
48.000        71
48.020        71
48.040        29
48.060        57
48.080        43
48.100        43
48.120        86
48.140        14
48.160        71
48.180        86
48.200        43
48.220        29
48.240        43
48.260        57
48.280        57
48.300        71
48.320        86
48.340        57
48.360       100
48.380        43
48.400        71
48.420         0
48.440        14
48.460        57
48.480        86
48.500        57
48.520        43
48.540       100
48.560        29
48.580       129
48.600        71
48.620        86
48.640         0
48.660        43
48.680       114
48.700        29
48.720        29
48.740        43
48.760        29
48.780        29
48.800        71
48.820       114
48.840       100
48.860        14
48.880        29
48.900        43
48.920       100
48.940        29
48.960        43
48.980       100
49.000        14
49.020         0
49.040        86
49.060       129
49.080        43
49.100        29
49.120        71
49.140        57
49.160        14
49.180        57
49.200        71
49.220        43
49.240       114
49.260        57
49.280       100
49.300        71
49.320        57
49.340        71
49.360        29
49.380        14
49.400        43
49.420       114
49.440       114
49.460        43
49.480        29
49.500        29
49.520       100
49.540        57
49.560        57
49.580        71
49.600        86
49.620        71
49.640        43
49.660        43
49.680        29
49.700        43
49.720        71
49.740        43
49.760        71
49.780        14
49.800        57
49.820       143
49.840        86
49.860        43
49.880        43
49.900       114
49.920        43
49.940        57
49.960       114
49.980        71
50.000        86
50.020        43
50.040        57
50.060        43
50.080        86
50.100        29
50.120        71
50.140        43
50.160        43
50.180        29
50.200        71
50.220        57
50.240        57
50.260        71
50.280        86
50.300       100
50.320        43
50.340        29
50.360         0
50.380        29
50.400        86
50.420        71
50.440        43
50.460        71
50.480       171
50.500         0
50.520        57
50.540        57
50.560        14
50.580        86
50.600        29
50.620        71
50.640        29
50.660        71
50.680        86
50.700        14
50.720        57
50.740        29
50.760        29
50.780        71
50.800        43
50.820        29
50.840        71
50.860        71
50.880        86
50.900       114
50.920       100
50.940        86
50.960       100
50.980        14
51.000        57
51.020        86
51.040        71
51.060        29
51.080        43
51.100        43
51.120        57
51.140        14
51.160        43
51.180        29
51.200        14
51.220        86
51.240        43
51.260       114
51.280        57
51.300        29
51.320        29
51.340        29
51.360        57
51.380        29
51.400        43
51.420        29
51.440        43
51.460        29
51.480       114
51.500        57
51.520        43
51.540        71
51.560        71
51.580        43
51.600        57
51.620        43
51.640        57
51.660       129
51.680       129
51.700        71
51.720        57
51.740        43
51.760       100
51.780        57
51.800        14
51.820         0
51.840       114
51.860       114
51.880        14
51.900        71
51.920        43
51.940        71
51.960        29
51.980        57
52.000        29
52.020        29
52.040        57
52.060        86
52.080        43
52.100        57
52.120        43
52.140        14
52.160        29
52.180        57
52.200        29
52.220        43
52.240       100
52.260        43
52.280        29
52.300        14
52.320        29
52.340        57
52.360       171
52.380       129
52.400        86
52.420        86
52.440       157
52.460       114
52.480        29
52.500        71
52.520        86
52.540        43
52.560        71
52.580       100
52.600        71
52.620        43
52.640        43
52.660        86
52.680        86
52.700       100
52.720        57
52.740        57
52.760        43
52.780        71
52.800        57
52.820        14
52.840        29
52.860         0
52.880        43
52.900         0
52.920        43
52.940        71
52.960        71
52.980        43
53.000        57
53.020        43
53.040        86
53.060        86
53.080        43
53.100         0
53.120       100
53.140        57
53.160        43
53.180        43
53.200        71
53.220       129
53.240        86
53.260        43
53.280        14
53.300        71
53.320        29
53.340        71
53.360        71
53.380        57
53.400        43
53.420        71
53.440        71
53.460        71
53.480       114
53.500        29
53.520        71
53.540        29
53.560        14
53.580        29
53.600        14
53.620        43
53.640        43
53.660        43
53.680        71
53.700        57
53.720        57
53.740        14
53.760       100
53.780       114
53.800        29
53.820        71
53.840        57
53.860        29
53.880        14
53.900        86
53.920       100
53.940        43
53.960        14
53.980        29
54.000       129
54.020        71
54.040        57
54.060        29
54.080        43
54.100        43
54.120        57
54.140        14
54.160        71
54.180        57
54.200        14
54.220        43
54.240        57
54.260        43
54.280        43
54.300         0
54.320        43
54.340        43
54.360        43
54.380        14
54.400        29
54.420       100
54.440        29
54.460        86
54.480        86
54.500        71
54.520        43
54.540       100
54.560        57
54.580        29
54.600        57
54.620        43
54.640        29
54.660        71
54.680        57
54.700        29
54.720        29
54.740        86
54.760        86
54.780        43
54.800        57
54.820        43
54.840        57
54.860        86
54.880        29
54.900        57
54.920       100
54.940        43
54.960        29
54.980        43
55.000        29
55.020        71
55.040        14
55.060        71
55.080        43
55.100        14
55.120        86
55.140        29
55.160       114
55.180        86
55.200        57
55.220        57
55.240        71
55.260        29
55.280       114
55.300        71
55.320       100
55.340        86
55.360        57
55.380        43
55.400        86
55.420        71
55.440        71
55.460        57
55.480        71
55.500        29
55.520        57
55.540        71
55.560        43
55.580        71
55.600        29
55.620       100
55.640        43
55.660        71
55.680        43
55.700        71
55.720        29
55.740        43
55.760        14
55.780        86
55.800       100
55.820        71
55.840        71
55.860        86
55.880        71
55.900        57
55.920        43
55.940        57
55.960        29
55.980        57
56.000        29
56.020        57
56.040        43
56.060        71
56.080        43
56.100         0
56.120        71
56.140        71
56.160       100
56.180        57
56.200       100
56.220        57
56.240        57
56.260        43
56.280        57
56.300        57
56.320       100
56.340        14
56.360        86
56.380        43
56.400       171
56.420        71
56.440        86
56.460        86
56.480        71
56.500        43
56.520        43
56.540        57
56.560       114
56.580        86
56.600        43
56.620        57
56.640        86
56.660       114
56.680        57
56.700        57
56.720        43
56.740        57
56.760        57
56.780       100
56.800        71
56.820        57
56.840       114
56.860        71
56.880        57
56.900        57
56.920        57
56.940        29
56.960        71
56.980        29
57.000        86
57.020       100
57.040        71
57.060        43
57.080        14
57.100        57
57.120       100
57.140        71
57.160        43
57.180        57
57.200         0
57.220        43
57.240        43
57.260        57
57.280        29
57.300        14
57.320        57
57.340        86
57.360        29
57.380        43
57.400        29
57.420        43
57.440        43
57.460        57
57.480        29
57.500        57
57.520        71
57.540       100
57.560        86
57.580       129
57.600       114
57.620        43
57.640       200
57.660       200
57.680       143
57.700       171
57.720       314
57.740       328
57.760       486
57.780       600
57.800       614
57.820       614
57.840       628
57.860       643
57.880       514
57.900       428
57.920       386
57.940       471
57.960       400
57.980       386
58.000       443
58.020       371
58.040       243
58.060       200
58.080       129
58.100       171
58.120       143
58.140        86
58.160       100
58.180        43
58.200       143
58.220        29
58.240        57
58.260        43
58.280       100
58.300        29
58.320        43
58.340       100
58.360        14
58.380        57
58.400        43
58.420        86
58.440        57
58.460        71
58.480        29
58.500        29
58.520       100
58.540        29
58.560        29
58.580        71
58.600        43
58.620       100
58.640        43
58.660        14
58.680        86
58.700       114
58.720        86
58.740        71
58.760       114
58.780        57
58.800        86
58.820        57
58.840        57
58.860        57
58.880        29
58.900        43
58.920        29
58.940       100
58.960        43
58.980        29
59.000        57
59.020       129
59.040        71
59.060        57
59.080       129
59.100        43
59.120        43
59.140       100
59.160        57
59.180        86
59.200         0
59.220        29
59.240        71
59.260        29
59.280        86
59.300        71
59.320        43
59.340        43
59.360        29
59.380        71
59.400        71
59.420        57
59.440        43
59.460        43
59.480        43
59.500        43
59.520        29
59.540        71
59.560        29
59.580        14
59.600        29
59.620        86
59.640        29
59.660        57
59.680        29
59.700        43
59.720        57
59.740        29
59.760        57
59.780       114
59.800        14
59.820       100
59.840        43
59.860        86
59.880        29
59.900        86
59.920        14
59.940        71
59.960        86
59.980        43
60.000        14
